80.000000	13.471076	7.862914	55.567187	-1.975915	114.405227	-13.283342	184.805329	-40.141842	400.603131	-58.352399	225.212347	91.156014	186.210512	107.802685	302.254526	204.390723	0.817929	0.990346	0.909808	0.952867	0.951878	0.897246	0.986541	533.172284	253617.705567	36.598169	972.277399	1040.360527	93.569076	1675614620.711936	0.000000
81.000000	11.696548	14.397048	40.715043	19.061121	77.103580	30.356875	112.243546	24.619726	394.166652	8.651158	178.858731	-6.166867	237.806521	-42.080561	740.482421	115.070377	0.849892	0.906243	0.840674	0.803759	0.998779	0.988754	1.036293	469.587323	237620.384682	36.590327	903.432914	948.768818	93.693573	1675614620.715918	0.000000
82.000000	10.000000	21.395264	25.264793	48.900945	37.594581	75.931610	35.685933	119.615522	94.005590	179.795735	38.868684	257.488117	-4.667331	203.670098	104.295256	388.955750	0.941789	0.843201	0.886098	0.816929	0.932977	0.869742	1.012163	496.212777	251242.375303	36.609237	1011.196279	907.711995	93.652380	1675614620.719915	0.000000
83.000000	8.237835	28.014605	8.504483	77.081313	2.506075	141.786321	-52.419440	227.940587	-21.175879	205.969872	-97.857684	228.157254	-68.123222	294.478683	-3.860650	295.320602	0.895056	0.852937	0.942529	0.872455	0.980494	0.952516	0.940746	545.520879	238447.699965	36.606140	933.069754	1037.886975	92.200960	1675614620.723912	0.000000
84.000000	6.474454	35.407149	-3.722428	85.956931	-20.546559	138.980127	-22.857362	160.006192	42.022996	127.885424	137.813302	86.184831	254.882992	10.157488	362.216912	-113.848545	0.984480	0.856772	0.923068	0.863922	0.924499	0.895509	0.904900	548.918683	268584.019851	36.598549	900.942091	1016.123481	81.313956	1675614620.727921	0.000000
85.000000	4.941041	42.364640	-8.705267	101.311766	-15.849645	116.322919	44.780259	55.932196	182.834217	-14.709399	250.513589	-63.923586	305.032200	136.188380	124.670323	293.938824	0.845780	0.902876	0.894382	0.886755	0.859228	0.822750	0.985259	470.917412	241027.657532	36.609484	1090.268243	976.213542	91.565918	1675614620.731930	0.000000
86.000000	2.847982	44.268007	-17.516990	93.918366	13.725086	48.398394	145.625933	-7.803265	183.613424	40.740082	156.120840	154.861570	58.783905	842.339560	11.718308	316.067905	0.968770	0.973197	0.841572	0.900086	0.833401	0.946569	0.929768	473.331505	252232.979828	36.591317	982.314972	965.378779	96.673861	1675614620.735922	0.000000
87.000000	1.522709	46.741451	-10.430278	63.493564	61.238803	-4.555932	141.325623	-43.334453	122.776383	155.469832	-44.314074	382.471492	-12.647291	137.096517	243.634421	-208.247957	0.942385	0.949338	0.924151	0.847764	0.990526	0.855620	1.054597	485.787245	274837.948672	36.595576	1080.813129	981.540333	88.289753	1675614620.739938	0.000000
88.000000	0.516748	46.534558	-0.767369	38.602617	107.153737	-37.481931	112.323406	91.545478	10.987396	193.803358	57.090140	96.138953	276.246802	-33.805512	228.941590	199.730285	0.969432	0.880646	0.801638	0.970572	0.911232	0.987766	0.961537	483.540874	251759.190573	36.599947	967.826374	1076.158899	96.063549	1675614620.743930	0.000000
89.000000	-0.617524	48.464739	11.717405	13.046470	125.115992	-14.981614	51.347017	185.141909	-39.750320	114.547463	441.041309	-114.888899	268.759421	175.044734	54.041423	801.900460	0.949211	0.958349	0.841421	0.917760	0.918478	0.868198	0.910459	536.934090	243382.824643	36.606800	1042.242322	1065.257082	90.930153	1675614620.747925	0.000000
90.000000	-1.937850	43.503856	29.010582	-17.960635	126.289010	59.877542	-12.702800	206.528851	91.617206	-5.767655	265.334092	123.775694	-134.964367	359.701598	158.447530	-117.956581	0.915526	0.865655	0.899170	0.978388	0.897673	0.832444	1.042866	450.500312	278008.281765	36.601335	1085.024489	906.061162	98.385254	1675614620.751934	0.000000
91.000000	-2.654346	39.171548	46.282912	-21.374551	80.525224	123.008577	-23.944748	83.178702	209.529218	-7.397288	75.566645	261.257013	51.489901	44.165313	266.076316	345.763759	0.896608	0.903411	0.958464	0.929045	0.842926	0.918451	1.092557	519.102241	250073.192078	36.599592	909.876831	1052.414778	96.414987	1675614620.755955	0.000000
92.000000	-3.591385	33.935687	60.496551	-2.397103	37.108001	160.078225	46.927705	-0.396400	166.157460	175.169725	-72.672712	128.073871	231.717788	83.819340	-62.371665	283.748114	0.830635	0.957432	0.869531	0.951173	0.925570	0.873509	0.908579	495.299927	236614.540011	36.599272	1073.159360	988.850974	89.553966	1675614620.759946	0.000000
93.000000	-3.761164	29.769404	72.860827	8.464240	-12.312303	138.516410	113.401221	-41.994312	66.579479	247.627433	109.784721	-20.589857	147.928133	209.673241	-16.272129	-43.754444	0.822615	0.960229	0.984078	0.818264	0.898823	0.801999	1.062040	542.029746	238354.679400	36.593094	1036.794847	1084.163531	91.675423	1675614620.763944	0.000000
94.000000	-4.755896	22.262172	73.955728	33.718168	-23.421284	70.797669	174.180204	123.067673	-80.936026	129.454346	304.804545	94.043930	3.153491	206.469613	293.888332	135.007776	0.973605	0.975888	0.946572	0.876258	0.809648	0.861576	1.068137	537.055282	268998.007205	36.603378	1052.962154	1027.802886	86.005925	1675614620.767945	0.000000
95.000000	-4.277328	15.207262	76.037282	66.456452	-16.747106	19.401136	142.826352	163.915944	18.996807	-68.743575	198.751632	216.975024	201.706466	-123.721856	302.361786	530.627006	0.829350	0.825643	0.920286	0.833199	0.819708	0.836807	1.059414	497.821949	233209.767203	36.594057	1095.171998	1062.378646	87.198496	1675614620.771905	0.000000
96.000000	-3.243951	7.255451	61.908772	75.691209	13.323404	-12.694022	65.488380	183.674855	145.908227	-6.926518	-83.448761	151.998750	715.675219	188.776187	-17.168633	128.616010	0.949003	0.964135	0.901250	0.879418	0.913386	0.801499	0.930813	473.743117	272713.120871	36.598641	1050.555560	1030.198529	87.685146	1675614620.775939	0.000000
97.000000	-3.980922	1.051663	54.560156	99.291414	64.297019	-26.902192	13.096985	105.730948	261.184693	164.418247	9.736862	5.264428	138.212892	326.547901	440.013116	79.933115	0.936227	0.891955	0.878257	0.912612	0.887290	0.942214	0.958431	452.855849	244674.938274	36.605883	1040.011379	1072.420048	84.624241	1675614620.779913	0.000000
98.000000	-2.970172	-1.241226	37.331951	87.541927	94.343387	43.283579	-49.972410	-22.290001	144.920158	288.517614	247.912075	63.108087	-114.672099	21.131873	314.541623	564.813328	0.995677	0.957063	0.844966	0.856117	0.814468	0.968857	0.982548	455.239849	238553.862850	36.596141	1061.190350	982.647120	97.157613	1675614620.783938	0.000000
99.000000	-1.601558	-6.080531	19.762202	79.952232	126.756166	101.828161	17.596411	-20.435764	-22.614534	263.606303	273.361607	451.835420	141.934287	63.161858	-137.442038	15.203617	0.934573	0.866931	0.816004	0.999017	0.851642	0.885484	0.959210	470.578185	269027.048663	36.602798	958.121195	993.975015	97.057064	1675614620.787939	0.000000
100.000000	-0.874394	-9.380295	6.001675	51.315062	112.446237	126.741230	97.990554	50.719071	20.629392	-97.793965	89.346828	472.185312	331.636366	360.362153	156.660490	-78.174722	0.811790	0.860599	0.992066	0.802443	0.972606	0.809031	0.962650	503.339102	263228.839131	36.597909	1074.390700	1088.680377	93.398903	1675614620.791953	0.000000
101.000000	0.720494	-7.389024	-2.157776	26.193649	77.552154	130.535124	134.066369	132.589299	76.993253	38.669899	-43.043821	-62.080016	113.303813	433.881792	199.209968	502.995826	0.852586	0.902861	0.848636	0.862640	0.829274	0.849903	0.932953	495.513862	273911.119319	36.604571	901.412960	954.168345	90.061285	1675614620.795954	0.000000
102.000000	1.743802	-4.705716	-11.705283	5.961947	35.364573	94.733173	151.671535	234.162387	214.157515	178.315044	100.023130	-7.623688	-11.905918	-76.326597	66.855764	139.597043	0.953246	0.958701	0.959747	0.959355	0.839750	0.846406	0.995482	488.934711	277403.624404	36.601567	959.076081	969.744200	82.601066	1675614620.799918	0.000000
103.000000	3.279385	-2.914505	-6.618197	-22.388857	-8.049470	31.197001	77.163228	115.223246	166.946946	174.144978	252.574566	213.719707	205.392954	246.005082	27.300241	51.508672	0.970297	0.855091	0.812491	0.953081	0.814075	0.835883	1.005909	524.038460	261272.054325	36.594681	936.013966	951.943842	86.580050	1675614620.803949	0.000000
104.000000	4.765083	1.886677	-2.740192	-19.610850	-13.477382	-26.208601	9.015042	43.931062	68.771644	123.554837	193.366217	279.472920	398.200843	442.402050	266.918746	709.784473	0.947818	0.854880	0.825873	0.896405	0.985871	0.943964	0.963692	457.851375	269978.875034	36.590638	1066.923749	957.855712	99.335971	1675614620.807959	0.000000
105.000000	6.317296	8.572778	2.736688	-5.248158	-21.149503	-28.842008	-49.625921	-29.842979	3.207346	19.420738	-53.425561	-44.368577	24.741723	86.449543	138.492545	373.632235	0.843200	0.963589	0.811694	0.818291	0.859609	0.948968	1.013149	463.958769	231794.765813	36.600923	968.809134	1080.044523	88.562016	1675614620.811952	0.000000
106.000000	8.200286	13.892815	17.233467	21.112786	22.232351	30.379168	13.504167	17.321987	41.359403	33.356863	46.727302	-59.873772	-111.108696	-99.038899	3.119539	-241.427897	0.979827	0.935472	0.856552	0.803916	0.885024	0.889605	0.978169	549.687138	252768.585175	36.608794	1097.148436	1096.583303	92.722346	1675614620.815944	0.000000
107.000000	10.000000	21.414963	34.265404	47.879968	62.215886	81.700528	93.195981	111.517204	298.609616	190.836426	154.568209	211.760435	189.198618	299.299353	280.334803	300.283020	0.931407	0.862533	0.991531	0.947100	0.840065	0.810496	1.049336	522.466865	252017.095232	36.606465	955.633304	966.828602	92.735530	1675614620.819944	0.000000
108.000000	11.749362	29.004566	47.714574	72.259699	107.727998	129.056888	171.242919	194.758428	396.091417	293.136375	246.757656	277.419416	308.941113	287.757341	238.140991	232.061821	0.871564	0.911453	0.990241	0.876566	0.886680	0.858340	1.022120	502.594492	233607.788152	36.607796	998.516004	1068.099377	88.532942	1675614620.823946	0.000000
109.000000	13.509570	36.037931	65.845921	100.385256	127.502624	132.851644	152.434412	177.976064	342.718025	112.862142	202.142736	18.923704	-35.515310	-130.573818	-210.109559	-211.012915	0.994989	0.823943	0.974505	0.998037	0.924602	0.895352	0.935712	536.184517	259140.850528	36.597257	917.017143	959.138936	82.666372	1675614620.827945	0.000000
110.000000	15.401697	39.781943	69.704745	86.438455	113.482505	112.102560	85.373331	52.835224	-14.100716	-42.323227	-98.451649	-34.308089	69.846249	47.326612	161.510926	233.192622	0.967698	0.967460	0.920821	0.873562	0.984427	0.902762	1.064694	469.151739	231640.770483	36.606444	1017.250289	1053.457743	97.254858	1675614620.831934	0.000000
111.000000	16.938582	42.447442	76.138986	83.401915	85.442272	52.539896	25.741136	-55.793566	-41.785067	-4.040911	141.351208	159.980823	207.384681	236.141538	725.359868	378.630249	0.994040	0.998489	0.920620	0.916564	0.980914	0.925215	1.083695	514.953583	240710.428897	36.593353	987.459027	1062.764195	86.152357	1675614620.835963	0.000000
112.000000	18.451320	48.657185	67.817178	70.488465	38.029242	-7.044060	-54.657360	6.094911	61.917460	156.541568	270.388117	380.990334	259.036001	134.643697	49.436023	-102.083234	0.810898	0.950217	0.900724	0.921372	0.819744	0.958797	1.034665	481.454997	232567.824481	36.598498	1035.998211	929.586154	97.994967	1675614620.839966	0.000000
113.000000	19.209850	45.677109	59.027390	38.599838	-5.599706	-36.606680	-9.167089	91.336492	204.209510	301.928218	246.209319	90.392528	-83.906018	74.005226	98.877432	259.479471	0.848958	0.803719	0.961349	0.932969	0.908743	0.956254	1.041622	519.980896	229347.762356	36.593945	919.954454	1016.493999	88.578489	1675614620.843934	0.000000
114.000000	21.015110	46.776773	46.846533	9.612179	-12.186228	2.685420	88.238852	202.684624	231.262915	116.767101	60.492436	-62.401781	60.333718	205.319497	326.692742	378.448330	0.941013	0.957571	0.860728	0.849844	0.905385	0.832877	1.079084	456.656032	257132.934514	36.601641	1070.192496	1061.988360	99.686968	1675614620.847931	0.000000
115.000000	21.542897	47.089810	30.932097	-3.268382	-10.528651	59.864709	147.488305	175.934749	86.507797	-20.769900	-32.616893	127.417428	617.988814	229.136146	139.492589	42.304886	0.955411	0.948823	0.875590	0.894013	0.903288	0.968869	0.920255	514.944557	260387.570018	36.599916	988.718763	1063.895170	90.577703	1675614620.851924	0.000000
116.000000	22.647342	41.082731	13.482124	-8.617415	16.998872	112.350445	182.907628	82.576435	-33.748834	-50.333767	145.913921	212.938445	190.974443	89.662777	46.991094	159.295323	0.830940	0.862760	0.968126	0.857635	0.854267	0.868999	0.933392	487.997021	242901.226937	36.595544	963.647558	900.088473	80.603749	1675614620.855939	0.000000
117.000000	23.345173	35.747912	1.928168	-16.498893	61.916191	168.713528	93.542430	-42.016925	-30.494964	161.617521	218.514265	130.159884	-8.310897	-38.973452	217.026002	286.824432	0.997741	0.862217	0.934854	0.877996	0.890317	0.987300	0.955535	527.939248	244357.718466	36.600606	1086.474762	987.286013	96.777427	1675614620.859960	0.000000
118.000000	23.536104	29.403883	-10.535555	8.698938	106.036853	143.284843	26.499807	1.375769	126.680960	178.596726	110.521113	-147.799813	47.182601	604.930047	234.204169	109.998592	0.895095	0.938008	0.984187	0.800128	0.826118	0.828122	0.973417	482.556363	232585.139001	36.592972	1081.412243	1055.111721	95.464896	1675614620.863966	0.000000
119.000000	24.808330	21.956456	-6.462237	35.384383	134.539316	72.727358	-54.872399	65.546698	200.322682	135.821355	38.378979	203.655240	212.014969	365.788774	55.815291	234.126079	0.900722	0.916429	0.867212	0.837558	0.958427	0.965036	0.975524	520.514497	235796.117968	36.604483	1017.326945	1053.740006	89.472466	1675614620.867957	0.000000
120.000000	24.398184	15.506603	-9.630712	59.089643	101.721513	13.970403	-26.892756	144.315642	174.595960	21.514823	52.869977	544.859947	153.018470	-100.861981	170.696671	892.395263	0.902291	0.824141	0.954289	0.957206	0.909085	0.939896	0.932976	462.025962	267501.122339	36.593578	956.214379	1038.356508	92.566809	1675614620.871955	0.000000
121.000000	23.291295	8.655780	-0.651015	89.555335	86.315509	-18.433978	74.688368	188.288405	26.978925	-3.013932	230.466298	332.287241	-85.852606	165.537950	372.669903	-6.406063	0.976275	0.909118	0.849339	0.956218	0.960037	0.910958	0.925059	528.300154	259043.352039	36.603404	1017.262034	1010.629575	98.089034	1675614620.875919	0.000000
122.000000	24.039660	3.494879	6.369814	90.387941	34.355589	-21.487864	144.305197	114.962399	-82.704843	182.183675	171.330686	3.415131	126.815736	233.483051	12.107189	-26.631049	0.889454	0.855521	0.821558	0.823121	0.985159	0.824451	1.042822	467.499529	269438.500049	36.599180	1036.862079	933.597326	99.006563	1675614620.879956	0.000000
123.000000	22.578345	-2.627014	24.202230	89.103794	-10.982039	39.040087	169.298653	34.364829	54.585294	177.831237	-16.821862	77.012090	207.526197	21.452694	-2.073349	335.711844	0.814624	0.806403	0.955338	0.883725	0.801341	0.943171	0.988695	469.671982	269665.427905	36.603495	944.857593	1008.846433	92.834825	1675614620.883957	0.000000
124.000000	21.937763	-4.721671	38.985079	80.470585	-35.896790	109.496127	99.227273	-48.550374	155.900142	233.456830	20.414362	330.565828	112.174321	86.917947	278.871366	29.914935	0.839954	0.947547	0.908268	0.881535	0.957271	0.953192	0.906612	520.954739	246079.498634	36.595646	967.896128	925.768164	94.895162	1675614620.887952	0.000000
125.000000	21.030396	-5.403981	50.608527	53.278232	-2.273740	144.033145	38.641798	80.994845	245.696275	-97.303398	135.222996	257.183454	-30.053405	260.349012	138.977216	88.887044	0.881678	0.831118	0.921109	0.974101	0.899492	0.994482	1.089476	492.896642	241949.433905	36.598705	946.189532	969.399643	89.403390	1675614620.891961	0.000000
126.000000	19.643077	-7.494776	63.243220	25.685702	17.207921	133.389501	-29.840160	143.680167	103.446230	29.158612	213.098659	14.071675	164.023970	290.928494	-114.766902	439.498046	0.858613	0.892731	0.910570	0.833146	0.817485	0.886501	1.060855	450.293421	239024.110730	36.600556	921.074204	972.145370	94.696520	1675614620.895970	0.000000
127.000000	18.231473	-6.095212	65.666041	-2.152133	61.602611	90.489972	3.475796	188.023480	9.721091	158.406092	134.603889	48.411291	367.546809	-67.531820	492.288977	150.808990	0.973159	0.877113	0.975961	0.845220	0.981807	0.934576	0.901489	451.478436	242151.526245	36.602789	998.434060	1043.497560	92.791399	1675614620.899960	0.000000
128.000000	17.127181	-2.350487	75.001333	-15.937656	106.741320	33.387278	64.989218	158.122502	-41.701346	180.134801	35.625868	280.868478	79.099259	125.434834	451.369710	-29.732068	0.986113	0.883785	0.866994	0.861951	0.803246	0.996238	0.947489	510.511210	267185.985697	36.602579	1014.917770	910.595848	89.675742	1675614620.903954	0.000000
129.000000	15.202542	1.680391	66.001214	-22.717822	116.865892	-28.227323	154.752479	42.637900	114.907747	133.351776	52.010144	192.910697	-62.027138	398.836957	-208.609129	469.573714	0.949184	0.871281	0.982460	0.876432	0.934177	0.817597	0.922417	490.235980	271477.260967	36.590280	961.344627	941.469234	93.644413	1675614620.907952	0.000000
130.000000	13.487531	7.117571	56.082649	2.416906	124.020535	-35.037045	150.229858	-76.652559	175.521383	-52.650007	166.925432	-27.797143	168.955948	65.818870	159.605114	206.397840	0.943265	0.924131	0.975119	0.932443	0.842448	0.979341	0.901021	463.659621	248078.537668	36.603822	1081.484109	1001.339177	83.312373	1675614620.911965	0.000000
131.000000	11.791411	14.413089	40.050358	20.868151	80.095259	13.113341	140.943371	22.803688	168.936773	35.819597	489.508176	32.020079	304.339834	-110.274081	255.330506	-20.412750	0.905874	0.893506	0.892948	0.863023	0.856083	0.982029	1.002705	543.796791	233440.607051	36.609880	1098.590946	966.741381	91.510910	1675614620.915965	0.000000
132.000000	10.000000	21.467313	25.794993	49.430576	37.275676	82.758768	31.300455	119.455654	44.341333	176.864154	59.567747	192.945299	68.992146	251.597114	41.128461	387.601713	0.947004	0.972200	0.875207	0.995156	0.969345	0.800178	1.065244	524.554899	243815.460438	36.597974	959.799526	912.075323	96.759954	1675614620.919967	0.000000
133.000000	8.282886	28.547366	7.729022	72.309651	-0.724142	126.844316	-8.831810	214.897749	3.918575	182.834507	-136.950871	274.682767	-118.326546	206.403048	59.535180	181.524285	0.997467	0.911387	0.887075	0.803394	0.888100	0.942247	1.099894	543.299490	239607.829895	36.594612	969.910273	1075.065954	92.549849	1675614620.923970	0.000000
134.000000	6.310493	35.646524	-2.789583	95.390212	-28.832635	167.297135	-13.968618	189.223198	37.562168	120.098714	126.703415	20.997762	500.108748	-113.895466	418.643669	-291.553260	0.853768	0.804917	0.890959	0.868661	0.892073	0.884761	0.908807	541.022728	241420.353918	36.591002	1088.100169	922.505205	86.110365	1675614620.927965	0.000000
135.000000	4.762451	41.629164	-8.309108	103.282022	-0.054876	105.444903	55.499186	50.239096	344.191966	-76.038335	309.776627	-34.745917	307.377956	126.419024	128.552202	533.818410	0.937078	0.907984	0.936158	0.982099	0.825826	0.993912	1.095858	499.841829	277827.251891	36.607087	1005.971248	934.186678	88.832806	1675614620.931966	0.000000
136.000000	3.140721	42.660894	-18.111726	94.585366	23.618844	50.626663	139.479756	-38.404940	430.271219	30.480858	140.593448	141.525931	-23.767384	585.631389	-33.824287	647.351977	0.856548	0.921957	0.892187	0.950306	0.819355	0.990873	1.002131	466.697000	233999.212812	36.603027	1065.791565	1081.901633	92.257588	1675614620.935966	0.000000
137.000000	1.492741	49.688254	-6.437965	69.643653	66.393522	8.936969	189.101686	16.958623	125.081627	167.205865	40.999880	219.085062	-47.501841	248.112687	368.956636	-189.959223	0.936007	0.992738	0.802593	0.857534	0.829885	0.975470	1.074435	527.035360	236276.719602	36.598326	1052.866591	1018.189756	95.362828	1675614620.939966	0.000000
138.000000	0.084377	48.290988	-0.233764	38.502066	89.530303	-11.551444	143.941594	87.550069	-22.602504	269.524384	35.157037	90.936273	255.841023	13.311642	281.711170	180.048875	0.868950	0.888731	0.930529	0.895944	0.955661	0.979476	0.970269	539.095611	234219.678884	36.601681	1073.493918	962.646111	87.954717	1675614620.943966	0.000000
139.000000	-0.360766	49.269108	12.384145	10.711551	114.070481	15.327769	107.982320	164.003348	24.090548	119.901467	215.142492	-130.166868	177.254321	189.871103	-114.948844	251.998887	0.826168	0.904309	0.912176	0.946114	0.885003	0.881209	0.958389	543.012751	244766.528979	36.591454	910.965053	966.533267	82.723844	1675614620.947968	0.000000
140.000000	-2.173494	42.604203	28.926447	-0.346339	124.913267	59.892873	-54.772404	192.932953	92.090915	31.462952	178.321836	243.364981	-119.459171	345.274191	156.343041	65.466752	0.863017	0.950361	0.899070	0.911623	0.890127	0.960942	1.003577	513.514211	266564.364888	36.598612	1076.436472	936.380309	80.145629	1675614620.951967	0.000000
141.000000	-3.299911	42.734349	43.403261	-11.451253	80.059855	134.762140	-43.279604	82.958926	218.066397	47.024416	44.747290	611.406561	48.955346	-91.169729	454.706189	158.890236	0.874261	0.937620	0.814649	0.969183	0.820442	0.963315	0.995954	496.983383	275568.786899	36.606457	1081.175939	914.649804	92.091183	1675614620.955957	0.000000
142.000000	-3.599841	35.196300	59.490852	-19.778434	36.843781	131.545724	36.905888	-34.208142	188.679923	143.420134	-75.328966	137.573896	363.401004	16.977040	-6.668230	323.709355	0.820912	0.887149	0.831337	0.943686	0.934666	0.812428	0.951473	475.488777	231281.542869	36.594317	1024.428335	912.476040	86.818586	1675614620.959959	0.000000
143.000000	-4.005861	28.509750	62.238012	11.295301	7.011694	144.580520	135.675771	-32.682321	55.777283	278.263959	109.433703	-37.859990	157.928694	331.549712	100.485705	104.922995	0.916976	0.825983	0.940957	0.877760	0.893885	0.992852	1.086388	465.378803	231121.223210	36.591179	910.731966	1009.415382	86.594976	1675614620.963976	0.000000
144.000000	-3.752191	22.058210	70.549115	33.287838	-13.679016	68.408897	135.552105	69.264211	-71.702638	134.138392	296.035534	83.784066	38.780955	205.410449	838.128538	86.832798	0.869375	0.974394	0.892099	0.971406	0.819768	0.844204	1.032613	504.101900	236577.143709	36.595720	991.912215	1086.255451	97.494921	1675614620.967978	0.000000
145.000000	-4.010470	15.460306	70.565369	66.239903	-19.837114	16.209447	156.296971	154.093051	26.331304	-63.464066	158.631265	237.738412	117.318465	-114.839901	257.517073	312.450381	0.971939	0.997508	0.836156	0.921837	0.973693	0.890751	0.931961	497.815992	241688.940112	36.604667	1004.938132	1033.170903	85.568665	1675614620.971972	0.000000
146.000000	-3.631999	8.343519	60.024518	92.901212	15.617734	-8.510768	66.746220	199.577039	139.065583	43.495367	-88.721678	201.038846	348.605048	160.664012	-183.165568	83.156869	0.998167	0.879621	0.848529	0.873002	0.983573	0.972851	0.979193	496.049906	267085.349394	36.593171	910.042240	1031.700077	90.048106	1675614620.975972	0.000000
147.000000	-3.726255	3.541601	51.238560	101.802167	66.438227	-32.218948	-34.092214	115.918530	246.463544	131.920055	-0.331670	10.483513	134.497499	219.466482	312.918000	126.199604	0.975262	0.869376	0.935390	0.934873	0.944495	0.993806	0.966306	531.959830	257507.195108	36.594204	1017.968278	903.689063	92.602595	1675614620.979985	0.000000
148.000000	-2.605565	-2.375101	37.000007	101.672860	92.862487	33.723701	-14.275290	18.270983	148.792686	174.708898	225.494994	76.954354	62.902647	43.197595	252.700578	258.400699	0.833836	0.930099	0.962306	0.821801	0.957769	0.957426	0.999525	463.246318	231789.819601	36.603680	952.905492	1019.671527	86.535657	1675614620.983976	0.000000
149.000000	-1.368675	-6.337325	21.883358	84.263324	119.163528	111.815236	30.443469	-49.316136	-26.007784	282.113210	286.630937	251.638886	142.157364	28.463475	82.117765	104.281874	0.829471	0.892479	0.970171	0.927734	0.873162	0.956477	1.003865	548.666974	248114.620358	36.591155	1027.500622	1056.847701	95.142772	1675614620.987969	0.000000
150.000000	-0.890169	-6.308512	2.470605	51.737304	124.878556	153.876155	98.592700	43.949598	-61.080018	-65.983861	84.583008	256.728180	281.645808	272.349823	174.421996	-104.191603	0.945946	0.966664	0.906327	0.804412	0.989803	0.970869	1.080899	549.857206	239010.445179	36.590483	926.168584	1094.403375	96.377358	1675614620.991974	0.000000
151.000000	0.268307	-5.744178	-7.333963	23.907627	82.682551	158.891653	145.793745	124.281349	82.607138	41.584188	-55.399588	-11.299970	165.219127	263.865217	352.705005	812.562908	0.893820	0.840988	0.893317	0.951958	0.957567	0.831377	1.003001	529.879341	277932.997349	36.595794	991.895661	982.604793	99.870811	1675614620.995976	0.000000
152.000000	1.973671	-8.147474	-16.661340	4.467800	36.130957	85.075686	164.196277	197.267381	200.499237	191.851051	100.100714	-4.660092	-156.319416	-47.761677	50.900490	138.968812	0.864288	0.807477	0.976842	0.884710	0.846281	0.829984	1.023866	461.774564	254706.164017	36.603179	1089.001556	926.442374	85.911170	1675614620.999976	0.000000
153.000000	3.287433	-1.012351	-16.527631	-15.992082	-2.395357	33.472815	79.184840	158.742432	213.218314	172.667104	476.520667	184.493471	397.074735	222.399829	44.453312	67.611024	0.839263	0.821798	0.883942	0.841678	0.922219	0.915262	0.938576	502.377556	246798.555644	36.607354	953.647226	1020.377551	97.475628	1675614621.003977	0.000000
154.000000	4.793504	3.115257	-11.371328	-23.120004	-5.100107	-12.389296	8.592586	64.057255	78.100655	115.187177	406.415667	199.905851	237.620739	573.427666	279.592506	450.412364	0.911869	0.933988	0.943235	0.944142	0.958119	0.935814	1.094184	507.788566	265236.508066	36.608263	967.205829	981.761538	80.358949	1675614621.007980	0.000000
155.000000	6.443070	7.952213	2.581102	4.299900	-23.359410	-40.288552	-24.854646	-113.926938	-80.157979	25.873322	8.075191	-15.893707	71.787986	109.997791	140.323879	187.141267	0.938485	0.805885	0.904685	0.950174	0.973299	0.802347	1.002151	477.317657	278154.301574	36.604885	910.468227	906.950219	95.490082	1675614621.011981	0.000000
156.000000	8.314577	14.711383	19.580841	22.673959	25.141220	11.611898	-0.457163	41.128694	22.127636	24.819119	34.728519	43.651421	24.296446	-38.458578	-100.089727	-149.142707	0.926069	0.907026	0.844704	0.913803	0.918024	0.917540	0.959342	506.350716	237010.717370	36.597145	1065.720171	1055.155973	82.081813	1675614621.015971	0.000000
157.000000	10.000000	21.433727	34.296075	47.224790	63.124140	76.006705	103.808260	127.204260	136.823354	130.920195	223.853779	247.476254	240.138964	243.269719	211.897806	286.305744	0.945939	0.918383	0.841642	0.844683	0.829994	0.820494	1.067912	521.715494	228899.722425	36.600596	959.426817	937.664904	80.592786	1675614621.019983	0.000000
158.000000	11.684843	29.063444	48.239449	71.725313	110.848761	143.447654	137.346498	160.713121	224.782246	223.064891	238.127881	258.838334	295.626546	232.293443	258.083197	236.421232	0.943494	0.898113	0.925094	0.840463	0.937830	0.931509	0.952751	524.869522	263676.585765	36.606855	977.011950	976.495433	90.534225	1675614621.023981	0.000000
159.000000	13.469669	33.761188	60.894308	101.107450	117.993693	157.254284	145.896350	159.087364	139.559514	132.063749	87.372480	75.013391	57.112831	-135.178227	9.246726	19.500624	0.863189	0.871299	0.938458	0.974407	0.976235	0.854409	1.044976	497.442387	244446.916927	36.599109	1043.453828	1065.648035	87.689225	1675614621.027982	0.000000
160.000000	15.060161	39.519012	66.977027	85.885946	101.282644	121.662220	93.504936	62.398479	2.004644	-0.831614	0.804846	-64.564998	79.463496	77.994414	363.200160	313.028759	0.969674	0.920229	0.864027	0.870086	0.999681	0.967071	0.996187	506.145256	243350.035841	36.596411	1049.105558	1041.452726	96.825333	1675614621.031982	0.000000
161.000000	16.744105	45.244103	74.079396	93.537172	79.492008	48.706690	-13.389314	-16.948827	-101.847614	-31.071533	68.880867	368.584223	270.272933	317.638430	575.256816	355.508995	0.984848	0.891222	0.930195	0.884876	0.999511	0.827997	0.937889	463.991301	239001.325631	36.603183	1079.534366	931.812610	90.695235	1675614621.035986	0.000000
162.000000	18.465913	47.533233	74.047231	64.670619	32.480053	8.859152	-5.805563	-5.600326	125.918808	160.951769	214.354570	195.473777	238.710856	138.491111	12.714570	-231.492014	0.981474	0.984359	0.851662	0.848535	0.877475	0.807143	1.072435	538.181547	252906.298655	36.606022	1080.050799	1018.005686	85.117700	1675614621.039987	0.000000
163.000000	19.468180	50.054173	56.616302	38.602516	-10.550886	-36.893484	26.375028	90.465693	435.783275	182.062647	205.355408	95.891862	23.273203	58.846993	112.511138	226.596438	0.832483	0.998010	0.885832	0.852533	0.933369	0.897682	1.034291	530.489834	258557.681599	36.602558	1094.782472	1053.869189	95.117264	1675614621.043985	0.000000
164.000000	21.089876	45.985127	49.118130	8.420576	-3.360589	-6.940164	90.502484	161.241671	228.132365	114.592845	20.625747	-29.256635	82.202000	208.438911	204.991260	727.050206	0.989637	0.833056	0.842414	0.898250	0.935320	0.954655	1.026047	512.258296	258607.105668	36.594956	1025.631907	985.899928	93.610723	1675614621.047956	0.000000
165.000000	21.787837	45.359208	31.090296	-13.695602	-24.033200	59.913343	143.182126	138.919329	86.089813	5.436188	-1.180433	128.478837	247.581348	239.545050	126.074963	50.469380	0.809411	0.852422	0.907126	0.870717	0.973716	0.901811	1.010923	458.663290	269377.623306	36.591585	1095.811223	997.224516	86.898768	1675614621.051986	0.000000
166.000000	22.429909	39.710666	13.457528	-19.514203	13.438079	101.973205	179.840498	82.324096	-73.546705	26.981270	189.006261	207.719961	174.312699	-5.957629	55.177233	309.773038	0.848117	0.905648	0.875517	0.924140	0.890433	0.867082	1.085776	502.620969	241570.115544	36.593461	941.133364	1026.234091	81.840041	1675614621.055974	0.000000
167.000000	23.761793	35.986741	1.173807	-11.931764	62.138535	154.250658	91.578023	0.060612	11.526864	146.872595	180.590594	134.943468	40.330752	35.364177	225.407105	201.333278	0.855261	0.939340	0.926687	0.898560	0.897076	0.935507	0.944201	450.897540	258429.445293	36.594565	939.706152	1050.974933	92.914199	1675614621.059982	0.000000
168.000000	24.193026	28.293673	-13.235504	13.951865	95.526973	135.903125	11.806458	-7.979759	123.525750	208.548392	110.489717	0.698884	84.976654	377.573969	257.217772	-52.281489	0.886286	0.935244	0.821579	0.932022	0.907118	0.933944	1.091361	481.706508	231744.884184	36.604460	960.820043	912.464550	93.009614	1675614621.063977	0.000000
169.000000	24.142886	22.161063	-10.835578	35.401751	126.662745	71.221947	-2.801636	60.745607	271.848227	124.895861	-74.296485	67.896461	325.818599	403.850912	-94.492859	124.989107	0.827242	0.818845	0.953212	0.889155	0.931881	0.863790	0.981733	487.804726	256943.853492	36.599701	911.607606	937.250297	86.280103	1675614621.068008	0.000000
170.000000	23.606474	15.023496	-16.138580	60.188555	107.213184	12.617810	-8.677223	148.458850	130.561195	-3.871547	54.590291	232.605323	302.059592	-77.953194	171.883653	469.461925	0.855080	0.814765	0.841437	0.955932	0.996355	0.838551	0.981292	464.505158	268911.181115	36.590608	959.899028	1002.618378	95.219511	1675614621.072000	0.000000
171.000000	23.773208	9.056336	0.535576	78.905830	85.556622	-26.123782	73.532143	209.707877	32.326995	19.054977	203.818744	206.967125	-46.869611	386.653289	254.830194	15.004996	0.856016	0.868692	0.838785	0.834728	0.996118	0.987003	1.091258	506.725288	248212.315171	36.600198	1016.219282	977.195756	87.655323	1675614621.075991	0.000000
172.000000	23.042269	1.505353	7.964780	100.012060	37.192111	1.559862	130.292334	113.391279	-12.937049	163.332860	190.670000	-45.923879	270.971392	321.442513	31.785315	-27.797938	0.934694	0.971724	0.942066	0.982813	0.952332	0.884786	0.995046	462.438568	278233.000971	36.604429	1082.120229	1076.662664	96.978809	1675614621.079992	0.000000
173.000000	22.831088	-0.525343	23.285744	101.380973	-2.495180	39.733300	167.681356	21.603100	65.089236	188.685980	19.890029	35.827265	224.371500	102.114793	62.565953	503.582812	0.999518	0.968689	0.905613	0.845723	0.970660	0.930736	1.064579	497.756924	266814.787149	36.592676	1086.749177	986.819181	85.276234	1675614621.083992	0.000000
174.000000	22.264242	-6.257362	39.151528	78.753929	-7.724340	92.314818	233.599658	-22.578986	184.149070	246.944535	-58.722796	224.631823	102.924104	-104.117250	289.820554	124.130764	0.998105	0.982355	0.803758	0.858071	0.834593	0.800589	0.999490	517.406438	258792.639184	36.601647	962.043195	965.392528	81.294669	1675614621.087988	0.000000
175.000000	20.554703	-6.903894	56.276268	51.722875	-5.894587	137.664399	67.490977	20.910224	176.324730	1.371410	295.423196	225.818364	-32.412926	342.657204	243.390918	68.945318	0.895265	0.860331	0.822570	0.817044	0.825588	0.935306	1.066254	509.682011	232463.325315	36.597647	946.541522	1012.699577	94.646972	1675614621.091994	0.000000
176.000000	20.084731	-10.775837	68.669086	26.113094	26.104529	142.034283	-36.399349	151.528935	98.843368	-9.682689	461.629938	-21.009762	167.043597	240.250639	-161.913962	235.935989	0.990283	0.843988	0.872093	0.878306	0.877966	0.911225	1.015673	516.648382	245961.497261	36.594587	975.440707	1003.710255	86.398333	1675614621.095998	0.000000
177.000000	18.333167	-5.654164	71.938747	7.067912	67.140452	92.607009	-5.293714	206.886594	6.129820	185.294421	241.959971	37.767520	408.904983	16.664991	477.546919	125.178212	0.905772	0.963668	0.883197	0.809068	0.849159	0.963875	1.042081	499.919502	230948.587957	36.595767	941.849657	1034.311435	92.264673	1675614621.099995	0.000000
178.000000	16.873026	-2.263374	77.179396	-15.865514	113.146689	21.004578	60.076962	152.276644	-23.417391	279.087231	-24.323767	186.356259	28.555785	120.012582	203.754582	112.286260	0.962505	0.977417	0.871510	0.902281	0.932531	0.977988	0.988440	477.689700	272858.028746	36.591550	989.672471	954.778753	81.550240	1675614621.103971	0.000000
179.000000	15.011682	1.726572	61.148315	-22.916751	131.416975	-33.321540	125.119352	12.234081	109.521549	134.934793	58.591595	545.513579	6.909047	343.468037	-153.962765	561.602834	0.822276	0.944800	0.833547	0.997556	0.989834	0.906703	1.043025	485.925401	266452.032646	36.605615	1080.827182	1074.826638	83.068943	1675614621.107970	0.000000
180.000000	13.661325	7.414895	53.537506	0.380842	110.966753	2.525711	162.925814	-9.606133	185.632942	3.356445	225.893757	-31.005819	228.424720	51.697613	166.004196	335.585163	0.847407	0.970512	0.850064	0.986618	0.934906	0.957445	1.019554	482.373934	231582.363457	36.608245	1086.113158	1057.124229	81.991253	1675614621.111994	0.000000
181.000000	11.693368	14.233296	40.002937	23.538610	78.070994	20.147905	131.661827	21.459641	190.296630	-28.448282	204.909938	-39.712622	252.303141	86.808818	205.459767	-29.139914	0.960222	0.974241	0.977672	0.892667	0.962801	0.856523	1.070081	492.058866	249925.636595	36.607650	1040.031542	1063.463874	84.432948	1675614621.115990	0.000000
182.000000	10.000000	21.493552	25.726677	48.925671	39.054767	84.188733	31.212276	120.730198	45.697992	173.806829	13.130496	208.924632	82.050416	270.558002	-86.100522	419.715087	0.883243	0.995466	0.825468	0.978829	0.994350	0.919423	1.062756	478.251188	271465.739892	36.598326	962.691745	1085.165751	83.424931	1675614621.120001	0.000000
183.000000	8.192134	28.620413	8.657768	73.174914	-10.313374	138.275926	-52.390699	197.674467	-39.271154	223.462372	41.247209	229.048135	-93.500799	355.951568	61.502001	214.410327	0.996583	0.989111	0.812408	0.968624	0.934237	0.986448	1.004006	539.602383	260831.979899	36.599469	946.823523	997.161912	88.231552	1675614621.124003	0.000000
184.000000	6.629458	36.116017	-0.917530	92.652804	-6.038146	123.037132	-29.534973	165.812815	39.543766	113.060664	120.327477	10.721933	235.232491	-132.456423	201.786874	-2.924834	0.979971	0.915763	0.908277	0.948817	0.834443	0.923003	0.913444	451.784233	232173.568714	36.605589	1019.447926	1015.942700	96.727301	1675614621.128000	0.000000
185.000000	4.960268	40.425116	-7.484429	94.254241	-10.416787	113.073709	43.681943	113.312046	146.278533	-75.754016	341.262461	-64.630825	296.084460	38.195144	134.945898	341.286578	0.956869	0.883452	0.931306	0.956899	0.911528	0.878201	1.067563	507.172866	232325.468550	36.604264	912.623999	931.677893	99.497496	1675614621.132001	0.000000
186.000000	3.317563	45.625742	-11.156150	84.630481	24.776186	49.436767	117.069987	-12.782581	169.095388	-8.869856	132.888352	155.730865	38.278250	571.666038	45.554386	236.151919	0.942161	0.847220	0.842831	0.831467	0.893287	0.819985	1.090285	525.751368	266453.463725	36.595836	951.674827	1048.912836	99.512220	1675614621.136002	0.000000
187.000000	1.414524	47.106835	-13.721029	63.442444	66.609756	-8.883029	179.662142	-7.487765	121.051703	162.848202	-2.078129	221.297344	-26.187622	284.926460	379.965772	46.089451	0.970443	0.977582	0.852356	0.973482	0.984853	0.987223	1.022204	469.977668	243211.958124	36.609715	943.795637	935.560747	99.017109	1675614621.140002	0.000000
188.000000	0.357475	48.481904	-0.704940	38.392681	104.785879	-47.720306	148.116124	90.109216	-62.422860	197.148781	-28.163453	91.103550	285.718018	-50.819344	235.022693	189.505739	0.897539	0.871390	0.933903	0.963473	0.800804	0.913580	0.945591	487.274027	260793.512918	36.608287	1055.931566	972.591359	91.160907	1675614621.144004	0.000000
189.000000	-0.648416	46.902057	15.642140	9.453719	128.846626	14.860108	48.114267	192.427005	-15.902971	136.949986	163.059499	31.556172	472.475616	196.328958	6.611130	220.552913	0.906841	0.879595	0.946460	0.971421	0.921333	0.809259	1.023333	517.550323	235796.425454	36.597879	993.651159	934.649273	82.454601	1675614621.148004	0.000000
190.000000	-1.406334	45.420082	28.949023	-17.815324	108.057592	59.858645	8.443329	176.230565	177.058186	7.310201	226.786732	124.776048	-103.556676	290.841759	160.203363	93.195708	0.826093	0.901357	0.836377	0.969245	0.884573	0.950876	1.065650	483.338267	255123.332049	36.607553	1061.804478	957.907609	84.786661	1675614621.152006	0.000000
191.000000	-2.754068	39.680098	46.107000	-26.977728	84.355645	125.071414	-13.857060	84.158620	241.365356	4.117096	31.839657	217.046808	96.475890	61.839245	831.105399	158.577130	0.809980	0.889911	0.897860	0.846909	0.932547	0.891660	1.085071	530.948701	241162.356077	36.596628	1098.093897	953.987910	86.535829	1675614621.155980	0.000000
192.000000	-3.533089	35.919676	55.313698	-16.905900	34.390851	149.992929	27.458204	-44.270419	156.460254	147.178349	-18.437612	135.142463	376.544031	70.780280	-54.861301	353.430446	0.880572	0.989082	0.986766	0.901389	0.931877	0.912563	1.001782	501.566252	242743.056348	36.605939	1020.093229	1073.883469	86.224075	1675614621.159992	0.000000
193.000000	-3.623792	29.883096	73.164530	3.927852	1.804641	134.347829	113.329034	-3.263333	57.751537	239.753939	109.693390	28.353252	172.806908	198.122238	4.939028	-84.136104	0.867520	0.860161	0.943999	0.887665	0.900882	0.910511	1.051838	465.213884	265024.953080	36.602502	1007.453626	928.273535	91.764893	1675614621.163997	0.000000
194.000000	-4.422170	22.005797	69.972118	33.577251	-10.671432	73.550405	151.842709	59.935341	-10.538203	135.822882	319.258248	68.529253	-6.512374	171.137052	335.510540	238.871216	0.861288	0.861339	0.948989	0.926660	0.804547	0.880431	0.959437	493.174895	256839.186709	36.605593	958.101058	1050.768648	89.282412	1675614621.168021	0.000000
195.000000	-3.939380	14.856825	70.476052	60.976756	-15.517267	6.357313	157.970813	153.756897	32.009055	18.275055	188.817740	237.843840	101.139651	-170.585272	140.189655	807.940523	0.834489	0.876033	0.906717	0.837685	0.828918	0.971763	0.957350	459.565524	273412.673561	36.595622	945.267996	996.306215	91.301276	1675614621.172017	0.000000
196.000000	-3.697332	7.875670	66.763092	91.646490	18.528560	-15.206162	65.199161	200.433970	165.034446	11.899617	-38.676466	160.418957	377.035899	162.350026	-46.975432	-8.435057	0.955294	0.821229	0.860156	0.884931	0.905339	0.904222	0.980983	500.883860	230779.538019	36.590348	968.232520	1067.734763	86.946724	1675614621.176007	0.000000
197.000000	-3.854484	1.192882	49.451923	93.626207	66.229295	7.065075	-13.075869	106.348232	189.259532	169.831137	-27.542594	-61.530935	133.594609	392.592748	245.957900	-1.886955	0.910615	0.945655	0.824127	0.945526	0.942768	0.837505	1.032352	513.577719	239671.838583	36.606573	935.535869	1046.673023	91.007198	1675614621.180020	0.000000
198.000000	-2.200062	-4.008830	36.835389	93.812169	113.549662	42.217326	-53.962071	-17.133275	146.989794	309.237417	473.425208	8.995002	-123.259665	61.901718	204.578479	330.917641	0.989236	0.828170	0.909100	0.898613	0.824860	0.953119	0.983923	541.613981	234079.360150	36.596506	1039.716186	1051.951311	96.500222	1675614621.183989	0.000000
199.000000	-1.765700	-6.522719	20.374106	78.036020	104.496088	92.111534	35.260518	-62.843515	21.489020	266.768978	495.027682	505.983443	155.178636	-51.748080	46.789419	43.891813	0.855276	0.861918	0.858110	0.971521	0.898555	0.927200	1.054602	547.805614	273020.134492	36.602143	970.782487	1083.000643	95.629566	1675614621.188001	0.000000
200.000000	-0.774106	-6.798810	3.155151	51.615293	119.893607	132.638558	104.925708	28.058236	-6.796987	-99.288736	88.598981	450.091912	279.916400	235.475951	164.581560	37.579681	0.850152	0.972569	0.818642	0.932173	0.965928	0.897351	0.984645	475.157248	255671.328600	36.598318	1042.059731	1024.849269	83.641882	1675614621.192002	0.000000
201.000000	-0.035713	-10.406512	-0.036831	26.255614	81.330549	135.355336	183.152732	133.871195	82.654736	-43.328350	20.691407	-49.692264	63.982345	176.120203	410.634414	219.650103	0.883931	0.969497	0.968833	0.844005	0.996985	0.917723	0.993174	492.122197	254921.382727	36.600092	1052.063347	911.667139	84.163018	1675614621.196011	0.000000
202.000000	2.084454	-8.299280	-16.035385	-2.630517	32.935608	86.707806	156.468566	156.911564	160.791486	150.891627	82.065445	65.841738	-3.224521	60.950400	71.506417	120.224176	0.869888	0.911762	0.914776	0.802837	0.917930	0.890995	0.947633	538.627482	242070.244479	36.594643	1073.517642	1099.527442	97.396130	1675614621.200024	0.000000
203.000000	2.882444	-2.038924	-16.745447	-5.431239	5.813401	31.459327	78.382076	122.798735	192.216013	252.673294	273.741605	183.912985	232.832620	250.300049	18.429217	-125.274001	0.939618	0.985706	0.968626	0.873103	0.826090	0.856519	1.009726	470.879779	244325.061290	36.596049	1008.285369	939.289165	95.508530	1675614621.204030	0.000000
204.000000	4.928126	1.551253	-2.653631	-8.395858	-15.439271	-27.912110	-4.160693	35.598640	78.719172	128.635148	198.174004	226.305884	317.638228	797.716905	359.973439	482.570027	0.825050	0.992804	0.934765	0.887500	0.894076	0.970162	0.902878	529.544002	268390.963787	36.608874	937.231333	1006.392229	84.253895	1675614621.208019	0.000000
205.000000	6.620196	8.722115	0.712754	0.847048	-17.457857	-35.457378	-41.233221	-27.014982	18.701925	17.085077	-1.955119	-30.797549	24.812434	167.279540	132.803426	176.790819	0.853224	0.986715	0.925764	0.866491	0.890061	0.858346	1.028365	454.272679	261250.707357	36.602250	1014.710492	924.294910	95.660085	1675614621.212013	0.000000
206.000000	8.192666	14.845221	17.704434	17.784322	24.327192	27.647188	32.672746	13.492386	1.059523	24.337728	-69.774595	-96.636020	40.470905	32.127846	93.628606	-41.899251	0.873736	0.883304	0.858799	0.966751	0.904894	0.866962	0.976940	515.700023	230159.866173	36.607016	1060.623174	1080.526124	92.921676	1675614621.216034	0.000000
207.000000	10.000000	21.433688	34.840687	48.196966	62.618953	80.664593	90.688210	122.769873	157.810961	141.545743	221.583870	164.316711	203.267918	248.557878	557.701000	272.754977	0.864469	0.812256	0.912529	0.810058	0.861281	0.803883	1.056176	524.860469	266278.180067	36.593694	1082.162503	999.886115	96.539588	1675614621.220040	0.000000
208.000000	11.749282	27.626816	46.900299	69.157779	90.553072	112.907180	151.769350	228.143624	164.468463	172.674088	186.914325	333.165110	532.243132	217.504220	579.041886	263.122171	0.808149	0.867752	0.891792	0.889138	0.838666	0.895943	0.952366	473.233402	261839.091485	36.593499	1033.549690	974.753815	95.828765	1675614621.224022	0.000000
209.000000	13.564885	34.578439	62.238197	91.728262	125.884570	149.275501	318.255620	127.920334	170.597653	130.425523	84.484119	58.752187	91.369202	58.062358	-73.981116	17.418876	0.860804	0.939442	0.905149	0.805861	0.974730	0.926644	1.061963	478.746409	253395.618307	36.602594	999.859438	1064.925553	94.413282	1675614621.228017	0.000000
210.000000	15.229680	39.766474	72.233222	88.815194	101.807593	103.117421	175.601088	62.193128	11.213007	10.676618	-15.957193	22.968085	-41.133144	60.755730	176.105166	547.246619	0.995568	0.804483	0.851073	0.825241	0.839056	0.882019	1.053236	543.643319	231672.398765	36.598324	1018.036870	1022.881951	89.371367	1675614621.232040	0.000000
211.000000	16.717442	44.385061	77.422309	81.957291	77.394636	51.335270	3.614500	-43.893761	-6.270036	45.008801	49.834922	181.630031	194.894491	467.078786	273.001692	672.108743	0.918634	0.804207	0.894964	0.968392	0.958322	0.825014	1.066951	548.624345	238344.393711	36.605275	999.556066	1014.828464	93.957029	1675614621.236024	0.000000
212.000000	17.986074	47.771782	64.182843	64.849637	35.767851	3.359344	-28.676360	-31.172301	60.239617	146.735343	192.552106	326.754138	294.505975	136.896566	0.327628	109.356365	0.943935	0.875526	0.833652	0.921844	0.821821	0.979018	1.086859	476.641044	269756.232738	36.604558	931.495025	1072.433031	92.717246	1675614621.240025	0.000000
213.000000	19.824162	48.645119	63.431289	38.406888	-1.739703	-10.972177	7.399490	94.644338	171.772223	180.270752	223.893351	81.988508	-95.088758	-75.737874	117.532359	186.645155	0.880708	0.956152	0.825086	0.878834	0.857532	0.950323	0.929389	540.954470	228889.504808	36.605061	1053.669743	912.740854	80.361310	1675614621.244013	0.000000
214.000000	20.507353	49.543685	45.325992	16.906056	-29.172735	-11.826003	84.107728	184.397461	230.782716	115.798624	-11.896175	45.701383	89.820111	227.808437	404.040685	448.801118	0.905337	0.874432	0.974442	0.826259	0.944221	0.916893	0.937088	488.428288	275377.668168	36.594136	965.723755	959.851236	84.941884	1675614621.248002	0.000000
215.000000	22.511906	46.981696	31.247898	-4.316152	-12.683653	59.867888	180.546783	202.831231	172.427340	-30.992651	0.801960	132.839637	352.083957	264.196508	140.612611	25.542886	0.846948	0.862173	0.912759	0.861998	0.901600	0.954999	0.993585	526.237006	276412.596935	36.598382	969.626812	1072.397493	91.385967	1675614621.252188	0.000000
216.000000	22.335736	40.900568	17.015192	-17.903865	16.805805	103.873755	188.970047	180.438455	-82.216396	-12.385306	162.286938	271.689546	199.242244	32.802560	8.990533	158.645215	0.860511	0.865368	0.846673	0.874314	0.873880	0.993233	1.048162	471.131312	235841.983723	36.595756	996.045212	920.888216	81.035856	1675614621.256027	0.000000
217.000000	24.014389	36.970083	4.207197	-17.201824	62.433446	144.295129	94.029356	5.463175	1.045365	141.153382	332.124413	130.596124	-52.959721	36.872318	242.932540	304.328521	0.929765	0.940258	0.999492	0.985561	0.904861	0.954130	0.919422	468.996571	260419.245606	36.597371	994.611281	995.761277	82.273342	1675614621.260022	0.000000
218.000000	23.239759	28.292571	-12.195887	10.233289	101.131087	126.272919	29.393479	-81.813957	132.411272	210.485877	110.311240	-129.025741	79.878648	341.026961	261.020540	50.337423	0.839132	0.933630	0.924203	0.947450	0.922667	0.874308	1.016568	468.157363	248507.512426	36.593064	1046.834100	1047.342879	98.062427	1675614621.264022	0.000000
219.000000	23.772238	22.225398	-16.709443	35.126454	128.774553	70.199426	-35.781902	68.207370	267.594681	126.891114	-55.491320	206.068184	269.034831	212.000316	4.449647	125.402693	0.970681	0.819323	0.966415	0.954407	0.898131	0.942990	0.944269	517.833383	266925.151503	36.596473	929.629118	1019.383780	89.109744	1675614621.268039	0.000000
220.000000	23.960514	14.834604	-5.552559	60.385360	122.347400	9.967839	13.731100	192.787957	141.978476	-30.493699	86.329581	539.601146	159.629522	-32.597928	168.097092	227.954588	0.970155	0.997031	0.961980	0.997802	0.979805	0.845465	0.977653	495.307510	273700.595186	36.608521	947.825185	1047.660043	89.096115	1675614621.272043	0.000000
221.000000	23.870193	8.306686	-8.240108	84.987029	86.600090	-25.906820	75.250566	230.318987	41.814945	-25.465833	499.043473	391.065614	-77.012194	338.621861	340.384267	25.663101	0.925478	0.854891	0.853099	0.842842	0.950668	0.929584	1.053417	453.878192	246861.557514	36.591847	1082.516254	1058.995390	98.836643	1675614621.276074	0.000000
222.000000	22.954269	0.603546	9.908872	91.041100	34.588805	-21.523435	159.140223	111.513755	18.815358	154.074702	245.527716	32.818014	124.092612	652.670136	-79.501687	-19.501365	0.898136	0.816167	0.992223	0.886656	0.912782	0.819912	0.972991	491.633043	231532.321814	36.601374	1031.631049	930.550168	95.088340	1675614621.280052	0.000000
223.000000	23.184042	-2.121324	23.045357	92.200490	-5.475670	39.895017	194.265953	-9.630213	38.037597	287.197548	30.172066	31.296790	354.514143	85.346295	106.863167	320.697423	0.905233	0.954199	0.993521	0.990515	0.820148	0.875539	0.991258	460.937389	263242.616114	36.590734	960.492742	936.975798	84.338319	1675614621.284042	0.000000
224.000000	21.948039	-4.941536	38.793934	72.720141	-16.251974	96.840986	112.830686	-0.226099	145.782621	241.684088	46.495540	196.683490	106.855138	55.732250	704.651303	95.864114	0.844441	0.989160	0.886556	0.825434	0.955200	0.873719	0.955605	541.714691	233541.760831	36.590162	964.859862	938.749759	82.772150	1675614621.288049	0.000000
225.000000	20.394025	-9.330944	52.818988	53.158717	-9.475686	154.457281	24.257259	36.789825	173.311916	-93.269151	128.322697	243.831948	-65.183046	353.860950	286.575865	62.593739	0.991103	0.824861	0.851007	0.990441	0.926605	0.871070	1.066334	460.257668	268048.348134	36.594044	909.945940	1074.632988	90.230766	1675614621.292015	0.000000
226.000000	20.007227	-8.268811	65.752293	25.209396	21.794429	131.999097	-20.408075	167.801098	101.960545	-44.251228	320.769820	54.092666	185.935480	288.693256	62.406058	550.870510	0.859888	0.878244	0.880567	0.838528	0.880770	0.930041	1.059144	503.778714	257889.342556	36.598765	939.050359	1033.957071	90.443681	1675614621.296046	0.000000
227.000000	18.266308	-8.487035	75.141804	3.888902	64.962729	93.413172	-1.564539	148.434697	27.164954	186.937025	139.645785	49.542728	567.980962	25.482164	361.823286	139.491208	0.929261	0.848183	0.994450	0.945312	0.876998	0.805748	0.948457	523.916050	268011.953883	36.609457	1066.908424	957.544181	82.384713	1675614621.300038	0.000000
228.000000	16.647018	-3.308630	67.320106	-24.398503	114.012226	22.169773	61.146957	151.387463	-33.096203	278.722839	-94.406016	261.694444	148.844175	130.963448	231.707897	-12.638772	0.982919	0.920680	0.962853	0.856763	0.973593	0.911880	0.992120	487.942092	241395.128853	36.596777	981.674004	933.119383	83.847776	1675614621.304044	0.000000
229.000000	15.228355	1.710928	69.573335	-10.082887	105.178542	-7.251666	154.440991	13.255703	114.487232	130.596621	40.750722	306.305883	-61.915789	226.827973	-162.193299	412.933915	0.846718	0.937989	0.994473	0.978966	0.916384	0.845628	1.032346	454.776839	237619.602902	36.606850	1076.190596	992.929312	89.824181	1675614621.308046	0.000000
230.000000	13.469609	8.188078	55.812882	1.188449	98.314189	-26.002340	188.847067	-11.914727	241.582758	-22.701314	274.759727	-19.996916	201.838219	116.839643	159.544636	196.608002	0.976660	0.912387	0.823707	0.805165	0.914849	0.912015	0.975465	456.623815	250501.663955	36.595920	968.421819	1025.169136	87.296382	1675614621.312046	0.000000
231.000000	11.725646	14.607444	39.975531	20.371655	78.831440	28.649777	117.829200	-11.322534	192.080422	-8.970665	239.717954	58.563818	269.149920	82.547209	391.895901	66.671553	0.957343	0.969040	0.926495	0.838142	0.819072	0.818980	0.940373	451.700386	239261.922669	36.601477	1044.214210	907.489570	97.028928	1675614621.316065	0.000000
232.000000	10.000000	21.417109	25.578609	48.634363	38.717607	84.857440	33.281779	132.098527	43.507450	161.274765	45.727915	230.264223	76.495967	268.446706	53.703022	384.039877	0.890061	0.972493	0.997974	0.868867	0.936781	0.934803	0.988601	545.884595	233006.233734	36.605479	965.649020	901.036686	94.763398	1675614621.320031	0.000000
233.000000	8.276518	28.945466	13.226104	72.541283	-3.108698	148.603163	-26.577389	194.664207	-5.672049	261.208621	-87.338671	329.894739	-94.215185	247.425062	5.226056	218.023808	0.992447	0.877774	0.857995	0.950819	0.823371	0.912328	0.942296	481.873542	248377.101957	36.594014	1000.066197	912.411220	88.049556	1675614621.324035	0.000000
234.000000	6.637774	34.645334	-1.595480	85.703767	-16.058416	158.223439	-29.902427	180.007251	42.606718	137.465956	118.660867	39.542924	187.086100	21.346000	381.366484	113.771975	0.970827	0.911860	0.973215	0.871111	0.853948	0.832733	0.946805	521.783696	232256.980485	36.604690	993.529833	940.174323	99.390646	1675614621.328062	0.000000
235.000000	5.053241	41.954538	-15.196205	100.198013	-2.021318	99.199700	43.385659	54.912873	150.458034	-42.935592	212.857746	-70.770519	295.332626	33.734222	140.187298	207.653982	0.982641	0.859542	0.980079	0.826956	0.918850	0.995721	0.954027	543.218190	257769.907565	36.591752	968.642601	914.343188	84.630225	1675614621.332052	0.000000
236.000000	3.302449	44.722762	-9.149861	84.959246	16.067514	48.038093	130.417554	-49.055883	175.571816	25.072358	159.241027	171.595679	23.437188	300.646430	-174.766332	192.761251	0.956257	0.836749	0.809982	0.983762	0.941739	0.843304	0.944303	522.366757	251061.769602	36.609895	1098.791361	1007.676420	84.096924	1675614621.336052	0.000000
237.000000	1.974438	44.744972	-9.044635	70.671515	60.799312	9.663403	166.133449	-26.404838	129.818598	173.079047	14.965696	370.480392	-19.845500	284.649115	213.102930	-128.020896	0.863058	0.982211	0.987074	0.837523	0.925719	0.865112	1.096105	509.688434	230398.903406	36.593018	1075.058373	939.784570	87.979458	1675614621.340047	0.000000
238.000000	0.520356	47.515336	0.835856	38.370581	104.453081	-49.231673	152.606086	87.530640	-45.336917	260.232043	-5.792078	80.797009	261.452064	-36.572277	337.858060	200.927303	0.943497	0.893348	0.800106	0.947565	0.807550	0.984601	1.077099	508.134495	277197.540100	36.593202	1075.461167	982.432590	94.321003	1675614621.344043	0.000000
239.000000	-0.366834	45.055103	13.802310	11.023152	109.093549	-12.455618	54.267660	191.752897	-52.356138	123.561134	218.830798	-82.956532	188.219555	474.018110	-144.500317	771.988144	0.916413	0.963816	0.881959	0.958729	0.960543	0.872899	0.912820	518.935931	266482.797422	36.603130	1027.145860	1033.260408	94.823526	1675614621.348064	0.000000
240.000000	-1.438456	45.971751	28.936134	-6.517761	103.362683	59.858666	-44.268993	138.599555	93.294011	-69.307263	281.825616	267.304840	-138.838011	308.712282	298.271873	-218.793539	0.853905	0.952063	0.981892	0.815354	0.871330	0.952947	0.930380	510.024347	268986.936210	36.592724	1005.757350	917.729107	97.942826	1675614621.352058	0.000000
241.000000	-3.185167	42.396408	45.865259	-12.357006	84.388986	119.537848	-22.136645	81.857696	165.300837	-36.070873	117.262211	568.095318	93.345117	9.234142	730.252084	293.532435	0.883750	0.974035	0.924667	0.805391	0.939791	0.826514	1.039222	529.790456	229021.741329	36.609695	1014.272186	1041.685839	84.763268	1675614621.356058	0.000000
242.000000	-3.633780	36.428800	61.552388	-7.805539	37.176377	155.594734	39.989076	-3.133234	311.209899	150.642444	-104.568369	137.078165	244.577144	-26.533972	-59.527049	344.343270	0.941095	0.998915	0.888386	0.848168	0.925270	0.849244	0.993418	514.258001	231268.196094	36.592984	1087.989301	1066.648702	86.583490	1675614621.360023	0.000000
243.000000	-4.379014	28.905488	72.661138	6.818095	-10.600913	142.948605	119.437317	-9.001447	114.336182	302.347681	237.517354	-27.555798	188.825723	331.810069	3.872787	-32.655443	0.982141	0.815820	0.982535	0.806740	0.841439	0.871334	0.916585	466.455080	269823.337468	36.603372	934.810483	938.441224	89.626836	1675614621.364057	0.000000
244.000000	-4.107287	22.307023	68.525664	34.477056	-28.017767	72.054519	362.671824	59.294624	-34.356282	132.572748	209.635693	86.144146	54.411358	185.965359	436.555108	134.753380	0.825996	0.824522	0.944298	0.832691	0.961187	0.910813	1.018633	524.718149	261461.368110	36.609853	1072.050662	1003.666044	88.953168	1675614621.368066	0.000000
245.000000	-4.763680	14.778762	65.578383	65.123681	-13.752635	19.396805	275.211076	134.791354	27.366006	-31.378753	167.210133	352.479780	99.157998	-46.378769	131.526361	492.390101	0.903766	0.975135	0.917731	0.889171	0.838813	0.933962	0.925597	477.568790	254913.809295	36.604015	1093.333698	967.357190	87.923529	1675614621.372048	0.000000
246.000000	-4.360375	8.788975	62.992380	82.015189	23.981641	-3.935859	139.654659	158.392994	149.513314	-41.328526	8.366841	157.883101	684.872907	169.760719	-6.433518	83.263235	0.985873	0.913103	0.894263	0.979239	0.867786	0.950184	0.985162	464.929649	248200.501396	36.602203	1026.178888	1024.878072	87.777296	1675614621.376050	0.000000
247.000000	-2.946247	0.771041	48.963189	101.223162	62.515006	9.147879	-11.786799	199.021458	271.810675	162.267973	-5.454427	-120.806904	277.922732	362.332375	324.230772	32.896137	0.807946	0.874856	0.960412	0.971035	0.858530	0.967487	1.015227	536.749918	241755.708039	36.607022	1047.233706	988.009972	98.076600	1675614621.380069	0.000000
248.000000	-3.136572	-4.723546	36.741398	88.352430	101.071046	38.233096	-7.058703	-17.562508	133.341269	185.212652	169.536778	40.894689	-186.838438	-20.510919	287.860111	427.390239	0.954389	0.974572	0.903658	0.868175	0.917754	0.882293	1.036825	487.341550	270653.437123	36.602043	1042.544329	908.901861	92.980356	1675614621.384072	0.000000
249.000000	-2.524235	-4.436132	19.887168	75.253632	133.460552	102.542758	21.684799	-87.362238	-36.226605	256.850505	299.165463	294.537463	142.216280	-37.169506	-143.464382	58.254010	0.987782	0.841626	0.892251	0.937198	0.807248	0.938390	1.079732	535.680882	275912.452678	36.607234	1038.661432	1085.506324	97.484844	1675614621.388068	0.000000
250.000000	-0.771811	-6.950800	5.197559	51.105565	118.846232	125.086946	125.083615	29.530088	-27.237426	5.184506	88.454942	174.164539	353.989681	268.968681	176.309594	110.292091	0.957908	0.870443	0.907315	0.956552	0.838485	0.884366	0.967936	479.559728	276735.428985	36.603963	938.579428	931.351476	87.383278	1675614621.392062	0.000000
251.000000	0.754979	-9.047810	-10.462458	26.269058	76.643065	158.198900	183.327612	154.804706	76.982135	43.458067	-31.969445	-66.628341	66.514634	285.908923	360.432188	248.010196	0.851054	0.816273	0.848228	0.900147	0.806181	0.853495	1.027830	518.531999	229784.849741	36.605710	1039.139113	942.266237	87.238615	1675614621.396064	0.000000
252.000000	1.759076	-5.026218	-11.176759	-4.498313	33.389697	82.812102	126.917426	230.651467	238.345638	183.906645	92.501424	48.498385	-93.741228	-70.152287	49.219520	139.800141	0.827668	0.806881	0.822667	0.826418	0.851332	0.875477	1.023772	499.627916	228541.403736	36.596773	955.342858	1077.140991	91.992890	1675614621.400064	0.000000
253.000000	2.997699	-4.855878	-17.262579	-19.614082	5.105746	25.528895	77.747093	125.334430	212.755191	215.969756	260.680777	265.244104	155.399749	112.912426	-15.379765	-46.337020	0.886210	0.920761	0.930783	0.887844	0.883601	0.900037	1.027757	516.593873	264286.422609	36.590434	925.372015	938.104311	90.839494	1675614621.404051	0.000000
254.000000	4.725489	1.078930	-11.196557	-8.741517	-27.530443	-9.324438	-18.143214	42.812713	66.175635	121.483402	214.732563	289.871421	295.024733	840.387189	224.305658	635.940051	0.952895	0.951280	0.844778	0.869387	0.986769	0.894654	0.971144	535.360678	234729.286530	36.591720	1023.105253	1050.213873	88.009153	1675614621.408065	0.000000
255.000000	6.579342	7.891002	6.086603	1.849010	-5.645227	-37.455913	-16.111720	5.905463	-32.298029	-15.883996	-31.504954	12.142917	37.326942	157.077591	265.737768	379.465558	0.952251	0.943552	0.947730	0.818140	0.972898	0.979065	0.943428	460.246519	261273.136922	36.596703	1018.399227	931.639997	81.643102	1675614621.412069	0.000000
0.000000	8.288332	14.366790	17.282160	22.230307	27.642709	29.393239	43.111561	28.521619	44.539249	9.502571	-47.043179	-85.221928	33.705682	-143.268727	-128.097216	-115.763766	0.981365	0.825969	0.933232	0.975285	0.915711	0.982410	0.935467	480.162341	264352.958196	36.599196	1033.095565	928.208243	90.225402	1675614621.416071	0.000000
1.000000	10.000000	21.387688	34.447109	47.038306	66.146765	79.666727	223.457741	271.260751	290.986581	320.655124	301.990952	390.217564	428.150640	499.234463	515.248480	491.478089	0.868135	0.961013	0.857051	0.943714	0.829628	0.890812	1.055187	475.421192	268497.977725	36.590368	966.454008	1087.806095	96.622434	1675614621.420067	0.000000
2.000000	11.742187	28.490443	50.403211	76.200652	110.252696	151.994146	169.513979	183.495831	267.244155	234.270092	283.110383	344.167042	197.453971	310.949956	265.253910	212.514568	0.918353	0.925456	0.898417	0.889888	0.865149	0.945083	0.904868	467.692051	233300.323352	36.599029	903.666495	931.505944	96.924355	1675614621.424058	0.000000
3.000000	13.374278	33.485811	66.059335	94.345722	103.420321	155.030416	127.529420	166.073926	171.974962	136.507185	81.557619	16.227712	84.096028	54.894239	-126.066296	-5.145282	0.825906	0.917303	0.977820	0.979974	0.924750	0.987227	1.056232	457.499193	269955.439428	36.590807	1077.315224	1038.657514	89.626829	1675614621.428077	0.000000
4.000000	15.162311	39.323169	65.198365	99.252206	111.025736	104.619291	95.892126	54.431800	-16.123232	-34.692405	18.543001	-108.872285	30.720868	68.200568	173.599090	290.981355	0.930355	0.971168	0.909755	0.894364	0.924654	0.949566	0.937529	480.310655	232421.480584	36.599324	1077.877531	1028.674062	96.010666	1675614621.432069	0.000000
5.000000	16.479247	46.072529	77.628854	94.098315	73.699945	49.095281	28.003951	7.932728	-67.419126	5.828048	63.951254	142.355287	311.371319	250.159814	458.229666	272.680821	0.969212	0.810018	0.903302	0.897946	0.898505	0.877826	1.092055	457.898254	258127.256031	36.602150	1001.636818	1085.263463	80.421730	1675614621.436074	0.000000
6.000000	18.586522	46.656883	67.755127	66.107866	35.097230	-0.486181	-16.251425	17.363868	51.454394	190.940078	292.505929	355.166504	285.416240	133.889941	25.335572	-108.284465	0.897887	0.816117	0.912347	0.918562	0.829457	0.939283	0.942592	492.671584	252824.624450	36.592357	911.730804	1092.579712	83.362015	1675614621.440074	0.000000
7.000000	19.245417	46.460864	61.414304	38.377887	2.144890	-39.887015	14.282521	89.438808	155.592363	182.149934	216.546286	103.639261	15.053416	-86.339703	-7.594349	257.881896	0.842232	0.915923	0.971111	0.812809	0.869140	0.998573	0.988745	468.621652	268841.291034	36.600183	1045.103512	1064.302763	82.770044	1675614621.444077	0.000000
8.000000	20.807095	48.461569	48.134047	14.207127	-28.775513	-2.116910	84.187888	205.887884	154.420781	114.375352	45.970451	41.119287	31.492453	263.748328	345.501797	365.213719	0.977922	0.974314	0.986089	0.912200	0.841183	0.947063	1.094210	452.748488	267474.373244	36.597705	1085.661028	1009.541930	86.623332	1675614621.448072	0.000000
9.000000	21.872882	47.410207	31.218541	-6.898715	-5.221181	59.855127	162.469670	209.710166	87.756458	14.315369	-88.511603	124.178039	329.340558	254.424282	128.654968	-132.578324	0.897377	0.856941	0.848997	0.815018	0.952042	0.819907	1.053948	484.845649	236599.406472	36.591352	945.744112	939.754056	96.612172	1675614621.452073	0.000000
10.000000	23.299642	39.067411	13.462239	-16.360829	26.004933	117.601304	162.197348	83.137890	-77.545378	-37.299170	153.481490	305.548271	240.935894	74.917533	-59.859397	159.494777	0.959077	0.925821	0.998004	0.833929	0.859447	0.997553	0.944460	505.209583	273620.207274	36.593036	912.784417	1079.420968	96.144277	1675614621.456073	0.000000
11.000000	23.819339	36.072863	4.993339	-9.682761	63.013879	158.448782	108.439695	-46.703526	-12.771177	165.560433	208.117276	133.672248	-29.610712	-28.872964	321.743102	524.087278	0.933011	0.843314	0.809537	0.957249	0.808603	0.805417	1.088082	539.279588	277497.091666	36.592581	913.758861	948.901449	91.343619	1675614621.460074	0.000000
12.000000	23.341429	28.535689	-3.162497	10.295725	107.612195	140.255904	13.495992	-21.424961	123.776133	221.515433	110.339413	-4.981830	64.185570	332.053541	247.151526	50.675804	0.834268	0.891754	0.834850	0.963769	0.906410	0.864851	0.948214	484.971471	262876.318769	36.609177	985.178456	998.517061	84.173991	1675614621.464077	0.000000
13.000000	23.968644	22.068014	-10.187801	35.246400	130.312407	68.509870	-6.846512	63.994481	184.009621	120.587332	-30.309016	75.765622	345.619174	188.904619	-51.171563	112.460982	0.814863	0.979407	0.839627	0.858454	0.851553	0.978747	1.093327	502.678762	246714.059079	36.608624	1086.314076	940.552319	88.537823	1675614621.468078	0.000000
14.000000	24.102080	15.308451	-10.584000	65.950131	109.296233	17.758514	16.565463	139.876643	158.937450	-75.108507	69.281530	261.931357	145.175761	-117.563181	162.006120	926.860386	0.963540	0.942970	0.965054	0.900959	0.946970	0.894368	0.971449	524.958298	271281.179687	36.607874	924.523912	979.069280	88.230123	1675614621.472079	0.000000
15.000000	24.537630	7.746571	0.369166	79.103073	79.802988	-31.336617	73.296225	195.100780	50.002470	-22.820943	197.343378	142.866145	-19.773700	179.488552	774.603104	-41.202635	0.947978	0.872051	0.913889	0.959279	0.903922	0.827248	0.933365	516.308017	254323.081607	36.599169	994.350586	976.619903	95.843280	1675614621.476065	0.000000
16.000000	23.736704	0.484017	5.482310	106.795454	34.228137	-5.008622	158.842571	109.230039	-11.900012	147.459960	260.036648	-117.996490	126.805540	577.453534	39.104309	136.451815	0.908612	0.869608	0.942663	0.809806	0.823742	0.977367	0.940299	521.989796	255633.489496	36.600773	1052.824899	1095.110760	80.938386	1675614621.480066	0.000000
17.000000	22.823607	-2.614533	23.500351	87.343274	1.704518	43.341968	176.637274	-3.049155	38.885383	245.881759	50.886844	59.650940	386.433496	56.424134	128.227333	308.500222	0.914278	0.941618	0.868731	0.937077	0.980302	0.940877	1.062200	524.207917	243416.368349	36.607264	957.629274	1096.441506	88.758777	1675614621.484060	0.000000
18.000000	22.176496	-7.872863	39.822909	78.540068	-33.774527	90.133495	122.209441	-59.218682	177.876819	121.853592	-7.864834	269.321608	244.292501	-6.574622	298.947611	90.688989	0.997792	0.846586	0.871249	0.864178	0.830089	0.915037	0.907322	531.316391	248757.683857	36.601495	1029.077898	962.323200	88.014819	1675614621.488098	0.000000
19.000000	20.612529	-8.088699	51.118746	52.312397	-19.448595	121.480514	20.838151	31.299140	165.880911	-56.756473	131.280699	453.272617	-160.703405	395.421290	138.554498	114.634283	0.842498	0.821916	0.978818	0.879468	0.991586	0.946432	0.901345	473.863601	266558.464822	36.597716	982.270458	955.842475	89.073003	1675614621.492080	0.000000
20.000000	19.464224	-7.339359	61.453022	24.737243	16.968849	119.581841	-6.571120	140.564610	105.339446	-31.427826	188.545963	14.639325	333.190678	251.126765	57.630938	241.579051	0.923278	0.813095	0.950071	0.834718	0.868457	0.863546	0.988898	522.266247	228210.542909	36.602682	1064.115760	1078.341637	86.549063	1675614621.496083	0.000000
21.000000	18.113935	-8.243754	76.707129	5.752526	67.145074	96.498387	-32.840490	158.256460	2.500611	168.215165	237.135777	10.900820	209.422016	-85.476111	354.238934	151.223105	0.853068	0.936409	0.973575	0.877362	0.836870	0.944376	0.990060	507.063123	258789.548226	36.607811	924.327190	971.701998	93.183236	1675614621.500083	0.000000
22.000000	16.984690	-2.993319	69.275417	-19.652064	92.497483	30.574808	62.951295	159.255225	27.920671	225.593011	-116.135111	171.803747	99.519407	106.729621	205.312040	-154.806885	0.903800	0.962861	0.997454	0.848630	0.831785	0.846340	1.014220	497.487857	250173.420839	36.591641	1092.744537	1007.794743	86.851088	1675614621.504083	0.000000
23.000000	14.956434	1.518999	62.444957	-5.783459	134.338701	-18.284141	132.320343	11.545399	111.073744	124.565771	36.489392	316.509613	-30.866443	449.969576	-70.372567	286.180259	0.886893	0.948015	0.908674	0.885419	0.964852	0.982531	0.973704	479.480709	240322.155437	36.594578	1051.293625	1049.227219	84.228798	1675614621.508081	0.000000
24.000000	13.586831	8.217208	53.277253	3.932013	111.637491	-8.742137	140.381961	-4.540933	229.363386	-32.092092	189.680788	37.324770	186.329177	60.300818	158.400692	183.074116	0.827597	0.886815	0.941162	0.863085	0.932260	0.813131	0.939645	469.230996	260177.691113	36.590783	1065.274473	949.912793	89.474178	1675614621.512083	0.000000
25.000000	11.756272	14.604734	41.021555	22.268609	72.740728	13.519489	137.634151	29.337960	193.472577	-35.051728	252.608122	28.516487	366.576328	-103.948533	384.417496	-12.298200	0.849993	0.813950	0.895177	0.933657	0.926350	0.823886	1.098867	454.128064	257326.361022	36.595154	1068.698187	1096.056437	91.466699	1675614621.516091	0.000000
26.000000	10.000000	21.384463	25.779042	48.912900	32.582711	78.428277	36.824163	122.235051	97.787225	305.082902	48.581815	237.419716	10.916791	294.092417	66.230506	316.652281	0.881899	0.837237	0.948627	0.878703	0.827629	0.976274	0.971943	457.074739	233253.521449	36.593767	920.984357	923.150839	95.039304	1675614621.520085	0.000000
27.000000	8.162593	28.805022	8.221422	73.655153	-7.284357	131.929722	-49.073864	189.043747	-84.351983	206.827327	-97.176434	320.053595	-85.209962	241.994945	72.897765	228.964514	0.811654	0.902715	0.877912	0.995269	0.921151	0.817245	0.969113	470.905581	275067.266207	36.606163	1023.498757	1089.954598	85.242187	1675614621.524090	0.000000
28.000000	6.436461	35.619815	0.422855	95.885098	-27.248250	148.341030	-42.183603	158.345790	74.998687	131.446607	124.124819	13.222998	323.230706	-116.834798	462.906044	19.698383	0.850640	0.997604	0.824836	0.982817	0.921893	0.900267	1.011540	502.736956	249002.520384	36.609291	957.466874	1066.097415	96.191078	1675614621.528080	0.000000
29.000000	4.537123	38.490523	-9.369303	87.386070	-3.059957	112.583969	50.952998	51.651059	172.312608	35.127647	207.630004	46.940008	319.046466	114.085973	135.390053	491.573934	0.912689	0.909614	0.800416	0.882849	0.847137	0.989305	0.960157	545.114104	240611.772203	36.608311	994.215012	1069.170439	98.491052	1675614621.532088	0.000000
30.000000	3.138483	44.746992	-7.007629	95.755429	27.843716	49.502866	140.938510	-67.871322	187.715032	4.926918	169.079863	163.995826	37.677946	440.432159	58.837243	462.707062	0.947685	0.907519	0.969732	0.905679	0.889527	0.933356	0.973640	457.548850	231633.937647	36.596271	944.473410	957.317538	87.478211	1675614621.536089	0.000000
31.000000	1.630851	45.634506	-7.253100	64.143667	63.407564	9.438498	200.476717	-54.027293	124.925941	148.437450	17.327451	264.229876	-2.874521	133.221365	507.639296	14.146170	0.996225	0.866577	0.999284	0.964645	0.960744	0.818782	0.913503	496.052418	232291.158855	36.609748	1026.714398	1018.738458	92.357616	1675614621.540098	0.000000
32.000000	0.633818	46.300750	1.971580	38.777801	105.731859	-28.923218	142.124745	185.697280	-6.851583	189.437983	27.100183	96.040864	303.811910	-147.928169	545.650174	213.994356	0.946052	0.916156	0.914448	0.877515	0.984672	0.939368	1.013718	547.665035	253687.930556	36.594772	1025.692627	1044.127469	89.711690	1675614621.544082	0.000000
33.000000	-0.505773	48.797264	14.679296	9.306116	115.598215	12.733234	49.301478	177.186947	-44.760357	114.562050	183.004345	-106.229887	234.050422	407.941082	-152.085995	388.331660	0.998006	0.860358	0.930774	0.942675	0.903556	0.887440	0.974540	460.726724	265345.755794	36.608488	910.989491	945.842174	88.614463	1675614621.548091	0.000000
34.000000	-1.668565	44.652623	28.797368	-10.204907	102.866770	59.916223	-49.936432	140.421902	92.610272	-16.085475	214.170301	128.996043	34.534476	635.254065	164.982516	-148.171750	0.959807	0.892823	0.881943	0.827882	0.867801	0.807339	1.032952	460.394604	241760.050577	36.603659	968.552039	1053.096166	98.837342	1675614621.552089	0.000000
35.000000	-2.419142	41.714870	43.219608	-12.323976	85.485946	113.665062	-19.494630	83.153434	257.298752	4.470440	58.232013	330.712840	39.629056	68.250073	303.612311	159.180805	0.859993	0.960339	0.832574	0.959303	0.995284	0.897286	1.024018	503.035478	257549.451660	36.609231	981.502952	1037.365073	98.895400	1675614621.556095	0.000000
36.000000	-3.657715	36.510212	60.647001	-17.924873	37.316443	132.876580	80.861433	-21.787310	227.736684	188.109594	28.498825	134.426180	395.144276	83.951098	109.940708	322.602291	0.850048	0.934576	0.987264	0.871933	0.892330	0.837136	0.907281	486.764210	246693.196296	36.598647	940.784535	984.934506	87.324180	1675614621.560106	0.000000
37.000000	-4.282059	28.785165	71.817196	4.111523	-13.157605	126.770538	131.037456	-25.355636	70.290899	240.656528	109.479269	-56.847829	368.911380	407.383154	82.549048	106.029842	0.847005	0.973390	0.938840	0.918638	0.941306	0.946471	0.964562	512.374208	247450.387826	36.603198	985.844009	922.691845	89.473951	1675614621.564106	0.000000
38.000000	-3.735885	22.099299	78.285802	34.392868	-18.302258	70.677372	199.543913	60.366618	-1.930751	128.778825	237.826557	70.249775	-157.574586	197.006354	424.824624	104.362360	0.956404	0.926813	0.808947	0.852967	0.996613	0.979950	0.901221	494.109682	268724.679293	36.595255	1054.791886	1046.534352	95.149324	1675614621.568106	0.000000
39.000000	-3.553409	14.886605	69.036201	61.680043	-2.137486	-2.256859	154.244772	133.951441	14.873374	-54.912491	173.416618	583.475416	215.960818	33.059949	140.419627	304.840969	0.911008	0.915508	0.931853	0.838691	0.951147	0.880327	0.920155	502.368815	239045.176048	36.591893	971.274544	952.134560	86.730886	1675614621.572077	0.000000
40.000000	-4.538215	8.556909	63.528099	91.740304	23.458911	-10.149519	64.182768	167.176172	126.035023	-31.373904	12.257197	406.118162	319.791974	171.343268	-5.746345	-28.381532	0.889816	0.938440	0.891707	0.864858	0.869406	0.933623	0.951543	490.744947	271976.427248	36.594726	913.514284	1035.025367	97.551515	1675614621.576109	0.000000
41.000000	-3.169735	3.225250	51.808045	95.272441	64.472957	-10.048931	-1.617785	104.591524	216.100470	169.576421	3.358336	-34.630573	133.114958	308.733918	357.195703	41.965596	0.831272	0.851745	0.869112	0.842999	0.960644	0.876615	0.909596	460.736403	244575.989955	36.605742	949.289875	902.956543	91.388392	1675614621.580087	0.000000
42.000000	-2.424615	-1.044790	35.903341	100.238206	113.096041	37.077427	-51.341473	-20.028450	115.072999	298.786039	233.955968	29.363090	-62.670668	54.844858	252.906446	296.019125	0.912980	0.954869	0.925669	0.839014	0.850103	0.862959	1.059473	470.627021	247530.269925	36.609413	1054.016680	918.311171	85.243018	1675614621.584107	0.000000
43.000000	-1.512466	-4.059039	19.513451	74.870420	118.463681	105.529467	41.444943	-68.942546	14.343179	126.282612	548.377165	198.214534	146.360538	-62.560752	40.399446	30.124645	0.971027	0.984523	0.913311	0.947259	0.965529	0.861927	0.994457	525.598283	236797.286784	36.606594	919.392877	969.819649	86.443063	1675614621.588102	0.000000
44.000000	-1.145448	-8.723987	3.084808	51.702834	118.843624	118.076395	123.916519	49.453540	-10.668538	-77.179882	168.256215	255.580722	328.078411	208.686945	173.166098	21.189906	0.932309	0.884049	0.984707	0.870862	0.815901	0.844451	1.037635	544.910777	278809.210283	36.597209	1096.479046	1019.811717	91.879510	1675614621.592075	0.000000
45.000000	0.629501	-10.413639	-0.755149	24.472248	86.396404	125.178824	137.676365	149.356973	81.981031	25.456494	-14.989236	12.827360	71.289318	243.770329	389.100843	671.796897	0.963746	0.802796	0.822886	0.920697	0.825169	0.981622	0.981061	479.141675	238864.890937	36.606909	1057.579237	1041.347002	93.210896	1675614621.596073	0.000000
46.000000	1.746231	-7.936636	-16.770746	-3.732662	37.121340	93.000402	145.508668	181.974269	169.446070	142.808725	82.733379	67.622652	-126.742799	-77.438973	-38.577821	246.100604	0.973278	0.807812	0.973330	0.939861	0.881309	0.846078	0.958216	462.158931	230958.535141	36.594297	976.071066	978.483347	97.782514	1675614621.600072	0.000000
47.000000	3.071586	-3.515202	-12.826064	-20.773021	-10.444897	20.591532	80.157518	122.041964	216.014360	277.646227	248.737591	287.819893	189.086477	119.362072	87.004363	-118.978591	0.805829	0.837762	0.994007	0.967657	0.848737	0.956015	1.004455	459.453765	235925.135683	36.596965	952.786414	977.979494	82.946128	1675614621.604101	0.000000
48.000000	4.904847	3.513391	-11.303078	-20.066233	-22.457436	-13.356531	22.538842	44.877131	63.222084	134.318599	209.088239	257.340477	381.909703	293.044461	688.484156	376.626258	0.830971	0.911593	0.884156	0.834417	0.993843	0.907803	1.007646	454.910120	266174.837739	36.607079	1058.451478	1068.490035	83.249282	1675614621.608111	0.000000
49.000000	6.346366	8.680813	5.354780	-5.857108	3.404701	-39.208806	-15.606916	-1.197065	-52.629030	-32.152507	-14.998836	72.598230	69.076844	92.739832	246.640946	173.650324	0.916536	0.904172	0.920256	0.967046	0.879906	0.966241	0.956464	545.150550	265263.218932	36.607987	996.330662	999.342607	86.389383	1675614621.612119	0.000000
50.000000	8.273275	13.822379	17.629330	23.121211	26.256024	29.291610	14.790051	2.741118	-11.194090	-37.395266	25.361758	57.359801	-97.168359	24.253227	57.032983	-208.811500	0.980741	0.830245	0.898448	0.880885	0.871705	0.826493	1.060116	545.003330	253900.384240	36.592504	976.666384	1033.209622	86.835473	1675614621.616115	0.000000
51.000000	10.000000	21.302274	33.942892	47.250984	67.077342	80.243800	95.844715	130.538670	122.910499	323.147419	203.014247	249.075965	244.117525	473.539182	364.107299	237.694062	0.948466	0.824001	0.903149	0.888311	0.913981	0.997634	0.992358	547.267627	272652.719056	36.597718	955.198243	901.138469	81.759383	1675614621.620090	0.000000
52.000000	11.753467	28.708250	51.598492	67.871248	89.213077	113.862675	162.196511	193.734506	194.058997	209.706507	210.227916	277.030272	340.243030	554.400214	202.127398	235.610143	0.887843	0.836985	0.865452	0.845558	0.812600	0.822084	0.901427	450.927276	231915.654101	36.598066	1049.358494	924.748028	98.117586	1675614621.624122	0.000000
53.000000	13.617032	35.507515	65.881933	87.565432	129.356362	129.520088	151.502515	130.552199	313.009401	135.732037	89.951546	12.396517	38.780013	38.475079	-150.568514	-87.922591	0.829855	0.997740	0.873622	0.958051	0.994898	0.849566	0.979555	536.353683	237163.782678	36.601071	1011.788976	910.271806	82.980085	1675614621.628090	0.000000
54.000000	14.977211	40.263756	73.418586	85.299638	105.336899	111.494318	86.077676	52.975339	31.853645	-16.272217	24.063394	29.396671	67.771308	36.342394	166.097563	266.875353	0.803576	0.932815	0.827160	0.842311	0.873413	0.850554	0.944157	521.965455	265828.617623	36.596344	1091.025876	1057.875459	89.649049	1675614621.632090	0.000000
55.000000	16.539925	45.883502	68.424662	91.177585	73.996106	48.293741	19.048655	-21.336593	-51.426899	-6.208787	86.745685	152.430717	330.484758	364.825572	450.448156	334.818179	0.964530	0.889536	0.929244	0.807516	0.895991	0.894334	0.929340	508.052762	252047.704866	36.607921	931.689681	1071.882871	88.915970	1675614621.636110	0.000000
56.000000	18.075278	46.990068	70.830513	70.476863	36.864656	13.298213	-35.564240	-19.896348	69.128147	185.728641	189.584637	335.612594	479.590586	134.978952	15.866299	88.157661	0.909952	0.929232	0.968718	0.833479	0.890725	0.802450	1.034869	526.306845	262956.088930	36.595385	1034.121225	911.617707	97.516586	1675614621.640119	0.000000
57.000000	20.129816	46.355277	63.600447	38.468746	-5.227613	-47.342182	-0.350930	89.941987	198.236355	181.459006	214.502067	82.823831	-139.564895	-59.343171	-27.427123	178.928908	0.818829	0.994241	0.888438	0.857301	0.859946	0.897259	0.959470	456.392697	245011.944737	36.602508	1035.721288	1071.215932	95.441370	1675614621.644111	0.000000
58.000000	20.603836	45.620623	46.002012	13.018657	-9.595459	6.660435	90.105619	190.004292	178.477212	117.325223	60.631946	-67.133787	86.230163	219.421877	483.036492	436.830253	0.925174	0.993747	0.924394	0.812410	0.962382	0.990437	0.904429	460.854355	266139.771943	36.596992	932.494009	1014.903781	86.628331	1675614621.648113	0.000000
59.000000	22.489628	46.007450	31.247505	-2.730218	-20.803008	59.866502	137.593387	192.025038	87.667119	-9.826617	-5.071796	255.478124	279.990371	333.099620	132.566575	-21.892851	0.997904	0.974157	0.918485	0.902705	0.812581	0.919702	0.945583	465.641987	230957.218104	36.601239	1081.571539	916.967434	86.470905	1675614621.652113	0.000000
60.000000	23.165925	41.589270	13.474408	-8.687324	19.745912	124.051212	137.634973	83.407543	-67.889825	24.590250	135.986770	621.645214	162.712960	-60.123793	-48.820208	344.944185	0.843902	0.866773	0.830548	0.962309	0.990618	0.983763	1.082244	540.923352	241168.593468	36.593251	991.673833	1093.702121	83.650734	1675614621.656113	0.000000
61.000000	23.625723	34.845455	3.149237	-19.040400	63.061306	168.929981	91.981855	-3.909557	-48.677753	191.625500	305.902764	289.095064	2.174278	22.729770	201.281319	799.033619	0.939276	0.899141	0.921822	0.817767	0.847835	0.863694	0.939106	508.873011	231164.970332	36.592956	967.173957	947.824469	84.854708	1675614621.660114	0.000000
62.000000	23.305366	28.384077	-9.126209	11.130183	102.611140	119.251985	12.612147	-17.572512	131.855300	235.997696	110.261433	-111.616915	81.051906	211.342236	260.409645	-19.257962	0.988711	0.813185	0.937257	0.844905	0.826623	0.907254	0.901313	454.334040	244146.024542	36.591750	1024.147892	1049.524230	81.650209	1675614621.664109	0.000000
63.000000	24.714426	22.242855	-14.347819	33.191554	137.436648	68.698047	-16.038209	116.510630	240.372106	135.128439	-116.957937	98.059864	307.516138	201.294104	-193.150275	71.321586	0.886949	0.947262	0.857731	0.911310	0.836421	0.871496	1.096071	461.866665	239868.226369	36.598404	1007.704311	1048.803880	94.191016	1675614621.668116	0.000000
64.000000	24.543653	15.548543	-6.511314	62.214146	96.243358	8.373320	1.039577	176.131477	140.735198	-52.631835	59.097941	272.214452	155.525190	21.458738	365.817636	276.275002	0.998335	0.853710	0.929673	0.943112	0.967150	0.890158	1.052440	462.440161	257657.140295	36.603652	931.071835	1083.842668	81.363390	1675614621.672116	0.000000
65.000000	23.534455	8.387340	-5.400371	79.447050	86.058437	-31.893424	75.945600	200.815016	51.153660	-52.285368	534.205158	176.325370	-78.587625	158.376197	696.579765	-17.435479	0.999474	0.958786	0.953692	0.944480	0.959445	0.923406	1.098661	544.261226	277274.762429	36.596362	1016.599798	975.351711	94.770476	1675614621.676114	0.000000
66.000000	23.442803	2.124843	8.944281	86.864835	34.020639	-29.570386	128.399777	112.913052	-54.409723	152.340734	412.066248	-14.703282	126.362935	444.565064	13.585882	-2.564729	0.818190	0.940940	0.899266	0.977837	0.931236	0.863445	1.027393	508.652762	270247.282831	36.590108	917.801324	952.804860	93.200810	1675614621.680114	0.000000
67.000000	22.601979	-2.921837	22.684431	98.169994	-13.647663	38.629389	177.085808	28.632947	30.556536	283.841631	5.441637	56.198909	426.046306	60.849970	80.191668	427.346467	0.894336	0.932906	0.927212	0.854375	0.952473	0.857763	1.042504	533.383950	233942.063787	36.602385	969.894237	922.466189	99.721772	1675614621.684102	0.000000
68.000000	21.698773	-7.238261	39.788373	77.009524	-37.343933	109.472550	118.396290	-63.830600	170.583260	136.076010	15.966266	218.894952	121.137420	-54.713648	492.826030	35.229156	0.966670	0.848247	0.975423	0.852161	0.869961	0.849817	0.973684	462.603706	251499.332592	36.608710	957.053281	1078.260642	93.310972	1675614621.688125	0.000000
69.000000	21.328586	-8.849428	57.113955	50.797536	-15.725425	162.084572	64.608717	44.515920	239.592804	-84.575675	142.268066	206.455657	45.460438	593.212361	143.627054	-40.780572	0.939228	0.939072	0.831143	0.827693	0.820798	0.994359	0.970697	456.301950	260596.380056	36.604537	986.659166	991.457859	88.007421	1675614621.692122	0.000000
70.000000	19.294908	-9.480368	61.995962	24.990605	17.355625	144.671833	-35.589146	160.107570	104.079254	-34.466335	217.148445	3.427189	187.517642	263.373583	-105.560464	480.428899	0.954579	0.941630	0.990311	0.922582	0.965429	0.817599	0.962891	497.107907	261045.763050	36.593263	1042.588787	1051.460402	81.637241	1675614621.696122	0.000000
71.000000	18.004182	-8.783432	65.942569	-2.079653	61.408502	84.004408	-40.734883	178.308198	-25.889580	159.112721	134.922044	19.573930	345.162062	-150.896001	193.086877	123.486589	0.947461	0.855005	0.825737	0.946859	0.850644	0.845566	0.920510	541.941081	274964.125981	36.601973	1058.766565	1090.125683	99.495307	1675614621.700120	0.000000
72.000000	17.072622	-3.232253	71.789379	-6.295593	108.488405	25.130470	62.802305	115.296420	7.587240	180.169492	17.269659	215.519402	63.115458	129.527727	234.260168	-3.813132	0.949154	0.896695	0.922725	0.981509	0.834522	0.929927	1.039926	470.620055	267420.085485	36.602899	971.398514	901.015147	99.101472	1675614621.704093	0.000000
73.000000	15.366926	2.048707	64.147654	-21.774199	117.750485	-3.773960	118.685118	48.573421	115.796137	124.678407	29.864506	297.645978	-24.863594	333.942045	-12.569402	440.849846	0.890813	0.894246	0.965543	0.875872	0.976030	0.864623	1.021476	544.340783	250919.548170	36.604447	1010.987599	1094.513464	99.893523	1675614621.708121	0.000000
74.000000	13.572910	7.069384	55.264410	2.545274	115.816390	-15.320385	167.581062	-72.025319	179.215907	7.742636	288.954691	30.010103	184.647104	58.702125	156.457752	345.270809	0.940387	0.837447	0.875828	0.962556	0.947604	0.993813	0.957706	458.517991	240953.261012	36.607333	955.231197	1099.123227	96.993477	1675614621.712129	0.000000
75.000000	11.773637	14.656660	42.948016	20.202884	73.697689	20.022140	121.508572	-13.717598	146.662980	24.100718	276.369594	-69.024714	629.545108	5.077788	364.187929	-151.373941	0.919644	0.853039	0.822586	0.855247	0.972312	0.811224	0.900069	547.139678	247978.646018	36.609592	1065.408476	964.801581	84.317182	1675614621.716113	0.000000
76.000000	10.000000	21.551956	25.829977	50.068403	33.419934	83.634254	42.596636	109.075914	31.725799	321.598987	9.515747	199.346320	59.986294	191.693433	53.994284	474.696628	0.989557	0.995229	0.921062	0.882505	0.884327	0.862670	1.030502	515.056605	231823.659143	36.608301	1090.401694	1024.514387	81.347462	1675614621.720114	0.000000
77.000000	8.270954	28.689540	13.227768	70.714132	-9.230398	141.987826	-20.263421	158.830349	-37.080044	222.576734	-32.540258	284.720812	-90.965834	349.074327	81.074098	304.892619	0.833490	0.902070	0.997043	0.833614	0.860207	0.872240	1.072000	521.476507	248282.660658	36.604028	1062.986760	1018.392809	80.670613	1675614621.724113	0.000000
78.000000	6.523400	33.990207	-6.166001	84.033477	-15.757280	129.494340	-43.053219	172.086177	50.841856	136.392135	129.398835	40.979169	199.223185	44.618523	291.297260	-100.143940	0.927090	0.982456	0.946582	0.878409	0.990781	0.887713	1.062967	510.244969	276103.085050	36.604882	1027.199707	1082.399499	89.268323	1675614621.728124	0.000000
79.000000	4.771402	40.157102	-7.431696	97.418751	0.134194	119.323958	53.536430	46.480820	134.296055	-11.401513	282.084847	-110.685038	190.650660	23.434320	281.322133	190.264772	0.920933	0.978044	0.925721	0.992173	0.949299	0.965737	0.973786	481.336479	268061.388904	36.590294	953.546078	945.351754	92.291278	1675614621.732117	0.000000
80.000000	3.447266	45.971379	-16.258379	89.090709	27.658541	48.773872	120.296071	-60.919396	387.371429	9.685954	134.495403	350.089781	65.747738	464.063402	-18.796818	206.032962	0.890452	0.885679	0.868725	0.987473	0.911911	0.943355	0.925997	545.403921	247539.650016	36.598235	905.638670	1059.362422	80.845258	1675614621.736144	0.000000
81.000000	1.335481	44.823987	-13.999488	63.279074	65.211994	5.164884	143.382228	6.733838	262.553751	155.229466	23.344609	634.609344	67.804856	133.403986	617.616969	-6.909128	0.815000	0.848095	0.871413	0.946665	0.818216	0.915378	1.014174	496.487974	232280.087433	36.603249	1093.332526	994.076244	83.347420	1675614621.740126	0.000000
82.000000	-0.037922	49.277394	0.727422	38.681500	113.716786	-38.448780	122.269063	86.999093	-19.531332	217.981120	-0.905685	90.184159	304.089028	-182.219612	234.630725	172.986798	0.944442	0.975798	0.865557	0.957362	0.885860	0.838747	0.943599	504.606759	266893.501782	36.598683	918.963959	1066.720027	92.133905	1675614621.744084	0.000000
83.000000	-0.772049	46.162057	13.305384	14.398245	114.410446	15.339204	49.877685	176.444417	-74.954708	134.020329	213.315660	-69.790004	197.541049	252.402573	62.359897	454.162122	0.915424	0.903395	0.975357	0.964350	0.806801	0.962736	0.970238	460.145348	275526.996053	36.591881	1024.613452	901.530104	85.078654	1675614621.748110	0.000000
84.000000	-1.851236	46.968030	28.844093	-13.781678	101.213627	59.918089	-42.683730	172.216014	93.613564	3.261380	196.741392	127.279341	-13.367091	667.702739	167.162049	-110.492301	0.813216	0.867908	0.870008	0.945063	0.928819	0.952289	1.042698	491.831064	268889.365072	36.604850	1071.124572	938.231536	92.572980	1675614621.752136	0.000000
85.000000	-3.143604	39.837515	44.529591	-19.469737	82.602700	107.543724	-29.946612	84.159948	174.038797	10.347259	67.075203	209.480282	36.978528	-32.866061	492.167788	158.427183	0.980541	0.937510	0.812213	0.933644	0.831669	0.879131	1.015615	492.452844	265088.649532	36.606616	922.635891	1038.152339	83.534925	1675614621.756136	0.000000
86.000000	-3.803207	35.577005	59.417312	-16.524775	36.733005	132.393984	38.614014	-34.106868	205.199560	138.670984	-103.959289	137.698037	363.802284	84.066256	-9.460343	392.887517	0.928108	0.926754	0.992173	0.839315	0.875013	0.876952	0.930684	497.620390	273840.988444	36.597115	1048.433855	1038.040070	81.980735	1675614621.760101	0.000000
87.000000	-4.224868	29.124142	72.876232	8.556394	2.485112	124.753077	122.603627	-30.603491	46.482966	308.517943	222.717338	-22.941608	184.428070	242.250404	19.029985	36.560496	0.841550	0.901845	0.856002	0.958298	0.962418	0.933896	1.089521	467.770090	230935.768569	36.598337	976.856059	1004.359162	82.157011	1675614621.764090	0.000000
88.000000	-3.659150	22.098852	71.260620	33.776335	-8.436569	70.424662	174.572996	58.656089	-19.850897	126.863602	576.310101	104.440724	-2.905319	216.049355	347.793307	67.584987	0.859697	0.998301	0.978957	0.873418	0.944688	0.982392	1.044204	524.762701	262180.327301	36.609693	958.653085	1018.555873	80.580468	1675614621.768157	0.000000
89.000000	-4.392188	15.451343	73.893115	66.191340	-2.298466	18.895231	156.675036	189.847245	3.272129	-54.284485	354.844396	223.080835	87.936366	25.693816	142.675401	666.540123	0.910071	0.911566	0.909536	0.827740	0.989098	0.822898	0.927806	457.391778	269765.025489	36.602097	920.039185	978.728852	83.462627	1675614621.772132	0.000000
90.000000	-4.050319	8.459908	64.267157	80.527741	20.785335	-34.305554	66.143013	205.124382	133.188957	-37.091449	21.863538	145.543391	369.942597	186.969715	-85.874882	91.144606	0.868622	0.804913	0.973542	0.932816	0.914020	0.927354	1.008708	532.252059	247427.032795	36.604165	904.847561	1057.082184	90.213947	1675614621.776133	0.000000
91.000000	-3.424181	1.735282	53.471384	90.576801	63.719677	-24.210781	1.433814	110.645611	223.845443	141.182324	-28.211752	42.838555	137.119881	280.911736	246.724836	99.796789	0.943015	0.841878	0.862667	0.962792	0.813113	0.946905	1.056536	465.816599	245082.802863	36.602040	912.666286	919.967986	88.805727	1675614621.780128	0.000000
92.000000	-3.123928	-3.309970	35.640236	98.529099	95.583904	32.917580	6.517978	24.359382	150.092512	309.995101	177.562404	11.442542	-118.623465	28.390739	206.592899	526.287113	0.895335	0.866309	0.905794	0.801328	0.834766	0.964538	1.079851	473.173525	277172.837520	36.594801	904.033905	1027.579040	83.901054	1675614621.784110	0.000000
93.000000	-2.074385	-3.964259	20.415156	79.710280	122.370626	111.847095	24.019555	-110.559384	-28.575032	133.675205	310.208681	305.067755	147.908434	-20.472133	-2.670239	40.575831	0.871463	0.807471	0.837608	0.904689	0.962101	0.936720	1.061732	472.647743	239160.448759	36.590621	1047.311463	1047.645394	93.287142	1675614621.788121	0.000000
94.000000	-1.301905	-10.016757	3.085397	52.442274	99.619742	157.850900	121.919141	60.013887	-7.396386	31.429061	72.852545	191.697890	785.672294	287.171222	172.628623	37.006197	0.999205	0.850840	0.800420	0.819591	0.992205	0.821016	1.035134	510.958564	248211.406889	36.593696	1054.760670	995.057705	90.167849	1675614621.792120	0.000000
95.000000	0.694751	-5.712559	-6.366000	23.539352	77.121841	124.879537	190.892393	131.783806	75.849024	20.205437	-110.351457	-95.163920	182.150734	276.897410	624.342606	285.471750	0.990619	0.821844	0.905013	0.957292	0.802129	0.940841	0.956180	452.153351	271830.765884	36.599354	1065.437072	979.287331	83.014957	1675614621.796110	0.000000
96.000000	2.060329	-7.719769	-15.444293	5.067746	36.770653	95.939197	139.137696	210.098838	174.401350	131.542811	80.906300	42.777136	-13.717996	-180.940639	110.400479	154.175580	0.888959	0.994739	0.914167	0.847755	0.827873	0.894524	0.978494	502.228701	244692.796568	36.599937	945.203121	1034.029177	84.989089	1675614621.800127	0.000000
97.000000	3.452343	-2.530674	-8.491677	-4.021299	-4.601541	25.127009	79.140868	146.359136	159.879380	196.129049	256.147643	286.053500	161.916184	123.892011	140.154731	-96.195858	0.896859	0.874291	0.886060	0.973380	0.905388	0.863706	1.011033	450.695343	261325.438160	36.606051	983.625627	1038.862631	81.774271	1675614621.804092	0.000000
98.000000	4.661630	0.080863	-11.059762	-6.321241	-9.744626	-33.625518	1.125573	35.489427	68.007361	128.124334	212.026143	196.485970	372.773174	281.464214	213.089225	502.708002	0.868763	0.861143	0.997630	0.974624	0.800794	0.972422	1.071316	469.160890	235834.560855	36.594815	988.710312	1099.972572	98.400914	1675614621.808135	0.000000
99.000000	6.333269	7.299246	0.571322	4.524591	-7.011975	-33.983381	-56.743719	-56.558675	-23.026353	-83.269413	-2.530188	-14.489794	-1.545533	95.950369	132.788643	167.980100	0.859784	0.940270	0.946813	0.861753	0.930585	0.924312	1.035601	479.193873	233029.433087	36.602931	1007.378029	974.620543	84.679081	1675614621.812140	0.000000
100.000000	8.259211	14.179656	17.721148	23.303219	15.925107	30.421249	6.211717	-4.811277	22.001598	22.466400	40.095021	-94.209651	-31.103202	-138.119325	-56.984366	-73.257924	0.868738	0.828316	0.820660	0.870997	0.804413	0.885894	0.958340	509.011253	234498.729937	36.597141	1045.812505	996.085420	97.333739	1675614621.816170	0.000000
101.000000	10.000000	21.541846	34.499041	48.209122	66.560869	77.160736	100.309160	116.283799	129.144685	326.474770	181.712333	397.539179	179.506725	537.767284	370.344810	194.224914	0.809224	0.876551	0.943863	0.849635	0.902823	0.895507	0.996194	539.295170	241089.188078	36.592786	1026.264189	1077.607195	84.826194	1675614621.820154	0.000000
102.000000	11.723590	28.194006	48.974931	77.015607	92.827652	147.968914	135.489365	190.938723	238.800760	232.671717	187.681999	262.520297	195.768887	484.164528	291.463962	303.817974	0.960040	0.975140	0.873545	0.846303	0.886455	0.861314	1.049681	474.283436	244880.368679	36.599200	1056.821818	1080.774540	98.812258	1675614621.824074	0.000000
103.000000	13.516992	35.322241	60.175131	88.969705	130.173072	120.423794	149.425526	188.955088	168.064277	122.964763	86.479358	72.227614	-34.599640	50.592138	70.470789	-240.191335	0.830857	0.995861	0.909534	0.820488	0.942611	0.920888	1.048868	538.171722	237893.922360	36.590010	969.543554	1071.539250	93.055110	1675614621.828147	0.000000
104.000000	15.381726	41.687134	64.785133	106.263670	126.422962	119.387825	186.898132	61.570069	-3.570277	-71.828659	-4.386002	-29.965930	61.261107	26.868842	175.579408	588.986109	0.902388	0.883280	0.933225	0.835613	0.916283	0.891678	0.999021	523.462009	260797.209477	36.603825	1013.687291	1052.365395	82.764942	1675614621.832142	0.000000
105.000000	16.903752	46.605741	78.144593	79.118458	76.047120	49.023397	27.300066	-55.340190	-87.041768	14.126210	72.902819	178.477617	333.732115	453.906861	438.312286	613.789407	0.912142	0.982024	0.868772	0.930873	0.853739	0.911419	1.007702	526.028598	274997.782983	36.597045	982.960821	937.701352	95.963362	1675614621.836143	0.000000
106.000000	17.965377	46.547123	66.558809	68.491715	38.265830	-8.587357	-51.306889	-8.476351	61.736854	149.921955	247.615149	259.347058	211.034660	136.293702	108.604575	-204.962088	0.800887	0.982293	0.800776	0.854314	0.990126	0.930187	1.015933	501.908123	258672.810086	36.604169	1003.932414	914.980719	99.578684	1675614621.840147	0.000000
107.000000	19.994588	46.932059	57.087839	38.396687	-0.459119	-7.368909	22.728160	92.691328	372.197967	214.675902	166.080454	77.977102	-57.149967	-94.937809	74.617675	239.495628	0.804911	0.850109	0.978008	0.845337	0.815291	0.958694	0.987643	499.019931	241006.431113	36.593525	1039.008967	929.968255	80.810923	1675614621.844100	0.000000
108.000000	20.947470	49.112457	48.262053	16.295092	-8.517669	10.501037	83.807371	144.034718	473.914912	124.096829	40.900142	-19.921636	56.272978	259.030516	292.802570	374.437544	0.846344	0.948286	0.950858	0.943939	0.948246	0.899246	1.072743	482.311124	247107.765066	36.591940	1073.674848	943.199552	86.731403	1675614621.848135	0.000000
109.000000	22.243727	46.152910	31.020654	-7.803929	-17.440534	59.888648	175.373172	173.099472	161.701325	-14.865074	-112.175925	128.290470	318.339351	193.777395	139.426681	-81.479046	0.991688	0.942202	0.908844	0.871228	0.894986	0.959261	0.914234	546.959460	265892.178740	36.600160	1025.718521	946.851479	91.029959	1675614621.852151	0.000000
110.000000	23.227330	39.396283	14.132497	-26.925965	26.843162	129.143592	136.944202	83.896110	-63.755789	-5.741422	333.019913	223.512862	247.141582	10.509706	94.325324	159.774046	0.966524	0.822278	0.959405	0.896611	0.955315	0.840040	0.933968	452.108864	241174.389310	36.592232	1064.892163	1064.488958	89.506320	1675614621.856153	0.000000
111.000000	22.890214	36.887074	2.823235	-13.260176	65.505310	162.381234	108.804239	-41.060132	4.053728	176.093326	584.431848	140.471719	-21.191510	101.992114	691.924841	201.965927	0.835859	0.919458	0.805166	0.803110	0.926673	0.816052	0.938038	501.071852	244122.797855	36.595966	961.237406	1078.476567	87.107200	1675614621.860142	0.000000
112.000000	23.797922	29.163967	-10.247491	1.799571	98.500226	141.728664	25.200958	-8.004946	131.605278	182.773193	110.377042	-4.990365	48.143300	245.379153	616.782901	-34.777258	0.911871	0.802478	0.961286	0.900628	0.973798	0.934196	0.958359	509.734777	258105.111611	36.604188	933.064403	1050.555991	84.620895	1675614621.864144	0.000000
113.000000	23.474649	22.249487	-12.466564	34.562192	121.637368	71.632607	-46.521974	66.355304	269.409028	116.717486	37.282135	101.164955	613.467916	178.100537	-119.013922	88.266742	0.963747	0.834516	0.826264	0.973052	0.957061	0.898557	0.941280	508.134625	259857.868473	36.596967	931.015081	1068.056588	88.748857	1675614621.868146	0.000000
114.000000	23.906772	14.783094	-15.600921	59.129678	113.377613	10.393144	-10.787847	196.090828	139.761872	-78.964215	47.631781	201.128650	346.975461	19.425018	156.080780	261.152482	0.971509	0.952876	0.807115	0.922557	0.988086	0.807803	1.040990	549.253412	246760.760361	36.604596	1085.728353	930.905902	82.884391	1675614621.872170	0.000000
115.000000	24.306349	7.513481	-2.333248	86.524626	72.124217	-41.827049	74.603067	195.770195	-0.404362	-48.995039	260.611892	174.214075	-6.063493	170.371537	291.086666	-31.256174	0.937816	0.945518	0.844286	0.833461	0.903386	0.867551	0.919831	470.185493	253362.759560	36.609839	1007.412173	1082.801977	92.662774	1675614621.876161	0.000000
116.000000	23.929035	0.801866	7.231222	94.082524	39.275195	7.039418	127.953699	104.054679	-69.338180	158.430012	246.802466	7.734177	125.252989	273.984418	0.296814	110.776518	0.802636	0.909539	0.874197	0.855692	0.871366	0.849354	0.943743	546.471657	274510.029617	36.598225	1005.861650	934.104447	95.060824	1675614621.880153	0.000000
117.000000	22.627729	-4.884239	23.190127	88.712596	-13.442771	36.215892	135.740912	13.309591	28.623124	250.765989	59.498344	59.956864	378.436981	87.331008	-45.895545	216.032866	0.998615	0.956870	0.850628	0.854818	0.821527	0.918450	1.092026	524.188128	235681.466279	36.600113	921.208356	1084.164635	83.702870	1675614621.884111	0.000000
118.000000	21.992654	-5.595601	38.379782	72.017921	-27.072243	94.906213	114.151874	-9.423428	163.640787	136.415805	-12.419934	272.686135	101.045501	-28.206986	475.211991	131.204102	0.852080	0.982576	0.813645	0.910440	0.973925	0.888416	0.948991	479.844050	250539.040858	36.608947	900.294500	1004.712167	98.061605	1675614621.888164	0.000000
119.000000	21.105697	-10.229074	54.218088	50.686658	-17.328305	117.553720	36.554000	49.879028	172.875202	-33.436237	161.292656	367.127676	-152.024110	603.622318	140.633947	-47.421723	0.837418	0.840350	0.899592	0.866096	0.841601	0.875836	1.056810	477.918941	251882.083446	36.609744	1017.584364	1072.149959	86.936508	1675614621.892166	0.000000
120.000000	19.398586	-10.710419	63.774857	23.983489	24.907611	114.984163	-36.923892	163.186822	102.569648	-37.168145	316.998855	3.462775	167.002407	513.533116	-28.300803	543.833696	0.986126	0.996643	0.806701	0.998282	0.884233	0.905608	1.042566	546.429455	255124.698477	36.593727	1050.889795	1056.838112	90.671208	1675614621.896148	0.000000
121.000000	18.068470	-4.386214	71.640374	6.200780	61.375190	98.415473	-22.816576	191.386764	-9.588802	163.923849	135.247857	58.156538	229.974696	54.326276	336.909818	252.169213	0.936249	0.888663	0.950558	0.973747	0.970162	0.873289	1.048462	506.240787	233350.623815	36.602564	984.567199	975.682129	98.275535	1675614621.900161	0.000000
122.000000	17.091668	-1.043028	71.635486	-3.864280	102.626672	26.754202	64.276917	148.602078	-39.333887	173.458717	-94.203168	263.603647	92.888247	123.025157	191.364061	80.334784	0.999147	0.921993	0.891095	0.990698	0.885773	0.948241	0.932055	482.451770	233104.357195	36.600003	1064.834941	1088.482380	98.765196	1675614621.904118	0.000000
123.000000	15.449380	2.469609	67.803795	-19.444728	111.125234	-16.907662	140.135752	76.164830	109.758039	135.271954	61.788384	225.808469	-49.745890	201.154329	-36.999332	456.308758	0.834189	0.819388	0.834347	0.800113	0.991920	0.963445	0.995003	490.845651	245452.451468	36.603186	1061.442120	904.762114	95.121382	1675614621.908190	0.000000
124.000000	13.654338	7.459505	56.460110	2.206704	99.152904	-39.315388	180.610318	-35.573166	240.295991	-58.196328	191.345252	-5.233724	234.065342	64.240416	161.797425	200.458336	0.808576	0.808659	0.943017	0.816904	0.931597	0.838635	1.056029	452.440727	266024.989111	36.609787	1020.696682	1079.281821	98.938611	1675614621.912176	0.000000
125.000000	11.856511	14.127370	41.907246	23.728394	84.610925	15.624257	131.466967	19.560489	167.044424	-34.789715	270.186361	-33.577611	249.336439	-100.675611	474.540048	-121.385851	0.952390	0.886805	0.985732	0.933050	0.900941	0.841316	1.095371	540.224612	236660.423534	36.594077	934.421312	937.329274	83.659422	1675614621.916159	0.000000
126.000000	10.000000	21.291472	26.337522	49.657191	32.706886	86.212521	50.399665	129.660940	34.140931	265.988503	12.377457	221.395161	-39.520346	305.135647	-43.109283	348.392273	0.995330	0.930251	0.849108	0.955568	0.808111	0.819166	1.028932	493.146940	234248.058296	36.605396	972.431698	1006.332776	88.752150	1675614621.920160	0.000000
127.000000	8.209025	28.135807	9.384289	74.429078	-3.218139	148.855916	-42.525498	164.124288	12.124838	233.799620	-4.055758	254.973669	-57.526576	262.853760	114.958849	299.982810	0.848585	0.869024	0.838906	0.899755	0.866535	0.992259	1.002834	549.280405	231327.251933	36.605975	934.286842	1089.348755	82.467931	1675614621.924126	0.000000
128.000000	6.598033	33.807443	-3.490888	92.531334	-28.930940	151.587321	13.064323	151.387168	35.003904	120.858680	127.034397	38.944231	256.419681	-46.405094	653.454641	48.452694	0.945131	0.838306	0.920493	0.863708	0.936336	0.980083	1.061289	456.087300	267645.694131	36.609928	1036.331322	979.694296	82.425677	1675614621.928156	0.000000
129.000000	4.552289	40.809316	-11.003864	85.782010	0.525138	103.572822	47.978227	53.572983	171.914585	-24.128701	185.181106	-4.717136	223.693020	51.480454	267.813863	220.698486	0.996241	0.926068	0.920796	0.997127	0.830466	0.973294	1.085941	470.432171	239024.819479	36.592378	918.583798	1023.340756	82.483727	1675614621.932162	0.000000
130.000000	3.315887	44.197870	-18.013331	89.405654	21.001644	46.388660	119.112367	-28.145597	247.791789	-45.798053	156.831178	185.951865	30.599805	228.416336	-180.806821	381.288022	0.920790	0.906137	0.808162	0.875323	0.985545	0.897890	1.064499	485.143100	236891.400834	36.606004	954.551518	986.338804	92.032273	1675614621.936162	0.000000
131.000000	1.417935	46.252693	-8.297180	68.108222	66.331494	-13.950530	190.093277	-32.856701	126.954244	131.007787	-123.477097	236.425924	26.259155	134.421228	197.095692	-30.630549	0.917131	0.937035	0.945734	0.949732	0.903830	0.993776	0.988982	513.822719	247219.109985	36.597909	1075.984703	1099.621099	99.490348	1675614621.940163	0.000000
132.000000	0.047052	50.194537	-3.302506	38.827854	100.885545	-26.109836	143.756276	88.455875	-28.078268	202.107705	85.039977	79.399784	600.714782	-140.273631	342.071766	191.517815	0.822378	0.982547	0.962495	0.974751	0.962689	0.878217	1.036067	493.602283	274732.624831	36.598809	1032.172259	933.864925	85.440945	1675614621.944121	0.000000
133.000000	-0.498653	49.435074	14.730964	5.995443	128.116589	-7.520506	58.088853	168.813286	-67.234994	134.226341	454.033287	-44.632718	414.302678	188.224668	-86.970745	268.987665	0.965119	0.964913	0.880655	0.806729	0.962334	0.990187	0.912346	512.964056	268074.684330	36.607409	947.649811	1006.457119	94.384622	1675614621.948164	0.000000
134.000000	-1.401513	47.263978	28.751874	-11.391279	109.795053	59.900614	-6.888683	152.434010	185.887072	-45.499407	197.826466	125.653834	18.391889	393.880505	167.850873	-114.549942	0.952667	0.960214	0.863263	0.815415	0.962451	0.904177	1.026463	530.098428	255255.129664	36.602049	1044.097263	1032.170522	86.874112	1675614621.952171	0.000000
135.000000	-3.056337	41.259687	43.332226	-22.332639	85.711600	102.708867	-9.668159	82.335482	401.949312	-5.179107	60.299700	389.353952	92.368999	-13.495014	484.028284	297.277735	0.939621	0.885227	0.892236	0.926757	0.816909	0.914979	0.926386	534.614503	238444.157116	36.592260	1060.074540	989.242188	95.310459	1675614621.956194	0.000000
136.000000	-4.046511	35.619724	59.512558	-9.691015	39.331233	166.202415	35.150545	9.652694	385.405774	148.838619	-117.556644	132.265852	383.378358	113.554725	-3.647222	605.319557	0.969056	0.886885	0.917280	0.928834	0.884003	0.889526	0.924633	493.343394	235248.421875	36.591830	908.652358	966.754530	80.910316	1675614621.960207	0.000000
137.000000	-4.280696	28.967772	64.865337	13.413647	-12.072031	118.128177	139.570847	-17.215723	56.233835	213.473239	109.406196	-136.252182	201.984490	597.560208	94.097651	77.151404	0.879928	0.903565	0.866930	0.936008	0.963858	0.849887	1.069921	498.422037	241938.710083	36.594089	981.173288	1047.476229	95.027479	1675614621.964152	0.000000
138.000000	-4.709768	22.011404	74.807152	34.121343	-9.725863	71.396023	140.021093	66.406958	-51.535104	118.068940	245.361168	94.099036	-9.671742	212.874841	333.305946	118.696486	0.938529	0.890061	0.857611	0.842664	0.832792	0.966019	1.010207	533.534943	260516.691554	36.603602	1012.145435	977.007463	81.017382	1675614621.968166	0.000000
139.000000	-4.301539	15.187297	74.113524	64.067510	-1.611355	8.088697	278.300874	187.918861	31.597390	-47.067045	193.225704	538.893336	110.267888	20.145935	128.252769	504.165335	0.993833	0.936282	0.866819	0.980648	0.995086	0.851458	1.015425	488.433053	277478.810941	36.593783	954.754813	1008.497028	88.705856	1675614621.972171	0.000000
140.000000	-4.249409	8.840031	59.002859	76.447385	13.856615	-1.370950	143.215699	193.203057	151.414514	23.429403	-64.874004	353.001147	234.168400	159.133069	-153.587997	5.902084	0.869029	0.874074	0.961343	0.875718	0.965563	0.965320	0.997648	460.971881	250061.585239	36.597511	1020.764798	1097.027438	89.470447	1675614621.976172	0.000000
141.000000	-3.176134	1.140503	51.479849	104.418595	66.885723	-32.232416	-2.067888	101.626386	191.362230	157.786023	37.287376	-120.089137	135.106439	331.989027	195.332353	127.296944	0.950144	0.890702	0.815776	0.872438	0.921615	0.807682	0.961211	544.198691	261956.326261	36.591932	964.632747	1042.140926	97.619526	1675614621.980172	0.000000
142.000000	-2.712769	-2.982640	36.013609	90.797711	103.322894	37.914666	-12.865346	0.435786	138.741800	181.365143	247.847439	27.410783	-38.806475	-10.908270	198.310936	232.384672	0.999555	0.878842	0.973034	0.940258	0.920137	0.996047	0.999460	506.092306	242559.966664	36.596828	975.242329	1077.331930	91.801393	1675614621.984148	0.000000
143.000000	-1.869121	-8.626533	21.114965	71.394278	108.275433	101.002750	15.288785	-45.906388	12.097846	122.675049	260.838817	195.719674	144.920586	-10.078062	-190.833379	76.009892	0.914376	0.924302	0.807683	0.872767	0.969023	0.903830	1.027844	530.037969	235592.099877	36.596366	1062.548926	953.960114	82.266410	1675614621.988167	0.000000
144.000000	-1.424957	-6.234890	3.170862	54.824252	109.110693	139.323544	111.444930	36.294114	-2.100913	-18.399875	71.396467	162.879134	397.883504	275.235648	324.697802	29.802750	0.867514	0.813877	0.883168	0.842291	0.833416	0.909692	0.992160	485.594872	239429.467060	36.602376	1021.869600	1036.663797	92.165676	1675614621.992171	0.000000
145.000000	0.662720	-7.463975	-3.298331	22.874944	74.798753	120.020996	189.167141	168.435426	80.046917	29.345944	-77.294127	-81.508548	102.421087	271.949577	642.442948	312.004184	0.924013	0.963402	0.891217	0.897462	0.952674	0.920113	0.976959	544.979366	275845.514425	36.596793	991.519790	1078.231687	88.346206	1675614621.996184	0.000000
146.000000	2.066971	-5.748544	-8.056537	6.287321	34.175366	99.060152	163.687960	203.851806	173.882781	141.471208	92.437586	51.544394	-51.283232	78.551760	-2.494863	140.000642	0.814343	0.832748	0.833248	0.921610	0.848429	0.926844	1.074387	508.976664	259510.855549	36.593690	984.194289	1097.758799	95.979980	1675614622.000166	0.000000
147.000000	2.989414	-4.078887	-12.691566	-8.216361	2.156905	30.526445	76.036797	118.175361	157.013358	299.022790	285.953373	214.085637	203.717862	107.453475	-3.612143	-42.886766	0.836776	0.964504	0.968394	0.886918	0.894703	0.954852	1.084820	541.105473	254978.369428	36.595645	1076.351630	1039.503310	81.402917	1675614622.004168	0.000000
148.000000	4.794146	1.711709	-4.106008	-21.743362	-33.671023	2.468390	-23.385535	43.532644	71.778672	112.765907	223.587996	240.387067	267.356936	317.576605	475.142394	428.354557	0.999463	0.926084	0.902425	0.984441	0.918920	0.996688	0.965341	510.227602	274237.283945	36.596972	959.728634	982.692814	80.509617	1675614622.008176	0.000000
149.000000	6.488297	7.701710	8.044895	-4.133615	1.646160	-13.767712	-60.623878	-76.995335	-46.044379	-89.480116	46.245357	-44.748008	17.954442	120.901549	143.092094	396.299658	0.878275	0.842834	0.993158	0.994330	0.808097	0.877258	1.011733	528.594375	248387.053365	36.609594	1033.464329	1029.974595	96.529649	1675614622.012193	0.000000
150.000000	8.298461	14.061863	18.817723	18.012284	24.164647	27.645048	17.033389	21.412063	37.020473	13.345356	-27.742349	-83.305336	9.886592	-22.554540	-182.156425	-167.979456	0.964556	0.985288	0.877098	0.970921	0.851540	0.911763	1.021850	473.597302	259619.369032	36.601995	1016.835269	1054.000547	84.842130	1675614622.016189	0.000000
151.000000	10.000000	21.391118	33.608952	49.005165	64.283380	85.839266	102.083553	123.073428	143.803240	332.047635	210.858542	236.384134	406.782123	289.582135	373.415752	652.249312	0.939970	0.857399	0.927853	0.824128	0.818658	0.986803	1.086896	538.157561	268933.004948	36.604834	984.653304	961.623474	88.357748	1675614622.020180	0.000000
152.000000	11.693529	27.639210	47.030793	73.445061	95.522840	121.318380	146.804869	167.933283	183.020902	274.088665	190.094589	301.799803	633.225501	626.431597	297.177818	249.436012	0.999219	0.905655	0.896733	0.975680	0.971418	0.807140	0.930603	511.419337	246471.144265	36.600578	914.826028	975.208362	96.112301	1675614622.024153	0.000000
153.000000	13.601530	33.785010	63.676021	92.878622	127.412989	126.912306	147.741728	187.037920	124.486858	115.051959	174.462317	61.822022	84.709308	-77.669605	-161.330805	62.343250	0.908435	0.836729	0.822765	0.913134	0.939506	0.941302	0.940241	466.213537	255703.341524	36.602741	1052.578938	918.000030	85.938165	1675614622.028181	0.000000
154.000000	15.219838	40.135193	65.375074	86.938648	104.655817	118.492183	94.788485	119.956275	-15.445599	-16.257618	-11.828319	-64.133187	43.805012	117.871661	173.101567	292.039889	0.929961	0.801451	0.986610	0.808290	0.913164	0.981758	0.914288	526.012945	275857.274633	36.600109	994.070058	1001.555825	96.752244	1675614622.032185	0.000000
155.000000	16.636291	42.700969	68.035456	89.217144	76.824251	47.039931	20.458597	-62.439276	-8.943495	-39.504349	125.949155	174.881598	300.072662	469.043563	356.617347	286.154180	0.876792	0.915790	0.997711	0.964521	0.839919	0.811153	1.026602	450.351308	232365.289901	36.603870	1054.195057	1010.116502	96.688796	1675614622.036182	0.000000
156.000000	18.118469	44.638796	73.181044	64.405070	35.685900	13.042071	-11.954089	-51.161096	51.819938	138.286474	281.232972	296.204909	203.371771	136.345198	99.513414	-95.637235	0.943054	0.842784	0.992552	0.831095	0.807433	0.809636	1.048631	482.588883	253353.003955	36.598832	1030.822688	976.272764	91.615941	1675614622.040185	0.000000
157.000000	19.277601	50.541055	57.326208	38.393237	-5.453319	-0.708292	26.269992	87.128113	180.120314	250.874343	238.343043	78.837618	-0.018521	-17.284618	86.099044	222.709915	0.834452	0.888738	0.875785	0.961681	0.929258	0.933953	1.075865	534.628760	257778.218630	36.590562	1079.614991	1054.967529	84.533283	1675614622.044158	0.000000
158.000000	20.370007	44.836748	44.796614	8.243103	-18.206840	13.716995	88.178649	160.185101	234.394052	131.097887	34.314686	-73.808048	21.850204	249.771675	236.942118	410.383263	0.931749	0.822595	0.978667	0.958196	0.864979	0.931211	1.055387	500.605519	260908.919265	36.593625	1078.627636	965.032740	94.162490	1675614622.048184	0.000000
159.000000	22.317298	43.977766	31.144418	-3.981289	-4.541655	59.897172	148.429633	151.860718	86.143893	-83.648115	23.407191	263.613067	226.214789	259.595536	248.428134	-182.555836	0.959449	0.919912	0.813804	0.919930	0.944521	0.987342	0.993332	548.485350	231006.145823	36.603423	976.781734	950.486675	87.266420	1675614622.052184	0.000000
160.000000	22.554688	42.160316	16.722545	-20.639306	19.607732	130.624469	152.957308	82.881879	21.716629	-35.867292	174.289255	721.402604	184.049989	13.001087	-186.853983	158.837577	0.995434	0.979883	0.987178	0.861805	0.894359	0.971626	0.959741	531.118184	239042.731381	36.595966	920.996439	913.654880	86.494747	1675614622.056177	0.000000
161.000000	23.315757	34.183602	-0.944589	-2.459403	64.365553	157.265763	97.254927	15.446070	29.160776	180.297823	275.179288	255.253276	-1.441310	93.336022	605.047068	228.655719	0.834818	0.926862	0.868732	0.930447	0.916531	0.952973	0.962343	474.302278	242397.247064	36.594995	991.906358	965.275028	82.358132	1675614622.060212	0.000000
162.000000	24.371503	29.158156	-3.117712	13.598573	113.295250	137.215620	26.789724	-37.317858	282.430281	305.263128	110.384122	-119.785369	80.403683	410.464594	280.684773	-69.654629	0.863404	0.804079	0.893561	0.829766	0.953741	0.876939	1.021451	546.275772	272578.768531	36.606324	1036.889291	911.098022	98.264527	1675614622.064194	0.000000
163.000000	24.149138	22.272629	-11.935234	34.684666	128.680795	71.290393	-2.495762	66.981696	399.419685	131.712310	-79.156232	81.445344	416.189624	177.399387	-97.901679	121.649418	0.905356	0.850352	0.844358	0.963058	0.812654	0.903667	0.985761	482.010160	264832.980669	36.590795	994.423613	1048.537792	90.056015	1675614622.068201	0.000000
164.000000	24.601414	15.180607	-6.908544	66.464905	109.660844	12.119811	-11.915473	198.216559	162.516686	-6.001222	78.643924	270.961671	168.472492	-113.404925	175.494093	883.769643	0.808048	0.990010	0.863377	0.853472	0.903716	0.871487	0.931478	473.552136	260280.558999	36.590551	914.020284	918.164777	97.379001	1675614622.072212	0.000000
165.000000	23.937209	7.699550	-8.251929	83.070106	75.135852	-7.634910	76.213891	174.103188	46.438346	-10.770508	193.484276	147.801112	45.953939	187.736047	302.795859	3.878488	0.936762	0.803690	0.921485	0.942837	0.880220	0.957437	1.054520	483.806104	264693.662874	36.596272	1010.832306	1075.481293	87.843611	1675614622.076179	0.000000
166.000000	23.478952	1.951229	7.717999	103.209266	33.870811	-1.698220	135.348062	114.203598	5.961962	140.651552	174.651061	-118.010817	126.541661	329.529679	37.818032	157.675095	0.874949	0.884142	0.997234	0.866117	0.946972	0.928685	0.944852	530.428141	228214.272305	36.606992	992.180506	918.723943	97.782590	1675614622.080188	0.000000
167.000000	23.381056	-1.024882	22.904110	92.364473	-11.300880	38.458106	176.810113	7.265970	37.784404	199.479500	-15.881373	86.728765	211.982378	99.268551	-20.681065	530.401082	0.958375	0.921215	0.816958	0.979513	0.838211	0.837071	1.032316	515.810576	269157.004346	36.607080	1048.817684	1079.201521	83.272796	1675614622.084163	0.000000
168.000000	22.067564	-5.130660	40.515217	74.966561	-34.575834	104.036192	125.541636	-31.434698	163.508369	113.173766	-10.758333	247.552890	112.423221	68.312620	460.188861	115.591998	0.861804	0.972328	0.949403	0.875650	0.889882	0.925590	0.966672	464.315404	256177.402951	36.602441	1056.892813	1012.312100	82.490214	1675614622.088189	0.000000
169.000000	20.767826	-7.498376	56.063327	52.052050	-9.184628	123.359083	42.337600	43.734867	192.064670	-62.711290	161.242124	263.080663	21.017805	502.713795	134.408859	-109.373830	0.942035	0.985204	0.970199	0.912796	0.929454	0.872144	1.007630	541.916421	254690.435665	36.609268	1051.998719	1071.958830	83.657594	1675614622.092193	0.000000
170.000000	19.614706	-9.442460	66.761920	27.135989	21.008184	133.202838	-28.707104	150.148456	105.832671	-39.003874	224.864513	37.150571	361.341197	491.467487	-128.338702	464.530268	0.863489	0.817737	0.996931	0.902738	0.939637	0.963239	0.981889	486.210613	253612.299918	36.598744	1038.748150	1010.102746	80.856836	1675614622.096195	0.000000
171.000000	18.142047	-4.711746	75.831788	1.408154	66.289133	96.683567	5.107913	181.042292	-48.093690	151.106907	125.325767	24.218103	712.016410	-157.412362	368.108270	136.668266	0.805893	0.821082	0.900737	0.847309	0.855398	0.970443	0.964833	511.351617	265252.282087	36.599606	1017.709518	1083.086740	95.635168	1675614622.100198	0.000000
172.000000	16.941581	-2.852326	66.982593	-5.435953	114.813235	35.516384	61.210852	120.589166	-62.691370	247.947849	-29.798546	281.781778	172.675511	116.597372	199.881129	-134.143189	0.820839	0.998798	0.822418	0.827571	0.983300	0.946313	1.004918	502.770374	239868.925966	36.602678	959.333083	910.962540	89.185844	1675614622.104172	0.000000
173.000000	14.951027	2.924176	67.600879	-5.284907	128.534110	-22.373984	122.790531	24.953306	108.767225	136.531374	65.595285	282.483094	-86.083258	200.483038	-146.167801	406.440971	0.934188	0.984343	0.930870	0.853989	0.825170	0.894478	1.011176	547.809739	249050.598311	36.602913	1057.056292	1081.031561	86.478927	1675614622.108213	0.000000
174.000000	13.423646	7.053688	58.830382	-10.732045	121.234595	-14.478740	320.272856	-16.515166	196.180789	-25.179689	199.922899	-41.684821	239.102153	111.294975	167.330851	194.913410	0.808112	0.840336	0.921426	0.843544	0.886081	0.959480	1.096545	507.715924	251848.958975	36.600595	965.159392	1003.699143	93.400657	1675614622.112200	0.000000
175.000000	11.729861	13.838185	40.587300	18.220722	81.248693	15.097692	228.692836	17.230176	164.875588	4.731051	493.934997	-17.833376	206.327176	-62.272699	744.304675	-113.360527	0.900724	0.808119	0.943673	0.963173	0.814639	0.875420	1.064196	502.179845	236411.340352	36.606686	1010.888761	1060.083254	93.427130	1675614622.116185	0.000000
176.000000	10.000000	21.438196	25.935735	47.015521	36.585821	83.658446	86.919537	107.964980	47.582007	345.203545	41.516222	173.816810	-26.426678	313.813595	65.199467	214.882916	0.809656	0.986009	0.814550	0.816766	0.844085	0.919574	0.960077	532.479650	255604.145573	36.594536	915.763673	1041.059437	83.892066	1675614622.120212	0.000000
177.000000	8.307410	28.137886	9.852437	78.054258	7.368693	117.811109	-50.839520	227.312731	-6.233015	288.525946	-68.279881	263.686916	-19.573421	193.348361	38.542994	264.043955	0.844967	0.944631	0.847172	0.904365	0.902976	0.809246	1.096954	524.589796	237948.787592	36.608181	951.079793	974.156351	92.450318	1675614622.124177	0.000000
178.000000	6.395664	35.357362	-0.640052	91.352147	-20.593687	137.036672	-35.948793	159.543926	6.725581	130.910040	125.452807	45.443861	303.542571	-68.373768	506.818552	-202.360131	0.884077	0.930571	0.935637	0.978049	0.889943	0.995794	0.931797	484.195307	251633.614272	36.592069	1098.928792	1057.697686	92.600740	1675614622.128203	0.000000
179.000000	4.700252	39.730722	-4.959264	88.641700	-9.673645	111.764623	53.509331	59.373774	167.964478	-76.095511	331.988457	-69.494393	234.935863	68.751423	143.780940	585.266316	0.973139	0.957022	0.957854	0.904639	0.934566	0.914107	1.075439	459.703129	229885.816546	36.597810	1094.622972	1028.821972	99.872927	1675614622.132205	0.000000
