WORD,Channel_1,Channel_2,Channel_3,Channel_4,Channel_5,Channel_6,Channel_7,Channel_8
$SILENCE,32912.40726857272,-2224.0432767919633,5927.928498736442,36799.42033283953,-187500.02235174447,-187500.02235174447,-187500.02235174447,-187500.02235174447
$SILENCE,32833.773831578954,-2037.4732658235152,5812.079407224585,36959.70469232854,-187500.02235174447,-187500.02235174447,-187500.02235174447,-187500.02235174447
$SILENCE,31972.538765971516,-1971.8485441027337,5578.973064300188,37030.73853620751,-187500.02235174447,-187500.02235174447,-187500.02235174447,-187500.02235174447
$SILENCE,31952.08691979491,-2192.6167240878017,5680.137059704907,36840.36872868166,-187500.02235174447,-187500.02235174447,-187500.02235174447,-187500.02235174447
$SILENCE,32823.290863429414,-2242.662279923234,5924.687495790422,36783.930573932004,-187500.02235174447,-187500.02235174447,-187500.02235174447,-187500.02235174447
$SILENCE,32943.16326894322,-2063.1107167137525,5865.634186939501,36943.76789853191,-187500.02235174447,-187500.02235174447,-187500.02235174447,-187500.02235174447
$SILENCE,32123.63655848939,-1948.8709508026782,5618.1333205858855,37051.90563820668,-187500.02235174447,-187500.02235174447,-187500.02235174447,-187500.02235174447
$SILENCE,31852.934581391168,-2136.178569338151,5634.830073694,36883.976982113956,-187500.02235174447,-187500.02235174447,-187500.02235174447,-187500.02235174447
$SILENCE,32695.75180956743,-2246.3279660139046,5900.368797823048,36781.203661108455,-187500.02235174447,-187500.02235174447,-187500.02235174447,-187500.02235174447
$SILENCE,33010.77729592053,-2105.0425893119086,5890.645788984989,36907.043982391835,-187500.02235174447,-187500.02235174447,-187500.02235174447,-187500.02235174447
$SILENCE,32268.14058639295,-1957.5434276513372,5639.278070840606,37043.72489973604,-187500.02235174447,-187500.02235174447,-187500.02235174447,-187500.02235174447
$SILENCE,31777.430388621142,-2106.0037143234867,5590.126584783386,36918.711592997504,-187500.02235174447,-187500.02235174447,-187500.02235174447,-187500.02235174447
$SILENCE,32529.834810475688,-2264.187009833695,5855.531198445702,36776.241573839376,-187500.02235174447,-187500.02235174447,-187500.02235174447,-187500.02235174447
$SILENCE,33038.80638346748,-2135.887996660232,5918.652524787489,36877.0032378439,-187500.02235174447,-187500.02235174447,-187500.02235174447,-187500.02235174447
$SILENCE,32440.830164054652,-1959.711546863502,5694.12925173393,37042.182629368624,-187500.02235174447,-187500.02235174447,-187500.02235174447,-187500.02235174447
$SILENCE,31772.42359786315,-2062.55192310237,5569.9429595402435,36961.850459796246,-187500.02235174447,-187500.02235174447,-187500.02235174447,-187500.02235174447
$SILENCE,32370.891555653998,-2253.413469006237,5812.928773513887,36785.07051289923,-187500.02235174447,-187500.02235174447,-187500.02235174447,-187500.02235174447
$SILENCE,33042.87440095835,-2154.059964902397,5949.676746091455,36861.28996149182,-187500.02235174447,-187500.02235174447,-187500.02235174447,-187500.02235174447
$SILENCE,32604.735506145422,-1971.9826545694657,5744.308918036094,37021.619024469735,-187500.02235174447,-187500.02235174447,-187500.02235174447,-187500.02235174447
$SILENCE,31806.599415135315,-2026.096227895764,5558.409459401305,36989.521919431914,-187500.02235174447,-187500.02235174447,-187500.02235174447,-187500.02235174447
$SILENCE,32207.097972285508,-2242.662279923234,5762.682051978356,36792.267774613836,-187500.02235174447,-187500.02235174447,-187500.02235174447,-187500.02235174447
$SILENCE,32982.47998744011,-2204.373741671293,5938.880853519542,36816.43001037002,-187500.02235174447,-187500.02235174447,-187500.02235174447,-187500.02235174447
$SILENCE,32731.91693209612,-2009.1759573430966,5780.7646132427,36988.31492523133,-187500.02235174447,-187500.02235174447,-187500.02235174447,-187500.02235174447
$SILENCE,31879.846081715357,-1989.0146838444095,5567.774840328078,37023.787143681904,-187500.02235174447,-187500.02235174447,-187500.02235174447,-187500.02235174447
$SILENCE,32068.651267129335,-2214.119102253807,5728.1933102838175,36830.489257632405,-187500.02235174447,-187500.02235174447,-187500.02235174447,-187500.02235174447
$SILENCE,32921.236207632566,-2228.334811727382,5939.84197853112,36801.61080379615,-187500.02235174447,-187500.02235174447,-187500.02235174447,-187500.02235174447
$SILENCE,32878.27615478947,-2038.1438181571746,5834.6099656355345,36966.812547065325,-187500.02235174447,-187500.02235174447,-187500.02235174447,-187500.02235174447
$SILENCE,32002.959490175188,-1966.6629393891026,5586.393843459349,37037.93579792211,-187500.02235174447,-187500.02235174447,-187500.02235174447,-187500.02235174447
$SILENCE,31935.546628897984,-2178.311607636405,5671.710452045257,36853.846830588205,-187500.02235174447,-187500.02235174447,-187500.02235174447,-187500.02235174447
$SILENCE,32819.62517733874,-2238.3260414989045,5925.715676035366,36788.02094316732,-187500.02235174447,-187500.02235174447,-187500.02235174447,-187500.02235174447
$SILENCE,32977.62965889331,-2069.3468534167832,5871.669157942433,36933.0167094489,-187500.02235174447,-187500.02235174447,-187500.02235174447,-187500.02235174447
$SILENCE,32150.011616946653,-1952.9166165490888,5612.768901916612,37045.82596371484,-187500.02235174447,-187500.02235174447,-187500.02235174447,-187500.02235174447
$SILENCE,31834.270874770988,-2143.018203141475,5617.35100952995,36884.69223793653,-187500.02235174447,-187500.02235174447,-187500.02235174447,-187500.02235174447
$SILENCE,32671.746036022432,-2256.766230674533,5891.271637829738,36772.79940519326,-187500.02235174447,-187500.02235174447,-187500.02235174447,-187500.02235174447
$SILENCE,33030.75975546357,-2108.149481791196,5901.6428472570005,36903.601813745714,-187500.02235174447,-187500.02235174447,-187500.02235174447,-187500.02235174447
$SILENCE,32304.931557766387,-1949.8991310476222,5655.728954759712,37052.33032135133,-187500.02235174447,-187500.02235174447,-187500.02235174447,-187500.02235174447
$SILENCE,31778.838548521824,-2096.2807054854284,5590.573619672492,36927.45112507953,-187500.02235174447,-187500.02235174447,-187500.02235174447,-187500.02235174447
$SILENCE,32509.09239162116,-2262.4212220217255,5852.938396088886,36773.40290229356,-187500.02235174447,-187500.02235174447,-187500.02235174447,-187500.02235174447
$SILENCE,33032.21261885317,-2147.600310754813,5911.164690394961,36860.59705741371,-187500.02235174447,-187500.02235174447,-187500.02235174447,-187500.02235174447
$SILENCE,32464.56771666619,-1967.0205673003875,5693.7939755671,37027.81045768386,-187500.02235174447,-187500.02235174447,-187500.02235174447,-187500.02235174447
$SILENCE,31776.558670587383,-2058.416850378138,5570.4123461738045,36964.77853831989,-187500.02235174447,-187500.02235174447,-187500.02235174447,-187500.02235174447
$SILENCE,32354.664189179446,-2250.127762571307,5821.7577125737325,36788.400922823064,-187500.02235174447,-187500.02235174447,-187500.02235174447,-187500.02235174447
$SILENCE,33037.17470612225,-2166.196962141629,5944.692307077922,36847.58834214072,-187500.02235174447,-187500.02235174447,-187500.02235174447,-187500.02235174447
$SILENCE,32621.94634937601,-1983.6726169195913,5740.151493567407,37014.622928455225,-187500.02235174447,-187500.02235174447,-187500.02235174447,-187500.02235174447
$SILENCE,31802.57610113336,-2021.6482307491578,5550.362831397394,36997.52384394692,-187500.02235174447,-187500.02235174447,-187500.02235174447,-187500.02235174447
$SILENCE,32183.248660951696,-2236.895529853765,5759.955139154808,36802.035486940804,-187500.02235174447,-187500.02235174447,-187500.02235174447,-187500.02235174447
$SILENCE,32977.160272259745,-2205.58073587188,5940.289013420226,36817.88287375961,-187500.02235174447,-187500.02235174447,-187500.02235174447,-187500.02235174447
$SILENCE,32755.252153307458,-2012.416960289116,5788.565372057602,36988.40433220915,-187500.02235174447,-187500.02235174447,-187500.02235174447,-187500.02235174447
$SILENCE,31886.350439351852,-1984.969018097999,5566.612549616403,37019.69677444658,-187500.02235174447,-187500.02235174447,-187500.02235174447,-187500.02235174447
$SILENCE,32026.49587708663,-2209.5593463849245,5703.449929171793,36820.3415656497,-187500.02235174447,-187500.02235174447,-187500.02235174447,-187500.02235174447
$SILENCE,32881.04777110193,-2224.087980280874,5933.6952488059105,36800.47086482893,-187500.02235174447,-187500.02235174447,-187500.02235174447,-187500.02235174447
$SILENCE,32871.57063145288,-2044.2681961379287,5829.759637088733,36952.70859631403,-187500.02235174447,-187500.02235174447,-187500.02235174447,-187500.02235174447
$SILENCE,32017.555179304505,-1964.7630411104014,5589.098404538442,37040.66271074566,-187500.02235174447,-187500.02235174447,-187500.02235174447,-187500.02235174447
$SILENCE,31903.896558749268,-2175.0706046903856,5661.942739718287,36860.73116788044,-187500.02235174447,-187500.02235174447,-187500.02235174447,-187500.02235174447
$SILENCE,32775.21226110605,-2246.4397247361812,5916.774978253243,36784.51171928784,-187500.02235174447,-187500.02235174447,-187500.02235174447,-187500.02235174447
$SILENCE,32965.3809029318,-2075.2700656974393,5876.966521378341,36932.86024723772,-187500.02235174447,-187500.02235174447,-187500.02235174447,-187500.02235174447
$SILENCE,32159.64521880689,-1955.1517909946194,5623.542442744069,37050.60923702827,-187500.02235174447,-187500.02235174447,-187500.02235174447,-187500.02235174447
$SILENCE,31821.798601364924,-2133.228139070051,5621.039047365075,36896.44925552002,-187500.02235174447,-187500.02235174447,-187500.02235174447,-187500.02235174447
$SILENCE,32639.894800173617,-2248.3843265037926,5890.265809329249,36784.44466405448,-187500.02235174447,-187500.02235174447,-187500.02235174447,-187500.02235174447
$SILENCE,33012.43132501022,-2112.5974789378024,5896.591353010101,36897.678601465064,-187500.02235174447,-187500.02235174447,-187500.02235174447,-187500.02235174447
$SILENCE,32315.503932893746,-1959.2198084854854,5655.818361737533,37044.75307998098,-187500.02235174447,-187500.02235174447,-187500.02235174447,-187500.02235174447
$SILENCE,31765.80748150438,-2099.029970053431,5578.302511966528,36930.22274139199,-187500.02235174447,-187500.02235174447,-187500.02235174447,-187500.02235174447
$SILENCE,32477.03999007225,-2263.3823470333036,5845.361154718537,36781.60599250865,-187500.02235174447,-187500.02235174447,-187500.02235174447,-187500.02235174447
$SILENCE,33042.85204921389,-2144.895749675721,5932.93528949443,36877.09264482172,-187500.02235174447,-187500.02235174447,-187500.02235174447,-187500.02235174447
$SILENCE,32492.350935024137,-1961.0750032752758,5712.010647298175,37039.25455084498,-187500.02235174447,-187500.02235174447,-187500.02235174447,-187500.02235174447
$SILENCE,31770.590754817815,-2053.7900392758893,5565.852590304922,36968.66774185512,-187500.02235174447,-187500.02235174447,-187500.02235174447,-187500.02235174447
$SILENCE,32308.798409557156,-2249.6807276822005,5798.556601829124,36791.0831321577,-187500.02235174447,-187500.02235174447,-187500.02235174447,-187500.02235174447
$SILENCE,33009.36913601984,-2185.017130972997,5934.455208117391,36842.581551382726,-187500.02235174447,-187500.02235174447,-187500.02235174447,-187500.02235174447
$SILENCE,32630.59647448021,-1995.3178757808062,5745.202987814306,37008.74441966348,-187500.02235174447,-187500.02235174447,-187500.02235174447,-187500.02235174447
$SILENCE,31810.24274948153,-2018.3848760586832,5551.972156998177,36990.19247176558,-187500.02235174447,-187500.02235174447,-187500.02235174447,-187500.02235174447
$SILENCE,32152.559715814557,-2237.9684135876196,5751.193255328329,36800.51556831784,-187500.02235174447,-187500.02235174447,-187500.02235174447,-187500.02235174447
$SILENCE,32954.920286526714,-2204.351389926838,5943.373554155059,36822.68849881751,-187500.02235174447,-187500.02235174447,-187500.02235174447,-187500.02235174447
$SILENCE,32781.5378047869,-2006.0914166082641,5807.139671699962,36996.13803579069,-187500.02235174447,-187500.02235174447,-187500.02235174447,-187500.02235174447
$SILENCE,31907.674003562213,-1987.8970966216443,5572.513410152604,37029.19626584009,-187500.02235174447,-187500.02235174447,-187500.02235174447,-187500.02235174447
$SILENCE,32010.469676312172,-2210.989858030064,5706.087435017519,36830.846885543695,-187500.02235174447,-187500.02235174447,-187500.02235174447,-187500.02235174447
$SILENCE,32862.11584354828,-2235.3309077418935,5920.977106210841,36793.586527536696,-187500.02235174447,-187500.02235174447,-187500.02235174447,-187500.02235174447
$SILENCE,32872.017666341984,-2051.5995683192696,5828.843215566065,36954.89906727065,-187500.02235174447,-187500.02235174447,-187500.02235174447,-187500.02235174447
$SILENCE,32027.09937418692,-1961.8573143312115,5587.8690585934,37042.2943880909,-187500.02235174447,-187500.02235174447,-187500.02235174447,-187500.02235174447
$SILENCE,31895.022916200513,-2174.1765349121733,5653.091448913986,36861.893458592116,-187500.02235174447,-187500.02235174447,-187500.02235174447,-187500.02235174447
$SILENCE,32757.286162052893,-2253.502875984058,5912.5057950622795,36785.02580941031,-187500.02235174447,-187500.02235174447,-187500.02235174447,-187500.02235174447
$SILENCE,32969.91830705623,-2085.060129768864,5877.301797545171,36926.66881402359,-187500.02235174447,-187500.02235174447,-187500.02235174447,-187500.02235174447
$SILENCE,32178.73360857172,-1958.3257387072729,5619.809701420034,37045.42363231464,-187500.02235174447,-187500.02235174447,-187500.02235174447,-187500.02235174447
$SILENCE,31809.795714592427,-2137.8773019167547,5606.8233378915,36899.846720677226,-187500.02235174447,-187500.02235174447,-187500.02235174447,-187500.02235174447
$SILENCE,32611.82100913775,-2256.7438789300777,5882.129774347517,36783.50589078735,-187500.02235174447,-187500.02235174447,-187500.02235174447,-187500.02235174447
$SILENCE,33012.02899361002,-2113.6256591827464,5906.090844403607,36899.73496195495,-187500.02235174447,-187500.02235174447,-187500.02235174447,-187500.02235174447
$SILENCE,32344.002407074262,-1958.7280701074685,5667.195399665285,37044.86483870326,-187500.02235174447,-187500.02235174447,-187500.02235174447,-187500.02235174447
$SILENCE,31780.313763655875,-2083.4955076569927,5586.77382311509,36940.459840352516,-187500.02235174447,-187500.02235174447,-187500.02235174447,-187500.02235174447
$SILENCE,32454.062396772195,-2264.566989489435,5832.285384212182,36772.06179762624,-187500.02235174447,-187500.02235174447,-187500.02235174447,-187500.02235174447
$SILENCE,33026.15529610578,-2158.642072515735,5916.193832897406,36858.11601377917,-187500.02235174447,-187500.02235174447,-187500.02235174447,-187500.02235174447
$SILENCE,32499.503493249835,-1970.8874190911556,5703.3605221939715,37031.29732981889,-187500.02235174447,-187500.02235174447,-187500.02235174447,-187500.02235174447
$SILENCE,31779.911432255678,-2046.4363153500935,5560.1975989577295,36979.08365477129,-187500.02235174447,-187500.02235174447,-187500.02235174447,-187500.02235174447
$SILENCE,32308.574892112603,-2244.025736335008,5801.775253030688,36801.3872863516,-187500.02235174447,-187500.02235174447,-187500.02235174447,-187500.02235174447
$SILENCE,33018.91333090226,-2176.7469855245336,5944.133513466539,36849.91292356407,-187500.02235174447,-187500.02235174447,-187500.02235174447,-187500.02235174447
$SILENCE,32661.531288806356,-1988.67940767758,5750.723868694767,37011.918367376136,-187500.02235174447,-187500.02235174447,-187500.02235174447,-187500.02235174447
$SILENCE,31837.02013933899,-2006.940782897566,5556.442505889238,37005.50341671746,-187500.02235174447,-187500.02235174447,-187500.02235174447,-187500.02235174447
$SILENCE,32135.751203984168,-2235.174445530706,5739.4585894892925,36797.45337932747,-187500.02235174447,-187500.02235174447,-187500.02235174447,-187500.02235174447
$SILENCE,32955.344969671365,-2213.984991787075,5937.830321530142,36812.607862068166,-187500.02235174447,-187500.02235174447,-187500.02235174447,-187500.02235174447
$SILENCE,32793.83126423732,-2021.581175515792,5801.015293719208,36981.51999491692,-187500.02235174447,-187500.02235174447,-187500.02235174447,-187500.02235174447
$SILENCE,31935.814849831448,-1980.8115936293118,5573.273369464085,37026.24583557199,-187500.02235174447,-187500.02235174447,-187500.02235174447,-187500.02235174447
$SILENCE,32005.395830320816,-2205.9830672720755,5687.937818519809,36827.15884770857,-187500.02235174447,-187500.02235174447,-187500.02235174447,-187500.02235174447
$SILENCE,32867.815538384384,-2234.570948430413,5924.329867879137,36796.96164094945,-187500.02235174447,-187500.02235174447,-187500.02235174447,-187500.02235174447
$SILENCE,32913.14487613975,-2050.9737194745207,5849.317413487126,36961.93986677407,-187500.02235174447,-187500.02235174447,-187500.02235174447,-187500.02235174447
$SILENCE,32067.19840373974,-1957.968110795988,5597.301494753539,37050.89980970619,-187500.02235174447,-187500.02235174447,-187500.02235174447,-187500.02235174447
$SILENCE,31879.108474148332,-2173.014244200497,5633.310155071039,36856.93137132304,-187500.02235174447,-187500.02235174447,-187500.02235174447,-187500.02235174447
$SILENCE,32743.495135723966,-2252.5864544613905,5902.246344357293,36779.862556441134,-187500.02235174447,-187500.02235174447,-187500.02235174447,-187500.02235174447
$SILENCE,32997.14273180279,-2087.295304214395,5886.868344172042,36924.88067446717,-187500.02235174447,-187500.02235174447,-187500.02235174447,-187500.02235174447
$SILENCE,32226.633396939447,-1950.8826078036557,5637.40052430636,37049.938684694614,-187500.02235174447,-187500.02235174447,-187500.02235174447,-187500.02235174447
$SILENCE,31827.230075267566,-2115.056170827886,5610.310210026528,36902.640688734136,-187500.02235174447,-187500.02235174447,-187500.02235174447,-187500.02235174447
$SILENCE,32606.344831746203,-2253.994614362075,5872.831448654109,36777.87325118462,-187500.02235174447,-187500.02235174447,-187500.02235174447,-187500.02235174447
$SILENCE,33023.47308677114,-2122.6781156871457,5899.318265833648,36891.800092673315,-187500.02235174447,-187500.02235174447,-187500.02235174447,-187500.02235174447
$SILENCE,32372.45617776587,-1957.8340003292562,5668.69296654379,37046.83179221532,-187500.02235174447,-187500.02235174447,-187500.02235174447,-187500.02235174447
$SILENCE,31777.8997752547,-2086.445937925093,5569.451221162227,36935.5201048279,-187500.02235174447,-187500.02235174447,-187500.02235174447,-187500.02235174447
$SILENCE,32440.159611720996,-2264.9469691451754,5823.322334685604,36769.64780922506,-187500.02235174447,-187500.02235174447,-187500.02235174447,-187500.02235174447
$SILENCE,33037.912313689274,-2157.055098659408,5923.078170189639,36855.523211422355,-187500.02235174447,-187500.02235174447,-187500.02235174447,-187500.02235174447
$SILENCE,32544.139926927084,-1965.1877242550522,5720.996048569209,37028.972748395536,-187500.02235174447,-187500.02235174447,-187500.02235174447,-187500.02235174447
$SILENCE,31807.1582087467,-2028.130236641197,5573.586293886458,36985.31979147432,-187500.02235174447,-187500.02235174447,-187500.02235174447,-187500.02235174447
$SILENCE,32279.070589431598,-2249.3678032598264,5781.681034765367,36783.595297765176,-187500.02235174447,-187500.02235174447,-187500.02235174447,-187500.02235174447
$SILENCE,32999.06498182595,-2192.504965365525,5927.392056869514,36830.422202399044,-187500.02235174447,-187500.02235174447,-187500.02235174447,-187500.02235174447
$SILENCE,32676.059922702305,-1997.709512437524,5752.869636162476,37003.156483549654,-187500.02235174447,-187500.02235174447,-187500.02235174447,-187500.02235174447
$SILENCE,31843.211572553108,-2001.7998816728452,5551.48041862016,37009.817303397336,-187500.02235174447,-187500.02235174447,-187500.02235174447,-187500.02235174447
$SILENCE,32125.1341253679,-2226.703134382145,5741.447894745815,36821.816780783745,-187500.02235174447,-187500.02235174447,-187500.02235174447,-187500.02235174447
$SILENCE,32948.43828063468,-2211.503948152536,5940.780751798243,36819.4921993604,-187500.02235174447,-187500.02235174447,-187500.02235174447,-187500.02235174447
$SILENCE,32817.345299404304,-2023.5704807723143,5806.782043788677,36980.20124199406,-187500.02235174447,-187500.02235174447,-187500.02235174447,-187500.02235174447
$SILENCE,31953.584486673415,-1973.7484423814349,5577.1625729993075,37033.84542868679,-187500.02235174447,-187500.02235174447,-187500.02235174447,-187500.02235174447
$SILENCE,31992.968260403668,-2189.4874798640585,5690.105937731974,36839.87699030364,-187500.02235174447,-187500.02235174447,-187500.02235174447,-187500.02235174447
$SILENCE,32841.9992735385,-2236.090867053374,5919.121911421051,36787.708018744954,-187500.02235174447,-187500.02235174447,-187500.02235174447,-187500.02235174447
$SILENCE,32917.90579770873,-2065.323539414828,5849.16095127594,36942.203276420034,-187500.02235174447,-187500.02235174447,-187500.02235174447,-187500.02235174447
$SILENCE,32075.557956166027,-1964.29365447684,5594.284009252073,37042.85318170228,-187500.02235174447,-187500.02235174447,-187500.02235174447,-187500.02235174447
$SILENCE,31862.948162907145,-2165.146430152229,5628.146902101863,36870.968266840966,-187500.02235174447,-187500.02235174447,-187500.02235174447,-187500.02235174447
$SILENCE,32714.124943509694,-2253.3240620284155,5899.519431533746,36786.83630071119,-187500.02235174447,-187500.02235174447,-187500.02235174447,-187500.02235174447
$SILENCE,32994.840502123894,-2087.8317460813223,5888.7905941951985,36920.87971220967,-187500.02235174447,-187500.02235174447,-187500.02235174447,-187500.02235174447
$SILENCE,32231.99781560872,-1955.5317706503597,5633.3325068154945,37050.989216684015,-187500.02235174447,-187500.02235174447,-187500.02235174447,-187500.02235174447
$SILENCE,31798.798656320414,-2123.7509994210004,5599.15668954333,36909.16739811509,-187500.02235174447,-187500.02235174447,-187500.02235174447,-187500.02235174447
$SILENCE,32572.459587151956,-2259.604902220357,5872.049137598174,36778.99083840738,-187500.02235174447,-187500.02235174447,-187500.02235174447,-187500.02235174447
$SILENCE,33019.025089624534,-2129.338935534827,5905.844975214598,36885.943935626026,-187500.02235174447,-187500.02235174447,-187500.02235174447,-187500.02235174447
$SILENCE,32379.58638424711,-1957.3422619512394,5669.162353177351,37048.1952486271,-187500.02235174447,-187500.02235174447,-187500.02235174447,-187500.02235174447
$SILENCE,31779.218528177564,-2071.0455859953863,5575.217971231696,36955.30139867084,-187500.02235174447,-187500.02235174447,-187500.02235174447,-187500.02235174447
$SILENCE,32429.631940082545,-2253.055841094952,5837.96272730383,36783.32707683171,-187500.02235174447,-187500.02235174447,-187500.02235174447,-187500.02235174447
$SILENCE,33036.88413344433,-2160.050232416419,5931.258908660282,36852.39396719861,-187500.02235174447,-187500.02235174447,-187500.02235174447,-187500.02235174447
$SILENCE,32564.21179344795,-1969.5686661682923,5722.515967192169,37025.08354486031,-187500.02235174447,-187500.02235174447,-187500.02235174447,-187500.02235174447
$SILENCE,31806.9570430466,-2033.4723035660154,5562.589235614448,36986.57148916382,-187500.02235174447,-187500.02235174447,-187500.02235174447,-187500.02235174447
$SILENCE,32245.542972748637,-2254.5757597179127,5768.113525880996,36790.770207735324,-187500.02235174447,-187500.02235174447,-187500.02235174447,-187500.02235174447
$SILENCE,32995.01931607954,-2191.7897095429553,5934.097580206106,36836.077193746234,-187500.02235174447,-187500.02235174447,-187500.02235174447,-187500.02235174447
$SILENCE,32708.514655651412,-1990.8475268897448,5774.863752706498,37012.387754009695,-187500.02235174447,-187500.02235174447,-187500.02235174447,-187500.02235174447
$SILENCE,31864.602191996837,-2001.196384572552,5562.142200725341,37015.89697788918,-187500.02235174447,-187500.02235174447,-187500.02235174447,-187500.02235174447
$SILENCE,32095.78628489808,-2219.304706967438,5729.266194017672,36822.55438835077,-187500.02235174447,-187500.02235174447,-187500.02235174447,-187500.02235174447
$SILENCE,32921.07974542138,-2209.022904517997,5932.6000133276,36815.245367913885,-187500.02235174447,-187500.02235174447,-187500.02235174447,-187500.02235174447
$SILENCE,32803.06253469736,-2034.6792977666018,5794.667398293901,36970.589991878274,-187500.02235174447,-187500.02235174447,-187500.02235174447,-187500.02235174447
$SILENCE,31943.213277246152,-1975.4695267044935,5563.684471092757,37039.3439578228,-187500.02235174447,-187500.02235174447,-187500.02235174447,-187500.02235174447
$SILENCE,31937.982969043613,-2191.7226543095894,5664.133210674908,36849.55529565278,-187500.02235174447,-187500.02235174447,-187500.02235174447,-187500.02235174447
$SILENCE,32801.38615386321,-2244.025736335008,5900.927591434431,36791.820739724724,-187500.02235174447,-187500.02235174447,-187500.02235174447,-187500.02235174447
$SILENCE,32905.925262680685,-2064.7870975479004,5839.527349415702,36952.1721544471,-187500.02235174447,-187500.02235174447,-187500.02235174447,-187500.02235174447
$SILENCE,32084.87863360389,-1954.3024247053177,5598.776709887589,37061.06985343336,-187500.02235174447,-187500.02235174447,-187500.02235174447,-187500.02235174447
$SILENCE,31849.782985422968,-2149.120229377774,5636.5064545281475,36889.564918227785,-187500.02235174447,-187500.02235174447,-187500.02235174447,-187500.02235174447
$SILENCE,32673.176547667572,-2257.325024285916,5882.621512725534,36782.05302739776,-187500.02235174447,-187500.02235174447,-187500.02235174447,-187500.02235174447
$SILENCE,32973.941621058184,-2100.2369642540175,5875.06662309964,36917.48224705246,-187500.02235174447,-187500.02235174447,-187500.02235174447,-187500.02235174447
$SILENCE,32230.790821408133,-1957.0293375288652,5626.872852667911,37053.96199869657,-187500.02235174447,-187500.02235174447,-187500.02235174447,-187500.02235174447
$SILENCE,31768.66850479466,-2118.386580751727,5583.510468424615,36924.388936089155,-187500.02235174447,-187500.02235174447,-187500.02235174447,-187500.02235174447
$SILENCE,32525.833848218186,-2268.411489535748,5846.478741941302,36790.47963505741,-187500.02235174447,-187500.02235174447,-187500.02235174447,-187500.02235174447
$SILENCE,33010.41966800924,-2134.323374548361,5908.616591527056,36906.0605056358,-187500.02235174447,-187500.02235174447,-187500.02235174447,-187500.02235174447
$SILENCE,32394.40559082098,-1957.4316689290606,5680.36057714946,37066.367216869265,-187500.02235174447,-187500.02235174447,-187500.02235174447,-187500.02235174447
$SILENCE,31749.736577241016,-2069.6374260947023,5560.376412913372,36973.56277389083,-187500.02235174447,-187500.02235174447,-187500.02235174447,-187500.02235174447
$SILENCE,32375.36190454506,-2250.954777116153,5819.76840731721,36808.94217597749,-187500.02235174447,-187500.02235174447,-187500.02235174447,-187500.02235174447
$SILENCE,33012.49838024359,-2167.2921976199386,5931.169501682461,36876.422092488065,-187500.02235174447,-187500.02235174447,-187500.02235174447,-187500.02235174447
$SILENCE,32556.031054977306,-1985.3713494981946,5720.951345080298,37037.37700431073,-187500.02235174447,-187500.02235174447,-187500.02235174447,-187500.02235174447
$SILENCE,31780.62668807825,-2035.193387889074,5550.9216250087775,36998.0826375583,-187500.02235174447,-187500.02235174447,-187500.02235174447,-187500.02235174447
$SILENCE,32207.097972285508,-2243.243425279072,5762.145610111429,36804.76239976435,-187500.02235174447,-187500.02235174447,-187500.02235174447,-187500.02235174447
$SILENCE,32973.27106872453,-2201.378607914282,5932.667068560966,36836.74774607989,-187500.02235174447,-187500.02235174447,-187500.02235174447,-187500.02235174447
$SILENCE,32703.798437571342,-2005.6667334636134,5766.884179935954,37009.30321327486,-187500.02235174447,-187500.02235174447,-187500.02235174447,-187500.02235174447
$SILENCE,31862.50112801804,-1990.3110850228175,5560.108191979908,37036.50528627697,-187500.02235174447,-187500.02235174447,-187500.02235174447,-187500.02235174447
$SILENCE,32056.938953034754,-2218.7906168449663,5715.519871177658,36836.59128386871,-187500.02235174447,-187500.02235174447,-187500.02235174447,-187500.02235174447
$SILENCE,32895.82227418688,-2228.401866960748,5922.385266111525,36813.32311789073,-187500.02235174447,-187500.02235174447,-187500.02235174447,-187500.02235174447
$SILENCE,32834.913770546176,-2037.9873559459872,5819.366075917015,36976.26733496992,-187500.02235174447,-187500.02235174447,-187500.02235174447,-187500.02235174447
$SILENCE,31967.151995557786,-1974.9107330931108,5571.14995374083,37037.39935605518,-187500.02235174447,-187500.02235174447,-187500.02235174447,-187500.02235174447
$SILENCE,31936.999492287578,-2183.698378050134,5672.626873567924,36861.13349928064,-187500.02235174447,-187500.02235174447,-187500.02235174447,-187500.02235174447
$SILENCE,32798.92746197313,-2243.7798671459996,5917.691399775911,36797.989821194395,-187500.02235174447,-187500.02235174447,-187500.02235174447,-187500.02235174447
$SILENCE,32929.66281529222,-2074.8900860416993,5857.408744979947,36943.186753176065,-187500.02235174447,-187500.02235174447,-187500.02235174447,-187500.02235174447
$SILENCE,32110.001994371654,-1961.812610842301,5601.861250622422,37048.97755968304,-187500.02235174447,-187500.02235174447,-187500.02235174447,-187500.02235174447
$SILENCE,31831.40985148071,-2151.9365491791427,5619.720294442212,36887.21798505998,-187500.02235174447,-187500.02235174447,-187500.02235174447,-187500.02235174447
$SILENCE,32667.499204575925,-2258.1073353418515,5888.812945939654,36795.128797904115,-187500.02235174447,-187500.02235174447,-187500.02235174447,-187500.02235174447
$SILENCE,33003.24475803909,-2105.221403267551,5895.7196349763435,36921.03617442086,-187500.02235174447,-187500.02235174447,-187500.02235174447,-187500.02235174447
$SILENCE,32277.461263830814,-1958.3257387072729,5643.59195752048,37047.88232420472,-187500.02235174447,-187500.02235174447,-187500.02235174447,-187500.02235174447
$SILENCE,31782.593641590316,-2105.4449207121042,5588.763128371612,36920.07504940928,-187500.02235174447,-187500.02235174447,-187500.02235174447,-187500.02235174447
$SILENCE,32520.670595249012,-2258.1073353418515,5855.955881590353,36781.5836407642,-187500.02235174447,-187500.02235174447,-187500.02235174447,-187500.02235174447
$SILENCE,33024.277749571535,-2137.9220054056655,5918.093731176106,36883.46289199148,-187500.02235174447,-187500.02235174447,-187500.02235174447,-187500.02235174447
$SILENCE,32435.175172707462,-1962.6843288760579,5693.682216844823,37045.06600440336,-187500.02235174447,-187500.02235174447,-187500.02235174447,-187500.02235174447
$SILENCE,31758.319647111854,-2072.7219668295347,5560.287005935551,36957.111889971726,-187500.02235174447,-187500.02235174447,-187500.02235174447,-187500.02235174447
$SILENCE,32340.649645405967,-2265.5951697343794,5800.43414836337,36782.388303564585,-187500.02235174447,-187500.02235174447,-187500.02235174447,-187500.02235174447
$SILENCE,33000.60725219337,-2172.0754709333746,5923.078170189639,36848.84003983022,-187500.02235174447,-187500.02235174447,-187500.02235174447,-187500.02235174447
$SILENCE,32594.319593229247,-1978.9787505839768,5742.140798823929,37024.16712333765,-187500.02235174447,-187500.02235174447,-187500.02235174447,-187500.02235174447
$SILENCE,31801.793790077427,-2022.229376104996,5563.9526920262215,37002.485931216,-187500.02235174447,-187500.02235174447,-187500.02235174447,-187500.02235174447
$SILENCE,32197.106742513984,-2250.0607073379406,5761.631519988957,36805.611766053655,-187500.02235174447,-187500.02235174447,-187500.02235174447,-187500.02235174447
$SILENCE,32975.57329840342,-2208.48646265107,5936.958603496386,36829.77400180984,-187500.02235174447,-187500.02235174447,-187500.02235174447,-187500.02235174447
$SILENCE,32747.630208448198,-2005.800843930345,5788.565372057602,37005.45871322855,-187500.02235174447,-187500.02235174447,-187500.02235174447,-187500.02235174447
$SILENCE,31904.276538405007,-1979.6045994287254,5579.934189311765,37038.271074088945,-187500.02235174447,-187500.02235174447,-187500.02235174447,-187500.02235174447
$SILENCE,32051.328665176472,-2221.3610674573265,5710.222507741751,36821.79442903929,-187500.02235174447,-187500.02235174447,-187500.02235174447,-187500.02235174447
$SILENCE,32884.84756765933,-2236.53790194248,5916.082074175129,36794.413542081544,-187500.02235174447,-187500.02235174447,-187500.02235174447,-187500.02235174447
$SILENCE,32862.07114005937,-2043.5976438042694,5823.031762007686,36967.63956161017,-187500.02235174447,-187500.02235174447,-187500.02235174447,-187500.02235174447
$SILENCE,32007.76511523308,-1967.7805266118678,5590.081881294475,37047.25647535997,-187500.02235174447,-187500.02235174447,-187500.02235174447,-187500.02235174447
$SILENCE,31928.528181139016,-2178.4010146142264,5672.336300890005,36860.30648473579,-187500.02235174447,-187500.02235174447,-187500.02235174447,-187500.02235174447
$SILENCE,32790.32204035784,-2250.463038738136,5921.1335684220285,36791.17253913552,-187500.02235174447,-187500.02235174447,-187500.02235174447,-187500.02235174447
$SILENCE,32955.99317026057,-2083.473155912537,5868.226989296316,36936.481229839475,-187500.02235174447,-187500.02235174447,-187500.02235174447,-187500.02235174447
$SILENCE,32151.576239058526,-1956.6717096175803,5619.16150083083,37054.87842021923,-187500.02235174447,-187500.02235174447,-187500.02235174447,-187500.02235174447
$SILENCE,31829.9122846022,-2133.339897792327,5629.711524213734,36906.99927890293,-187500.02235174447,-187500.02235174447,-187500.02235174447,-187500.02235174447
$SILENCE,32643.158154864093,-2255.11220158484,5885.460184271358,36786.70219024446,-187500.02235174447,-187500.02235174447,-187500.02235174447,-187500.02235174447
$SILENCE,33003.177702805726,-2114.9220603611543,5891.808079696665,36901.590156744736,-187500.02235174447,-187500.02235174447,-187500.02235174447,-187500.02235174447
$SILENCE,32313.648738103955,-1947.4404391575385,5660.556931562059,37056.73361500903,-187500.02235174447,-187500.02235174447,-187500.02235174447,-187500.02235174447
$SILENCE,31788.29333642642,-2100.5275369319365,5593.389939473861,36934.670738538596,-187500.02235174447,-187500.02235174447,-187500.02235174447,-187500.02235174447
$SILENCE,32486.785350654765,-2273.150059360273,5840.466122682825,36773.313495315735,-187500.02235174447,-187500.02235174447,-187500.02235174447,-187500.02235174447
$SILENCE,33028.43517404022,-2145.6557089872017,5919.7254085213435,36877.740845410925,-187500.02235174447,-187500.02235174447,-187500.02235174447,-187500.02235174447
não,32474.76011213781,-1956.068212517287,5707.026208284642,37050.76569923946,-187500.02235174447,-187500.02235174447,-187500.02235174447,-187500.02235174447
não,31784.53824335793,-2057.8804085112106,5574.592122386947,36971.37230293421,-187500.02235174447,-187500.02235174447,-187500.02235174447,-187500.02235174447
não,32329.16084875594,-2260.5883789763902,5806.066787966107,36784.93640243249,-187500.02235174447,-187500.02235174447,-187500.02235174447,-187500.02235174447
não,33017.46046751267,-2172.924837222676,5947.106295479095,36855.2996939778,-187500.02235174447,-187500.02235174447,-187500.02235174447,-187500.02235174447
não,32622.952177876497,-1982.0856430632643,5747.7063831933,37024.12241984873,-187500.02235174447,-187500.02235174447,-187500.02235174447,-187500.02235174447
não,31817.64117689624,-2016.3732190577055,5564.153857726319,37005.79398939538,-187500.02235174447,-187500.02235174447,-187500.02235174447,-187500.02235174447
não,32164.115567697954,-2242.8857973677873,5762.749107211722,36800.51556831784,-187500.02235174447,-187500.02235174447,-187500.02235174447,-187500.02235174447
não,32945.08551896638,-2211.7498173415443,5937.048010474206,36817.547597592784,-187500.02235174447,-187500.02235174447,-187500.02235174447,-187500.02235174447
não,32756.90618239715,-2012.2381463334737,5792.007540703719,36995.199262523565,-187500.02235174447,-187500.02235174447,-187500.02235174447,-187500.02235174447
não,31904.54475933847,-1980.3422069957505,5575.419136931794,37039.81334445636,-187500.02235174447,-187500.02235174447,-187500.02235174447,-187500.02235174447
não,32030.29567364403,-2202.4514916481367,5720.772531124656,36838.737051336415,-187500.02235174447,-187500.02235174447,-187500.02235174447,-187500.02235174447
não,32876.13038732176,-2232.8722158518094,5937.115065707572,36802.68368753001,-187500.02235174447,-187500.02235174447,-187500.02235174447,-187500.02235174447
não,32866.45208197261,-2050.92901598561,5827.747980087755,36965.51614588692,-187500.02235174447,-187500.02235174447,-187500.02235174447,-187500.02235174447
não,32013.934196702743,-1965.8582765887115,5580.4482794342375,37045.177763125634,-187500.02235174447,-187500.02235174447,-187500.02235174447,-187500.02235174447
não,31898.80036101346,-2179.853878003821,5663.529713574614,36862.27343824785,-187500.02235174447,-187500.02235174447,-187500.02235174447,-187500.02235174447
não,32759.923667898616,-2246.3950212472705,5923.949888223397,36800.09088517319,-187500.02235174447,-187500.02235174447,-187500.02235174447,-187500.02235174447
não,32965.60442037635,-2074.264237196951,5878.262922556749,36945.82425902179,-187500.02235174447,-187500.02235174447,-187500.02235174447,-187500.02235174447
não,32169.770559045144,-1949.00506126941,5617.686285696779,37058.96878945456,-187500.02235174447,-187500.02235174447,-187500.02235174447,-187500.02235174447
não,31814.556636161404,-2135.3962582822155,5621.4190270208155,36900.65138347762,-187500.02235174447,-187500.02235174447,-187500.02235174447,-187500.02235174447
não,32612.044526582307,-2267.785640690999,5887.248323827783,36780.644867497074,-187500.02235174447,-187500.02235174447,-187500.02235174447,-187500.02235174447
não,33008.58682496391,-2119.928851119143,5902.134585635017,36903.49005502344,-187500.02235174447,-187500.02235174447,-187500.02235174447,-187500.02235174447
não,32329.02673828921,-1950.1450002366305,5663.127382174419,37058.92408596565,-187500.02235174447,-187500.02235174447,-187500.02235174447,-187500.02235174447
não,31775.95517348709,-2087.9435048035984,5596.854459864433,36940.72806128598,-187500.02235174447,-187500.02235174447,-187500.02235174447,-187500.02235174447
não,32468.00988531231,-2260.7671929320327,5861.141486303984,36781.09190238618,-187500.02235174447,-187500.02235174447,-187500.02235174447,-187500.02235174447
não,33027.429345539735,-2150.28252008945,5935.483388362335,36877.09264482172,-187500.02235174447,-187500.02235174447,-187500.02235174447,-187500.02235174447
não,32483.18671979746,-1969.903942335122,5703.137004749418,37038.9416264226,-187500.02235174447,-187500.02235174447,-187500.02235174447,-187500.02235174447
não,31773.697647297104,-2048.380917117705,5574.703881109224,36974.65800936914,-187500.02235174447,-187500.02235174447,-187500.02235174447,-187500.02235174447
não,32298.53895885217,-2252.452343994659,5817.376770660493,36796.3357921047,-187500.02235174447,-187500.02235174447,-187500.02235174447,-187500.02235174447
não,33003.22240629463,-2176.9705029690867,5947.530978623746,36849.577647397244,-187500.02235174447,-187500.02235174447,-187500.02235174447,-187500.02235174447
não,32656.524498048366,-1987.3383030102616,5758.435220531848,37020.1885128246,-187500.02235174447,-187500.02235174447,-187500.02235174447,-187500.02235174447
não,31826.157191533708,-2008.7289224539904,5571.485229907659,37009.884358630705,-187500.02235174447,-187500.02235174447,-187500.02235174447,-187500.02235174447
não,32134.812430717044,-2235.956756586642,5769.298168337127,36814.396001624584,-187500.02235174447,-187500.02235174447,-187500.02235174447,-187500.02235174447
não,32948.03594923448,-2210.118139996307,5953.901225793508,36827.89645527559,-187500.02235174447,-187500.02235174447,-187500.02235174447,-187500.02235174447
não,32775.2346128505,-2016.708495224535,5797.036683206164,36988.359628720245,-187500.02235174447,-187500.02235174447,-187500.02235174447,-187500.02235174447
não,31912.010241986543,-1979.1352127951639,5574.033328775565,37034.22540834253,-187500.02235174447,-187500.02235174447,-187500.02235174447,-187500.02235174447
não,31992.431818536737,-2212.5991836308463,5710.55778390858,36828.9916907539,-187500.02235174447,-187500.02235174447,-187500.02235174447,-187500.02235174447
não,32850.202363753604,-2243.5116462125357,5933.359972639081,36795.21820488193,-187500.02235174447,-187500.02235174447,-187500.02235174447,-187500.02235174447
não,32879.84077690134,-2056.382841632705,5833.335916201582,36959.347064417256,-187500.02235174447,-187500.02235174447,-187500.02235174447,-187500.02235174447
não,32011.341394345927,-1964.29365447684,5575.620302631892,37046.0941846483,-187500.02235174447,-187500.02235174447,-187500.02235174447,-187500.02235174447
não,31849.380654022774,-2167.158087153207,5648.174065133818,36872.845813375214,-187500.02235174447,-187500.02235174447,-187500.02235174447,-187500.02235174447
não,32745.395034002668,-2253.0111376060413,5929.090789448117,36797.87806247212,-187500.02235174447,-187500.02235174447,-187500.02235174447,-187500.02235174447
não,32987.41972296473,-2088.256429225973,5894.669102986944,36931.36268035921,-187500.02235174447,-187500.02235174447,-187500.02235174447,-187500.02235174447
não,32187.741361587214,-1951.553160137315,5625.889375911877,37050.89980970619,-187500.02235174447,-187500.02235174447,-187500.02235174447,-187500.02235174447
não,31790.05912423839,-2132.7140489475787,5608.007980347631,36899.5114445104,-187500.02235174447,-187500.02235174447,-187500.02235174447,-187500.02235174447
não,32582.942555301495,-2270.1549256032617,5881.459222013858,36775.34750406117,-187500.02235174447,-187500.02235174447,-187500.02235174447,-187500.02235174447
não,33005.85991214036,-2121.7616941644783,5903.028655413229,36893.141197340636,-187500.02235174447,-187500.02235174447,-187500.02235174447,-187500.02235174447
não,32336.805145359656,-1951.1731804815747,5660.422821095326,37041.93676017961,-187500.02235174447,-187500.02235174447,-187500.02235174447,-187500.02235174447
não,31741.667597492647,-2088.122318759241,5578.168401499796,36931.40738384812,-187500.02235174447,-187500.02235174447,-187500.02235174447,-187500.02235174447
não,32418.545474832714,-2260.7448411875775,5838.499169170758,36777.1803471065,-187500.02235174447,-187500.02235174447,-187500.02235174447,-187500.02235174447
não,33015.113534344855,-2163.514752806992,5920.93240272193,36859.32300797976,-187500.02235174447,-187500.02235174447,-187500.02235174447,-187500.02235174447
não,32498.832940916174,-1970.8427156022449,5699.896001803399,37021.37315528073,-187500.02235174447,-187500.02235174447,-187500.02235174447,-187500.02235174447
não,31752.597600531295,-2041.7871525033895,5557.068354733987,36967.796023821356,-187500.02235174447,-187500.02235174447,-187500.02235174447,-187500.02235174447
não,32257.210583354306,-2252.832323650399,5804.479814109781,36794.413542081544,-187500.02235174447,-187500.02235174447,-187500.02235174447,-187500.02235174447
não,32989.29726949898,-2196.7517968120333,5940.736048309333,36838.71469959196,-187500.02235174447,-187500.02235174447,-187500.02235174447,-187500.02235174447
não,32659.296114360826,-1999.9893903719653,5744.085400591541,36995.46748345703,-187500.02235174447,-187500.02235174447,-187500.02235174447,-187500.02235174447
não,31829.95698809111,-2003.3645037847168,5553.626186087869,36997.21091952454,-187500.02235174447,-187500.02235174447,-187500.02235174447,-187500.02235174447
não,32119.948520654267,-2226.9490035711533,5758.457572276303,36810.05976320026,-187500.02235174447,-187500.02235174447,-187500.02235174447,-187500.02235174447
não,32938.96114098563,-2214.0743987648966,5950.79433331422,36813.72544929093,-187500.02235174447,-187500.02235174447,-187500.02235174447,-187500.02235174447
não,32789.15974964616,-2017.4684545360155,5798.891877995954,36976.89318381467,-187500.02235174447,-187500.02235174447,-187500.02235174447,-187500.02235174447
não,31910.400916385763,-1981.0798145627755,5552.866226776388,37012.85714064326,-187500.02235174447,-187500.02235174447,-187500.02235174447,-187500.02235174447
não,31974.930402628233,-2209.157014984729,5696.878516301932,36830.82453379924,-187500.02235174447,-187500.02235174447,-187500.02235174447,-187500.02235174447
não,32852.48224168804,-2246.663242180734,5944.513493122279,36797.87806247212,-187500.02235174447,-187500.02235174447,-187500.02235174447,-187500.02235174447
não,32914.64244301825,-2065.6811673261127,5843.818884351121,36940.12456418569,-187500.02235174447,-187500.02235174447,-187500.02235174447,-187500.02235174447
não,32056.134290234364,-1963.9136748210997,5572.871038063889,37023.3401087928,-187500.02235174447,-187500.02235174447,-187500.02235174447,-187500.02235174447
não,31870.100721132843,-2160.6537295167127,5644.597786020969,36867.9507813395,-187500.02235174447,-187500.02235174447,-187500.02235174447,-187500.02235174447
não,32744.76918515792,-2245.4785997246026,5931.325963893648,36797.81100723875,-187500.02235174447,-187500.02235174447,-187500.02235174447,-187500.02235174447
não,33001.47897022712,-2091.8103565943666,5884.5661144931455,36916.31995634079,-187500.02235174447,-187500.02235174447,-187500.02235174447,-187500.02235174447
não,32207.634414152435,-1961.0973550197311,5607.024503591598,37028.972748395536,-187500.02235174447,-187500.02235174447,-187500.02235174447,-187500.02235174447
não,31788.44979863761,-2125.89676688871,5600.184869788274,36900.047886377324,-187500.02235174447,-187500.02235174447,-187500.02235174447,-187500.02235174447
não,32593.06789553975,-2258.666128953234,5883.180306336917,36780.17548086351,-187500.02235174447,-187500.02235174447,-187500.02235174447,-187500.02235174447
não,33049.06583417247,-2122.208729053584,5911.947001450897,36887.57561297126,-187500.02235174447,-187500.02235174447,-187500.02235174447,-187500.02235174447
não,32373.26084056626,-1965.2771312328734,5642.87670169791,37020.32262329133,-187500.02235174447,-187500.02235174447,-187500.02235174447,-187500.02235174447
não,31752.396434831197,-2094.7160833735566,5559.057659990509,36928.076973924275,-187500.02235174447,-187500.02235174447,-187500.02235174447,-187500.02235174447
não,32429.296663915717,-2260.4319167652034,5845.405858207448,36777.1803471065,-187500.02235174447,-187500.02235174447,-187500.02235174447,-187500.02235174447
não,33063.97444772416,-2158.9102934491984,5942.725353565855,36857.66897889006,-187500.02235174447,-187500.02235174447,-187500.02235174447,-187500.02235174447
não,32551.5830578307,-1975.5365819378594,5702.466452415759,37013.013602854444,-187500.02235174447,-187500.02235174447,-187500.02235174447,-187500.02235174447
não,31781.85603402329,-2042.8600362372442,5546.585386584447,36967.63956161017,-187500.02235174447,-187500.02235174447,-187500.02235174447,-187500.02235174447
não,32270.174595138385,-2245.858579380343,5798.064863451107,36793.00538218086,-187500.02235174447,-187500.02235174447,-187500.02235174447,-187500.02235174447
não,33029.41865079625,-2191.7226543095894,5947.285109434737,36835.0937169902,-187500.02235174447,-187500.02235174447,-187500.02235174447,-187500.02235174447
não,32701.563263125812,-2003.7444834404569,5741.179673812351,36990.77361712141,-187500.02235174447,-187500.02235174447,-187500.02235174447,-187500.02235174447
não,31834.427336982175,-2004.3032770518396,5537.66704054678,36999.602556181264,-187500.02235174447,-187500.02235174447,-187500.02235174447,-187500.02235174447
não,32099.78724715558,-2228.245404749561,5745.828836659055,36812.27258590133,-187500.02235174447,-187500.02235174447,-187500.02235174447,-187500.02235174447
não,32960.37411217381,-2216.9130703107203,5955.488199649835,36809.43391435551,-187500.02235174447,-187500.02235174447,-187500.02235174447,-187500.02235174447
não,32832.45507865609,-2029.1137133972304,5792.029892448175,36964.46561389752,-187500.02235174447,-187500.02235174447,-187500.02235174447,-187500.02235174447
não,31920.816829301933,-1974.48604994846,5535.051886445509,37018.86975990173,-187500.02235174447,-187500.02235174447,-187500.02235174447,-187500.02235174447
não,31969.409521747773,-2186.4699943625924,5701.684141359823,36858.741862623916,-187500.02235174447,-187500.02235174447,-187500.02235174447,-187500.02235174447
não,32869.76014015199,-2230.1453030282623,5952.962452526385,36814.351298135676,-187500.02235174447,-187500.02235174447,-187500.02235174447,-187500.02235174447
não,32930.91451298172,-2072.2078767070625,5835.34757320256,36939.58812231876,-187500.02235174447,-187500.02235174447,-187500.02235174447,-187500.02235174447
não,32053.988522766656,-1970.5297911798707,5562.902160036821,37030.47031527404,-187500.02235174447,-187500.02235174447,-187500.02235174447,-187500.02235174447
não,31828.593531679337,-2162.6877382621456,5628.593936990969,36874.20926978699,-187500.02235174447,-187500.02235174447,-187500.02235174447,-187500.02235174447
não,32714.19199874306,-2249.501913726558,5918.6972282764,36790.367876335134,-187500.02235174447,-187500.02235174447,-187500.02235174447,-187500.02235174447
não,33018.890979157804,-2088.8152228373556,5893.082129130617,36917.16932263009,-187500.02235174447,-187500.02235174447,-187500.02235174447,-187500.02235174447
não,32213.51292294418,-1956.7611165954015,5605.68339892428,37030.023280384936,-187500.02235174447,-187500.02235174447,-187500.02235174447,-187500.02235174447
não,31747.814327217857,-2125.18151106614,5580.694148623246,36901.25488057791,-187500.02235174447,-187500.02235174447,-187500.02235174447,-187500.02235174447
não,32558.06506372274,-2260.5883789763902,5886.577771494123,36788.691495500985,-187500.02235174447,-187500.02235174447,-187500.02235174447,-187500.02235174447
não,33056.28544763153,-2127.126112833752,5926.229766157838,36893.54352874083,-187500.02235174447,-187500.02235174447,-187500.02235174447,-187500.02235174447
não,32393.399762320492,-1963.0866602762535,5653.73964950319,37023.653033215174,-187500.02235174447,-187500.02235174447,-187500.02235174447,-187500.02235174447
não,31725.12730659572,-2078.0640337543527,5550.38518314185,36943.812602020815,-187500.02235174447,-187500.02235174447,-187500.02235174447,-187500.02235174447
não,32398.048925167197,-2247.959643359142,5845.137637273984,36807.04227769879,-187500.02235174447,-187500.02235174447,-187500.02235174447,-187500.02235174447
não,33046.76360449357,-2154.350537580316,5946.7263158233545,36874.745711653915,-187500.02235174447,-187500.02235174447,-187500.02235174447,-187500.02235174447
não,32557.506270111357,-1974.4636982040047,5714.111711276974,37024.636509971206,-187500.02235174447,-187500.02235174447,-187500.02235174447,-187500.02235174447
não,31747.054367906378,-2040.8260274918114,5533.822540500467,36974.63565762468,-187500.02235174447,-187500.02235174447,-187500.02235174447,-187500.02235174447
não,32209.6013676645,-2249.0772305819073,5778.663549263901,36802.460170085455,-187500.02235174447,-187500.02235174447,-187500.02235174447,-187500.02235174447
não,32998.841464381396,-2194.516622366503,5948.045068746218,36836.926560035536,-187500.02235174447,-187500.02235174447,-187500.02235174447,-187500.02235174447
não,32702.747905581942,-2008.3265910537948,5756.200046086317,36984.89510832967,-187500.02235174447,-187500.02235174447,-187500.02235174447,-187500.02235174447
não,31818.66935714118,-2002.515137495415,5534.604851556403,36996.585070679794,-187500.02235174447,-187500.02235174447,-187500.02235174447,-187500.02235174447
não,32062.884517059865,-2221.405770946237,5733.714191164278,36822.35322265068,-187500.02235174447,-187500.02235174447,-187500.02235174447,-187500.02235174447
não,32934.26727465001,-2213.8061778314327,5955.309385694192,36821.392097639095,-187500.02235174447,-187500.02235174447,-187500.02235174447,-187500.02235174447
não,32836.724261847055,-2026.5656145293256,5812.280572924683,36970.61234362273,-187500.02235174447,-187500.02235174447,-187500.02235174447,-187500.02235174447
não,31943.347387712885,-1967.9369888230551,5565.785535071556,37030.04563212939,-187500.02235174447,-187500.02235174447,-187500.02235174447,-187500.02235174447
não,31919.520428123527,-2191.0297502314747,5677.968940492742,36849.376481697145,-187500.02235174447,-187500.02235174447,-187500.02235174447,-187500.02235174447
não,32809.58924407831,-2243.243425279072,5929.157844681483,36800.11323691765,-187500.02235174447,-187500.02235174447,-187500.02235174447,-187500.02235174447
não,32936.36833862881,-2063.870676025233,5850.502055943258,36939.74458452995,-187500.02235174447,-187500.02235174447,-187500.02235174447,-187500.02235174447
não,32068.58421189597,-1963.2431224874406,5572.491058408148,37025.195303582586,-187500.02235174447,-187500.02235174447,-187500.02235174447,-187500.02235174447
não,31805.973566290566,-2153.18824686864,5622.268393310117,36879.59604020072,-187500.02235174447,-187500.02235174447,-187500.02235174447,-187500.02235174447
não,32677.266916902892,-2246.931463114198,5910.561193294668,36794.86057697065,-187500.02235174447,-187500.02235174447,-187500.02235174447,-187500.02235174447
não,33010.799647664986,-2088.3681879482497,5898.670065244444,36912.87778769467,-187500.02235174447,-187500.02235174447,-187500.02235174447,-187500.02235174447
não,32243.66542621439,-1954.9282735500663,5617.3063060410395,37021.060230858355,-187500.02235174447,-187500.02235174447,-187500.02235174447,-187500.02235174447
não,31736.012606145458,-2123.773351165456,5569.920607795788,36898.68442996555,-187500.02235174447,-187500.02235174447,-187500.02235174447,-187500.02235174447
não,32521.408202816037,-2261.0130621210415,5869.545742219179,36789.04912341227,-187500.02235174447,-187500.02235174447,-187500.02235174447,-187500.02235174447
não,33030.80445895249,-2134.345726292816,5918.540766065213,36885.27338329236,-187500.02235174447,-187500.02235174447,-187500.02235174447,-187500.02235174447
não,32398.339497845114,-1963.4666399319935,5661.652167040368,37027.989271639504,-187500.02235174447,-187500.02235174447,-187500.02235174447,-187500.02235174447
não,31720.65695770466,-2068.229266194018,5554.833180288456,36952.93211375858,-187500.02235174447,-187500.02235174447,-187500.02235174447,-187500.02235174447
não,32357.748729914278,-2250.574797460413,5839.169721504417,36797.85571072766,-187500.02235174447,-187500.02235174447,-187500.02235174447,-187500.02235174447
não,33023.74130770461,-2165.861685974799,5943.708830321888,36855.88083933364,-187500.02235174447,-187500.02235174447,-187500.02235174447,-187500.02235174447
não,32555.829889277207,-1985.4607564760158,5707.450891429293,37004.27407077242,-187500.02235174447,-187500.02235174447,-187500.02235174447,-187500.02235174447
não,31742.405205059673,-2037.6073762902472,5528.592232297925,36972.55694539034,-187500.02235174447,-187500.02235174447,-187500.02235174447,-187500.02235174447
não,32190.244756966207,-2242.304652011949,5777.836534719055,36811.15499867857,-187500.02235174447,-187500.02235174447,-187500.02235174447,-187500.02235174447
não,32993.030010823015,-2190.605067086824,5955.197626971916,36839.83228681473,-187500.02235174447,-187500.02235174447,-187500.02235174447,-187500.02235174447
não,32721.18809475757,-1998.3353612822727,5772.717985238789,36989.14193977618,-187500.02235174447,-187500.02235174447,-187500.02235174447,-187500.02235174447
não,31823.653796154715,-2000.101149094242,5537.018839957576,37003.26824227193,-187500.02235174447,-187500.02235174447,-187500.02235174447,-187500.02235174447
não,32033.00023472312,-2216.1978144881505,5721.08545554703,36834.28905418981,-187500.02235174447,-187500.02235174447,-187500.02235174447,-187500.02235174447
não,32922.82318148889,-2216.309573210427,5957.902188051008,36826.82357154174,-187500.02235174447,-187500.02235174447,-187500.02235174447,-187500.02235174447
não,32851.07408178736,-2038.0767629238087,5816.1250729709955,36962.833936552284,-187500.02235174447,-187500.02235174447,-187500.02235174447,-187500.02235174447
não,31938.340596954895,-1978.3529017392282,5549.5134651080925,37016.56753022284,-187500.02235174447,-187500.02235174447,-187500.02235174447,-187500.02235174447
não,31877.58855552537,-2184.5700960838913,5657.628853038413,36859.9488568245,-187500.02235174447,-187500.02235174447,-187500.02235174447,-187500.02235174447
não,32785.047028666384,-2241.075306066907,5925.693324290911,36806.595242809686,-187500.02235174447,-187500.02235174447,-187500.02235174447,-187500.02235174447
não,32940.101079952845,-2074.308940685861,5855.240625767783,36931.9661774595,-187500.02235174447,-187500.02235174447,-187500.02235174447,-187500.02235174447
não,32085.102151048442,-1963.5783986542701,5577.408442188316,37026.82698092783,-187500.02235174447,-187500.02235174447,-187500.02235174447,-187500.02235174447
não,31798.642194109227,-2143.442886286126,5621.687247954279,36894.37054328567,-187500.02235174447,-187500.02235174447,-187500.02235174447,-187500.02235174447
não,32661.665399273086,-2246.0597450804407,5910.31532410566,36811.35616437867,-187500.02235174447,-187500.02235174447,-187500.02235174447,-187500.02235174447
não,33005.256415040065,-2105.959010834576,5893.59621925309,36914.0624301508,-187500.02235174447,-187500.02235174447,-187500.02235174447,-187500.02235174447
não,32249.409824539405,-1959.063346274298,5618.513300241626,37035.56651300985,-187500.02235174447,-187500.02235174447,-187500.02235174447,-187500.02235174447
não,31750.00479817448,-2092.9502955615876,5587.042044048553,36944.03611946537,-187500.02235174447,-187500.02235174447,-187500.02235174447,-187500.02235174447
não,32518.748345225853,-2249.5913207043795,5877.681777200911,36811.42321961203,-187500.02235174447,-187500.02235174447,-187500.02235174447,-187500.02235174447
não,33036.302988088486,-2151.824790456866,5916.93144046443,36879.01489484488,-187500.02235174447,-187500.02235174447,-187500.02235174447,-187500.02235174447
não,32405.290890370718,-1981.7503668964348,5652.487951813692,37013.147713321174,-187500.02235174447,-187500.02235174447,-187500.02235174447,-187500.02235174447
não,31706.575358697817,-2072.453745896071,5532.727305022157,36953.043872480855,-187500.02235174447,-187500.02235174447,-187500.02235174447,-187500.02235174447
não,32334.100584280564,-2248.9431201151756,5815.678038081889,36809.590376566695,-187500.02235174447,-187500.02235174447,-187500.02235174447,-187500.02235174447
não,33027.295235073,-2169.9520552101203,5940.646641331511,36864.37450222665,-187500.02235174447,-187500.02235174447,-187500.02235174447,-187500.02235174447
não,32586.45177918098,-1985.9748465984878,5719.342019479516,37014.01943135494,-187500.02235174447,-187500.02235174447,-187500.02235174447,-187500.02235174447
não,31756.3973970887,-2024.3080883393395,5533.531967822549,36998.775541636416,-187500.02235174447,-187500.02235174447,-187500.02235174447,-187500.02235174447
não,32162.215669419253,-2233.922747841209,5771.399232315926,36831.04805124379,-187500.02235174447,-187500.02235174447,-187500.02235174447,-187500.02235174447
não,32981.630621150805,-2197.310590423416,5958.662147362488,36848.84003983022,-187500.02235174447,-187500.02235174447,-187500.02235174447,-187500.02235174447
não,32747.38433925919,-2006.0914166082641,5780.384633586959,36997.47914045801,-187500.02235174447,-187500.02235174447,-187500.02235174447,-187500.02235174447
não,31834.717909660092,-1999.0729688492977,5523.4513310732045,37009.61613769724,-187500.02235174447,-187500.02235174447,-187500.02235174447,-187500.02235174447
não,32005.57464427646,-2217.7847883444774,5705.1263100059405,36842.35803393817,-187500.02235174447,-187500.02235174447,-187500.02235174447,-187500.02235174447
não,32887.97681188307,-2224.9820500590863,5941.6748215764555,36825.92950176352,-187500.02235174447,-187500.02235174447,-187500.02235174447,-187500.02235174447
não,32857.37727372376,-2046.8833502391997,5816.639163093468,36961.157555718135,-187500.02235174447,-187500.02235174447,-187500.02235174447,-187500.02235174447
não,31970.32594327044,-1975.9612650825102,5556.24134018914,37025.687041960606,-187500.02235174447,-187500.02235174447,-187500.02235174447,-187500.02235174447
não,31881.79068348297,-2180.837354759855,5656.958300704754,36862.519307436865,-187500.02235174447,-187500.02235174447,-187500.02235174447,-187500.02235174447
não,32787.416313578644,-2243.5116462125357,5934.3434493951145,36808.56219632175,-187500.02235174447,-187500.02235174447,-187500.02235174447,-187500.02235174447
não,32953.19920220366,-2073.280760440917,5860.515637459235,36939.342253129755,-187500.02235174447,-187500.02235174447,-187500.02235174447,-187500.02235174447
não,32111.700726950257,-1954.1236107496752,5579.733023611668,37043.18845786911,-187500.02235174447,-187500.02235174447,-187500.02235174447,-187500.02235174447
não,31780.067894466865,-2139.7548484510003,5608.477366981193,36902.9089096676,-187500.02235174447,-187500.02235174447,-187500.02235174447,-187500.02235174447
não,32633.055166370294,-2259.917826642731,5902.603972268578,36798.79448399478,-187500.02235174447,-187500.02235174447,-187500.02235174447,-187500.02235174447
não,33007.96097611916,-2117.2019382955955,5895.004379153774,36905.16643585759,-187500.02235174447,-187500.02235174447,-187500.02235174447,-187500.02235174447
não,32263.759644479713,-1967.19938125603,5606.018675091109,37024.65886171566,-187500.02235174447,-187500.02235174447,-187500.02235174447,-187500.02235174447
não,31730.692890965092,-2105.020237567453,5566.679604849769,36928.8145814913,-187500.02235174447,-187500.02235174447,-187500.02235174447,-187500.02235174447
não,32492.328583279683,-2255.313367284938,5880.833373169109,36805.16473116454,-187500.02235174447,-187500.02235174447,-187500.02235174447,-187500.02235174447
não,33046.517735304566,-2136.9832321385425,5940.3337169091365,36886.212156559486,-187500.02235174447,-187500.02235174447,-187500.02235174447,-187500.02235174447
não,32455.761129350798,-1966.1264975221752,5675.018510224642,37026.60346348327,-187500.02235174447,-187500.02235174447,-187500.02235174447,-187500.02235174447
não,31733.911542166657,-2057.7910015333896,5543.903177249811,36964.77853831989,-187500.02235174447,-187500.02235174447,-187500.02235174447,-187500.02235174447
não,32324.176409742406,-2248.183160803695,5833.872358068509,36811.199702167476,-187500.02235174447,-187500.02235174447,-187500.02235174447,-187500.02235174447
não,33027.96578740666,-2170.734366266056,5957.186932228438,36865.2015167715,-187500.02235174447,-187500.02235174447,-187500.02235174447,-187500.02235174447
não,32605.942500346006,-1996.614276959214,5713.865842087966,37001.971841093524,-187500.02235174447,-187500.02235174447,-187500.02235174447,-187500.02235174447
não,31776.51396709847,-2027.9961261744652,5526.424113085761,36991.53357643289,-187500.02235174447,-187500.02235174447,-187500.02235174447,-187500.02235174447
não,32155.465442593748,-2233.1627885297285,5773.053261405619,36826.33183316372,-187500.02235174447,-187500.02235174447,-187500.02235174447,-187500.02235174447
não,32974.58982164739,-2197.3329421678714,5964.473600920868,36841.77688858234,-187500.02235174447,-187500.02235174447,-187500.02235174447,-187500.02235174447
não,32759.230763820502,-2011.7911114443675,5779.736432997755,36990.66185839914,-187500.02235174447,-187500.02235174447,-187500.02235174447,-187500.02235174447
não,31857.11435760431,-1999.3411897827614,5525.66415377428,37008.87853013021,-187500.02235174447,-187500.02235174447,-187500.02235174447,-187500.02235174447
não,31988.00617313459,-2210.431064418681,5705.640400128413,36838.49118214741,-187500.02235174447,-187500.02235174447,-187500.02235174447,-187500.02235174447
não,32875.303372776914,-2219.349410456349,5954.638833360534,36823.13553370661,-187500.02235174447,-187500.02235174447,-187500.02235174447,-187500.02235174447
não,32867.52496570646,-2041.9883182034873,5828.9773260327975,36965.44909065355,-187500.02235174447,-187500.02235174447,-187500.02235174447,-187500.02235174447
não,31979.154882330287,-1972.072061547287,5553.603834343414,37033.55485600887,-187500.02235174447,-187500.02235174447,-187500.02235174447,-187500.02235174447
não,31873.386427567773,-2170.1308691657628,5660.154600161863,36874.83511863174,-187500.02235174447,-187500.02235174447,-187500.02235174447,-187500.02235174447
não,32763.030560377905,-2229.608861161335,5949.453228646902,36821.57091159474,-187500.02235174447,-187500.02235174447,-187500.02235174447,-187500.02235174447
não,32962.542231385974,-2070.8220685508336,5879.715785946344,36939.78928801886,-187500.02235174447,-187500.02235174447,-187500.02235174447,-187500.02235174447
não,32127.905741680355,-1962.8631428317003,5583.711634124713,37030.40326004067,-187500.02235174447,-187500.02235174447,-187500.02235174447,-187500.02235174447
não,31766.880365238234,-2144.0687351308748,5600.766015144112,36901.34428755573,-187500.02235174447,-187500.02235174447,-187500.02235174447,-187500.02235174447
não,32609.317613758758,-2257.213265563639,5899.877059445031,36800.82849274021,-187500.02235174447,-187500.02235174447,-187500.02235174447,-187500.02235174447
não,33005.01054585106,-2118.0960080738078,5905.017960669752,36902.97596490097,-187500.02235174447,-187500.02235174447,-187500.02235174447,-187500.02235174447
não,32286.71488603531,-1968.4287272010718,5633.153692859852,37028.99510013999,-187500.02235174447,-187500.02235174447,-187500.02235174447,-187500.02235174447
não,31732.168106099143,-2092.3020949723837,5575.2850264650615,36941.59977931974,-187500.02235174447,-187500.02235174447,-187500.02235174447,-187500.02235174447
não,32470.87090860259,-2239.9130153552314,5881.146297591484,36821.59326333919,-187500.02235174447,-187500.02235174447,-187500.02235174447,-187500.02235174447
não,33036.861781699874,-2134.3904297817267,5950.6602228474885,36896.20338633101,-187500.02235174447,-187500.02235174447,-187500.02235174447,-187500.02235174447
não,32441.925399532964,-1981.2362767739628,5675.398489880382,37009.57143420833,-187500.02235174447,-187500.02235174447,-187500.02235174447,-187500.02235174447
não,31712.833847145303,-2064.250655680973,5531.922642221766,36953.669721325605,-187500.02235174447,-187500.02235174447,-187500.02235174447,-187500.02235174447
não,32282.91508947791,-2246.4844282250915,5810.581840346079,36809.8362457557,-187500.02235174447,-187500.02235174447,-187500.02235174447,-187500.02235174447
não,33014.95707213367,-2170.5779040548687,5962.216074730883,36866.989656327925,-187500.02235174447,-187500.02235174447,-187500.02235174447,-187500.02235174447
não,32619.44295399701,-1988.388834999661,5741.000859856708,37010.19728305308,-187500.02235174447,-187500.02235174447,-187500.02235174447,-187500.02235174447
não,31771.663638551672,-2019.837739448278,5536.52710157956,36993.098198544765,-187500.02235174447,-187500.02235174447,-187500.02235174447,-187500.02235174447
não,32116.104020607952,-2226.390209959771,5758.56933099858,36829.57283610974,-187500.02235174447,-187500.02235174447,-187500.02235174447,-187500.02235174447
não,32949.62292309081,-2187.05113971843,5964.875932321064,36851.321083464754,-187500.02235174447,-187500.02235174447,-187500.02235174447,-187500.02235174447
não,32760.415406276636,-2011.7240562110017,5794.376825615982,36990.19247176558,-187500.02235174447,-187500.02235174447,-187500.02235174447,-187500.02235174447
não,31857.74020644906,-1997.485994992971,5540.349249881417,37013.66180344365,-187500.02235174447,-187500.02235174447,-187500.02235174447,-187500.02235174447
não,31967.621382191348,-2212.8897563087653,5703.405225682882,36844.03441477232,-187500.02235174447,-187500.02235174447,-187500.02235174447,-187500.02235174447
não,32870.56480295239,-2215.5943173878572,5961.769039841776,36827.695289575495,-187500.02235174447,-187500.02235174447,-187500.02235174447,-187500.02235174447
não,32883.908794392206,-2037.6297280347023,5847.931605330898,36964.33150343079,-187500.02235174447,-187500.02235174447,-187500.02235174447,-187500.02235174447
não,31974.23749855012,-1980.2975035068398,5552.799171543023,37015.405239511165,-187500.02235174447,-187500.02235174447,-187500.02235174447,-187500.02235174447
não,31829.018214823987,-2181.351444882327,5633.779541704601,36869.04601681781,-187500.02235174447,-187500.02235174447,-187500.02235174447,-187500.02235174447
não,32732.09574605176,-2245.5233032135134,5928.330830136637,36814.08307720221,-187500.02235174447,-187500.02235174447,-187500.02235174447,-187500.02235174447
não,32959.16711797322,-2083.897839057188,5882.040367369696,36934.40251760513,-187500.02235174447,-187500.02235174447,-187500.02235174447,-187500.02235174447
não,32143.350797098974,-1958.3257387072729,5603.291762267561,37040.8415247013,-187500.02235174447,-187500.02235174447,-187500.02235174447,-187500.02235174447
não,31760.10778666828,-2122.566356964869,5601.72714015569,36915.20236911802,-187500.02235174447,-187500.02235174447,-187500.02235174447,-187500.02235174447
não,32592.218529250447,-2243.6234049348122,5905.129719392028,36817.43583887051,-187500.02235174447,-187500.02235174447,-187500.02235174447,-187500.02235174447
não,33011.02316510954,-2111.748112648501,5920.798292255198,36912.47545629447,-187500.02235174447,-187500.02235174447,-187500.02235174447,-187500.02235174447
não,32306.40677290044,-1963.2207707429852,5637.1546551173515,37030.0903356183,-187500.02235174447,-187500.02235174447,-187500.02235174447,-187500.02235174447
não,31712.61032970075,-2096.6830368856236,5553.201502943219,36928.63576753566,-187500.02235174447,-187500.02235174447,-187500.02235174447,-187500.02235174447
não,32424.84866676911,-2255.469829496125,5856.469971712825,36799.889719473096,-187500.02235174447,-187500.02235174447,-187500.02235174447,-187500.02235174447
não,33036.079470643934,-2138.100819361308,5957.723374095366,36885.74276992593,-187500.02235174447,-187500.02235174447,-187500.02235174447,-187500.02235174447
não,32479.65514417352,-1969.613369657203,5693.570458122547,37022.84837041478,-187500.02235174447,-187500.02235174447,-187500.02235174447,-187500.02235174447
não,31723.361518783753,-2057.9251120001213,5534.1354649228415,36967.7736720769,-187500.02235174447,-187500.02235174447,-187500.02235174447,-187500.02235174447
não,32250.214487339796,-2250.8430183938767,5795.136784927462,36806.19291140949,-187500.02235174447,-187500.02235174447,-187500.02235174447,-187500.02235174447
não,32980.177757761216,-2177.886924491754,5948.022717001762,36853.73507186593,-187500.02235174447,-187500.02235174447,-187500.02235174447,-187500.02235174447
não,32619.711174930475,-1998.7600444269235,5734.049467331108,37001.65891667115,-187500.02235174447,-187500.02235174447,-187500.02235174447,-187500.02235174447
$SILENCE,31779.665563066672,-2014.6968382235575,5528.927508464755,37000.54132944838,-187500.02235174447,-187500.02235174447,-187500.02235174447,-187500.02235174447
$SILENCE,32101.217758800718,-2215.2366894765723,5758.61403448749,36846.62721712914,-187500.02235174447,-187500.02235174447,-187500.02235174447,-187500.02235174447
$SILENCE,32935.69778629515,-2198.8975642797427,5972.4978771803235,36851.38813869812,-187500.02235174447,-187500.02235174447,-187500.02235174447,-187500.02235174447
$SILENCE,32761.86826966623,-2023.3469633277612,5795.159136671918,36978.36839894872,-187500.02235174447,-187500.02235174447,-187500.02235174447,-187500.02235174447
$SILENCE,31866.859718186824,-1989.4617187335157,5533.800188756012,37007.582128951806,-187500.02235174447,-187500.02235174447,-187500.02235174447,-187500.02235174447
$SILENCE,31947.862440092857,-2200.216317202606,5694.196306967296,36849.26472297487,-187500.02235174447,-187500.02235174447,-187500.02235174447,-187500.02235174447
$SILENCE,32835.49491590201,-2220.7128668681225,5956.449324661413,36826.2424261859,-187500.02235174447,-187500.02235174447,-187500.02235174447,-187500.02235174447
$SILENCE,32876.68918093314,-2040.4013443471606,5852.44665771087,36969.98649477798,-187500.02235174447,-187500.02235174447,-187500.02235174447,-187500.02235174447
$SILENCE,31996.701001727703,-1963.645453887636,5561.248130947129,37035.45475428757,-187500.02235174447,-187500.02235174447,-187500.02235174447,-187500.02235174447
$SILENCE,31820.47984844206,-2170.2202761435838,5634.4500940382595,36872.68935116403,-187500.02235174447,-187500.02235174447,-187500.02235174447,-187500.02235174447
$SILENCE,32704.80426607183,-2242.639928178779,5932.2870889052265,36811.557330078766,-187500.02235174447,-187500.02235174447,-187500.02235174447,-187500.02235174447
$SILENCE,32950.91932426922,-2085.5965716357914,5886.018977882741,36931.54149431485,-187500.02235174447,-187500.02235174447,-187500.02235174447,-187500.02235174447
$SILENCE,32149.676340779824,-1960.8961893196333,5592.831145862478,37033.46544903105,-187500.02235174447,-187500.02235174447,-187500.02235174447,-187500.02235174447
$SILENCE,31741.824059703835,-2123.0133918539755,5588.293741738051,36912.8107324613,-187500.02235174447,-187500.02235174447,-187500.02235174447,-187500.02235174447
$SILENCE,32552.81240377574,-2242.5505212009575,5900.391149567503,36811.17735042302,-187500.02235174447,-187500.02235174447,-187500.02235174447,-187500.02235174447
$SILENCE,33005.122304573335,-2118.0736563293526,5931.772998782754,36909.34621207073,-187500.02235174447,-187500.02235174447,-187500.02235174447,-187500.02235174447
$SILENCE,32337.900380837964,-1957.2081514845077,5659.752268761667,37037.55581826637,-187500.02235174447,-187500.02235174447,-187500.02235174447,-187500.02235174447
$SILENCE,31720.165219326645,-2081.8861820562106,5559.2588256906065,36944.527857843386,-187500.02235174447,-187500.02235174447,-187500.02235174447,-187500.02235174447
$SILENCE,32392.617451264556,-2250.7759631605104,5850.099724543063,36800.627327040114,-187500.02235174447,-187500.02235174447,-187500.02235174447,-187500.02235174447
$SILENCE,32999.4896649706,-2148.919063677676,5945.832246045143,36874.879822120645,-187500.02235174447,-187500.02235174447,-187500.02235174447,-187500.02235174447
$SILENCE,32489.221690800394,-1981.5715529407923,5692.028187755131,37015.472294744526,-187500.02235174447,-187500.02235174447,-187500.02235174447,-187500.02235174447
$SILENCE,31730.04469037589,-2049.6996700405684,5530.603889298903,36972.28872445688,-187500.02235174447,-187500.02235174447,-187500.02235174447,-187500.02235174447
$SILENCE,32224.130001560454,-2239.018945577019,5799.495375096247,36816.787638281305,-187500.02235174447,-187500.02235174447,-187500.02235174447,-187500.02235174447
$SILENCE,32980.55773741695,-2173.349520367327,5972.6096359026005,36867.99548482841,-187500.02235174447,-187500.02235174447,-187500.02235174447,-187500.02235174447
$SILENCE,32662.22419288447,-1995.3402275252615,5759.217531587784,37003.022373082924,-187500.02235174447,-187500.02235174447,-187500.02235174447,-187500.02235174447
$SILENCE,31802.665508111182,-2015.9261841685993,5529.441598587227,36992.42764621111,-187500.02235174447,-187500.02235174447,-187500.02235174447,-187500.02235174447
$SILENCE,32074.708589876725,-2218.0977127668516,5747.125237837463,36829.304615176276,-187500.02235174447,-187500.02235174447,-187500.02235174447,-187500.02235174447
$SILENCE,32925.19246640116,-2190.917991509198,5977.549371427223,36845.77785083984,-187500.02235174447,-187500.02235174447,-187500.02235174447,-187500.02235174447
$SILENCE,32794.546520059885,-2015.322687068306,5814.403988647937,36984.60453565175,-187500.02235174447,-187500.02235174447,-187500.02235174447,-187500.02235174447
$SILENCE,31892.296003376963,-1986.3771779986835,5538.114075435887,37019.9873471245,-187500.02235174447,-187500.02235174447,-187500.02235174447,-187500.02235174447
$SILENCE,31927.477649149616,-2195.455395633626,5685.121498718441,36850.002330541894,-187500.02235174447,-187500.02235174447,-187500.02235174447,-187500.02235174447
$SILENCE,32827.694157087106,-2220.7352186125777,5966.552313155212,36823.24729242889,-187500.02235174447,-187500.02235174447,-187500.02235174447,-187500.02235174447
$SILENCE,32907.601643514834,-2059.8920655121883,5866.997643351275,36955.03317773738,-187500.02235174447,-187500.02235174447,-187500.02235174447,-187500.02235174447
$SILENCE,32026.965263720187,-1977.5705906832923,5561.628110602869,37025.396469282685,-187500.02235174447,-187500.02235174447,-187500.02235174447,-187500.02235174447
$SILENCE,31808.29814771392,-2163.224180129073,5624.458864266738,36879.372522756166,-187500.02235174447,-187500.02235174447,-187500.02235174447,-187500.02235174447
$SILENCE,32679.926774493073,-2238.415448476726,5931.907109249486,36811.7361440344,-187500.02235174447,-187500.02235174447,-187500.02235174447,-187500.02235174447
$SILENCE,32976.13209201481,-2082.5343826454146,5911.03057992823,36939.051680451834,-187500.02235174447,-187500.02235174447,-187500.02235174447,-187500.02235174447
$SILENCE,32200.07952452654,-1959.1527532521193,5613.595916461458,37038.04755664439,-187500.02235174447,-187500.02235174447,-187500.02235174447,-187500.02235174447
$SILENCE,31741.57819051483,-2117.648973184702,5584.516296925103,36913.30247083932,-187500.02235174447,-187500.02235174447,-187500.02235174447,-187500.02235174447
$SILENCE,32538.373176857614,-2242.0364310784857,5899.877059445031,36809.61272831115,-187500.02235174447,-187500.02235174447,-187500.02235174447,-187500.02235174447
$SILENCE,33012.65484245477,-2120.4876447305255,5933.963469739374,36899.08676136575,-187500.02235174447,-187500.02235174447,-187500.02235174447,-187500.02235174447
$SILENCE,32367.40468351897,-1968.8534103457225,5657.248873382673,37023.60832972626,-187500.02235174447,-187500.02235174447,-187500.02235174447,-187500.02235174447
$SILENCE,31724.479106006518,-2075.6276936087243,5557.33657566745,36943.477325853986,-187500.02235174447,-187500.02235174447,-187500.02235174447,-187500.02235174447
$SILENCE,32378.893480168997,-2236.6720124092117,5860.359175248048,36810.28328064481,-187500.02235174447,-187500.02235174447,-187500.02235174447,-187500.02235174447
$SILENCE,33012.09604884339,-2153.501171291014,5955.599958372111,36869.4036447291,-187500.02235174447,-187500.02235174447,-187500.02235174447,-187500.02235174447
$SILENCE,32529.141906397574,-1985.1925355425522,5711.094225775508,37014.220597055035,-187500.02235174447,-187500.02235174447,-187500.02235174447,-187500.02235174447
$SILENCE,31744.61802776075,-2038.9037774686549,5535.990659712632,36978.52486115991,-187500.02235174447,-187500.02235174447,-187500.02235174447,-187500.02235174447
$SILENCE,32203.924024572854,-2236.6496606647565,5795.67322679439,36819.872179016136,-187500.02235174447,-187500.02235174447,-187500.02235174447,-187500.02235174447
$SILENCE,32983.463464196146,-2181.731424538067,5980.164525528494,36860.3511882247,-187500.02235174447,-187500.02235174447,-187500.02235174447,-187500.02235174447
$SILENCE,32675.523480835378,-2005.286753807873,5761.09507812203,36995.51218694594,-187500.02235174447,-187500.02235174447,-187500.02235174447,-187500.02235174447
$SILENCE,31810.57802564836,-2003.3645037847168,5531.3191451214725,37005.30225101736,-187500.02235174447,-187500.02235174447,-187500.02235174447,-187500.02235174447
$SILENCE,32043.214981939196,-2208.3300004398825,5738.94449936682,36839.07232750324,-187500.02235174447,-187500.02235174447,-187500.02235174447,-187500.02235174447
$SILENCE,32892.40245728522,-2204.3290381823826,5964.808877087698,36834.95960652347,-187500.02235174447,-187500.02235174447,-187500.02235174447,-187500.02235174447
$SILENCE,32807.30936614387,-2029.583100030792,5823.411741663425,36979.15071000466,-187500.02235174447,-187500.02235174447,-187500.02235174447,-187500.02235174447
$SILENCE,31929.80223057297,-1977.7047011500242,5556.666023333791,37024.03301287091,-187500.02235174447,-187500.02235174447,-187500.02235174447,-187500.02235174447
$SILENCE,31909.46214311864,-2185.4865176065587,5673.185667179307,36851.20932474248,-187500.02235174447,-187500.02235174447,-187500.02235174447,-187500.02235174447
$SILENCE,32776.732179729006,-2230.1005995393516,5937.807969785687,36808.94217597749,-187500.02235174447,-187500.02235174447,-187500.02235174447,-187500.02235174447
$SILENCE,32893.18476834116,-2063.7812690474116,5860.11330605904,36946.74068054446,-187500.02235174447,-187500.02235174447,-187500.02235174447,-187500.02235174447
$SILENCE,32063.331551948973,-1960.225636985974,5589.210163260718,37041.4450218016,-187500.02235174447,-187500.02235174447,-187500.02235174447,-187500.02235174447
$SILENCE,31808.56636864738,-2151.601273012313,5629.890338169377,36889.94489788353,-187500.02235174447,-187500.02235174447,-187500.02235174447,-187500.02235174447
$SILENCE,32650.780099723353,-2236.493198453569,5924.642792301512,36810.66326030055,-187500.02235174447,-187500.02235174447,-187500.02235174447,-187500.02235174447
$SILENCE,32960.08353949589,-2092.547964161392,5904.258001358271,36925.26065412291,-187500.02235174447,-187500.02235174447,-187500.02235174447,-187500.02235174447
$SILENCE,32226.834562639546,-1960.002119541421,5635.277108583106,37045.20011487009,-187500.02235174447,-187500.02235174447,-187500.02235174447,-187500.02235174447
$SILENCE,31766.85801349378,-2113.0445138269083,5600.676608166291,36921.88554071016,-187500.02235174447,-187500.02235174447,-187500.02235174447,-187500.02235174447
$SILENCE,32503.213882829416,-2245.947986358164,5884.476707515324,36795.06174267075,-187500.02235174447,-187500.02235174447,-187500.02235174447,-187500.02235174447
$SILENCE,32966.94552504367,-2127.9084238896876,5921.3123823776705,36888.1567583271,-187500.02235174447,-187500.02235174447,-187500.02235174447,-187500.02235174447
$SILENCE,32360.721511926833,-1969.3675004681947,5662.16625716284,37020.09910584678,-187500.02235174447,-187500.02235174447,-187500.02235174447,-187500.02235174447
$SILENCE,31743.075757393333,-2069.749184816979,5566.43373566076,36948.282950911875,-187500.02235174447,-187500.02235174447,-187500.02235174447,-187500.02235174447
$SILENCE,32356.83230839161,-2241.701154911656,5840.935509316387,36802.77309450783,-187500.02235174447,-187500.02235174447,-187500.02235174447,-187500.02235174447
$SILENCE,32963.79392907547,-2155.1999038696176,5941.965394254375,36865.82736561625,-187500.02235174447,-187500.02235174447,-187500.02235174447,-187500.02235174447
$SILENCE,32512.556912011736,-1983.6726169195913,5711.496557175703,37002.03889632689,-187500.02235174447,-187500.02235174447,-187500.02235174447,-187500.02235174447
$SILENCE,31753.91635345416,-2044.379954860205,5538.091723691431,36968.64539011066,-187500.02235174447,-187500.02235174447,-187500.02235174447,-187500.02235174447
$SILENCE,32195.765637846667,-2229.407695461237,5790.957008714319,36816.60882432566,-187500.02235174447,-187500.02235174447,-187500.02235174447,-187500.02235174447
$SILENCE,32944.83964977737,-2175.7635087685003,5967.1558102555055,36858.56304866827,-187500.02235174447,-187500.02235174447,-187500.02235174447,-187500.02235174447
$SILENCE,32676.909288991606,-1994.4908612359598,5788.028930190674,37009.75024816397,-187500.02235174447,-187500.02235174447,-187500.02235174447,-187500.02235174447
$SILENCE,31835.611979438305,-2006.6502102196469,5553.2685581765845,37002.888262616194,-187500.02235174447,-187500.02235174447,-187500.02235174447,-187500.02235174447
$SILENCE,32054.703778589224,-2216.5107389105247,5733.8035981421,36830.39985065459,-187500.02235174447,-187500.02235174447,-187500.02235174447,-187500.02235174447
$SILENCE,32878.723189678574,-2196.9976660010416,5964.205379987405,36839.787583325815,-187500.02235174447,-187500.02235174447,-187500.02235174447,-187500.02235174447
$SILENCE,32779.48144429701,-2036.6015477897583,5815.231003192783,36972.98162853499,-187500.02235174447,-187500.02235174447,-187500.02235174447,-187500.02235174447
$SILENCE,31910.535026852493,-1992.747425168446,5542.606776071403,37014.95820462206,-187500.02235174447,-187500.02235174447,-187500.02235174447,-187500.02235174447
$SILENCE,31902.823675015414,-2182.513735594003,5672.64922531238,36865.15681328259,-187500.02235174447,-187500.02235174447,-187500.02235174447,-187500.02235174447
$SILENCE,32771.32305757082,-2214.5437853984577,5948.916786779975,36830.846885543695,-187500.02235174447,-187500.02235174447,-187500.02235174447,-187500.02235174447
$SILENCE,32873.67169543167,-2057.7910015333896,5856.760544390744,36948.282950911875,-187500.02235174447,-187500.02235174447,-187500.02235174447,-187500.02235174447
$SILENCE,32052.937990777256,-1971.8932475916445,5572.044023519043,37029.48683851801,-187500.02235174447,-187500.02235174447,-187500.02235174447,-187500.02235174447
$SILENCE,31812.164999504686,-2150.774258467467,5627.275184068106,36901.05371487781,-187500.02235174447,-187500.02235174447,-187500.02235174447,-187500.02235174447
$SILENCE,32641.012387396386,-2240.5835676888905,5915.009190441274,36817.547597592784,-187500.02235174447,-187500.02235174447,-187500.02235174447,-187500.02235174447
$SILENCE,32924.14193441176,-2104.4837957005257,5881.347463291581,36914.19654061753,-187500.02235174447,-187500.02235174447,-187500.02235174447,-187500.02235174447
$SILENCE,32196.771466347156,-1968.7640033679013,5612.768901916612,37033.84542868679,-187500.02235174447,-187500.02235174447,-187500.02235174447,-187500.02235174447
$SILENCE,31746.227353361533,-2110.6528771701905,5581.3870527013605,36927.40642159062,-187500.02235174447,-187500.02235174447,-187500.02235174447,-187500.02235174447
$SILENCE,32498.18474032697,-2234.638003663779,5882.286236558704,36825.14719070759,-187500.02235174447,-187500.02235174447,-187500.02235174447,-187500.02235174447
$SILENCE,32967.05728376595,-2121.2699557864617,5921.446492844402,36909.68148823756,-187500.02235174447,-187500.02235174447,-187500.02235174447,-187500.02235174447
$SILENCE,32358.151061314475,-1985.2819425203734,5649.828094223511,37033.10782111977,-187500.02235174447,-187500.02235174447,-187500.02235174447,-187500.02235174447
$SILENCE,31723.89796065068,-2081.0815192558193,5543.14321793833,36965.38203542019,-187500.02235174447,-187500.02235174447,-187500.02235174447,-187500.02235174447
$SILENCE,32332.87123833552,-2239.510683955036,5830.206671977839,36836.12189723515,-187500.02235174447,-187500.02235174447,-187500.02235174447,-187500.02235174447
$SILENCE,32953.31096092593,-2153.702336991112,5939.5067023642905,36900.58432824425,-187500.02235174447,-187500.02235174447,-187500.02235174447,-187500.02235174447
$SILENCE,32497.670650204498,-1990.9592856120214,5698.644304113902,37028.14573385069,-187500.02235174447,-187500.02235174447,-187500.02235174447,-187500.02235174447
$SILENCE,31740.415899803153,-2031.8182744763226,5529.843929987423,37005.45871322855,-187500.02235174447,-187500.02235174447,-187500.02235174447,-187500.02235174447
$SILENCE,32163.847346764487,-2229.4523989501477,5779.110584153007,36848.21419098547,-187500.02235174447,-187500.02235174447,-187500.02235174447,-187500.02235174447
$SILENCE,32912.89900695074,-2185.4641658621035,5951.755458325799,36877.67379017756,-187500.02235174447,-187500.02235174447,-187500.02235174447,-187500.02235174447
$SILENCE,32637.681977472545,-2020.3294778262948,5749.159246582895,37005.346954506276,-187500.02235174447,-187500.02235174447,-187500.02235174447,-187500.02235174447
$SILENCE,31803.693688356125,-2010.8299864327894,5525.731209007646,37019.29444304639,-187500.02235174447,-187500.02235174447,-187500.02235174447,-187500.02235174447
$SILENCE,31996.61159474988,-2213.739122598067,5714.782263610633,36855.18793525552,-187500.02235174447,-187500.02235174447,-187500.02235174447,-187500.02235174447
$SILENCE,32836.858372313785,-2211.6827621081784,5949.386173413536,36849.68940611952,-187500.02235174447,-187500.02235174447,-187500.02235174447,-187500.02235174447
$SILENCE,32762.53882199989,-2037.674431523613,5799.517726840702,36977.586087892785,-187500.02235174447,-187500.02235174447,-187500.02235174447,-187500.02235174447
$SILENCE,31913.776029798515,-1978.911695350611,5539.566938825481,37034.67244323164,-187500.02235174447,-187500.02235174447,-187500.02235174447,-187500.02235174447
$SILENCE,31876.985058425078,-2183.407805372215,5656.690079771291,36878.523156466865,-187500.02235174447,-187500.02235174447,-187500.02235174447,-187500.02235174447
$SILENCE,32730.776993128897,-2224.2667942365165,5932.5776615831455,36844.77202233935,-187500.02235174447,-187500.02235174447,-187500.02235174447,-187500.02235174447
$SILENCE,32860.46181445859,-2063.1107167137525,5857.2746345132155,36963.99622726396,-187500.02235174447,-187500.02235174447,-187500.02235174447,-187500.02235174447
$SILENCE,32052.53565937706,-1973.904904592622,5569.585331628959,37035.678271732126,-187500.02235174447,-187500.02235174447,-187500.02235174447,-187500.02235174447
$SILENCE,31786.9522317591,-2146.5944822543242,5613.953544372743,36904.27236607938,-187500.02235174447,-187500.02235174447,-187500.02235174447,-187500.02235174447
$SILENCE,32601.293337499304,-2242.4834659675917,5897.775995466232,36818.821647026736,-187500.02235174447,-187500.02235174447,-187500.02235174447,-187500.02235174447
$SILENCE,32925.080707678884,-2094.9396008181097,5887.002454638774,36931.36268035921,-187500.02235174447,-187500.02235174447,-187500.02235174447,-187500.02235174447
$SILENCE,32221.872475370466,-1959.0186427853876,5623.497739255159,37042.69671949109,-187500.02235174447,-187500.02235174447,-187500.02235174447,-187500.02235174447
$SILENCE,31736.146716612187,-2111.032856825931,5573.2286659751735,36922.75725874391,-187500.02235174447,-187500.02235174447,-187500.02235174447,-187500.02235174447
$SILENCE,32458.935077063452,-2254.6875184401893,5857.744021146777,36802.460170085455,-187500.02235174447,-187500.02235174447,-187500.02235174447,-187500.02235174447
$SILENCE,32949.958199257635,-2144.024031641964,5906.604934526078,36884.803996658804,-187500.02235174447,-187500.02235174447,-187500.02235174447,-187500.02235174447
$SILENCE,32383.721456971343,-1978.48701220596,5672.001024723176,37023.20599832606,-187500.02235174447,-187500.02235174447,-187500.02235174447,-187500.02235174447
$SILENCE,31731.005815387467,-2063.5353998584033,5556.330747166961,36960.665817340116,-187500.02235174447,-187500.02235174447,-187500.02235174447,-187500.02235174447
$SILENCE,32303.568101354613,-2231.6205181623122,5823.612907363523,36822.55438835077,-187500.02235174447,-187500.02235174447,-187500.02235174447,-187500.02235174447
$SILENCE,32941.308074153436,-2157.2115608705953,5933.829359272642,36870.23065927394,-187500.02235174447,-187500.02235174447,-187500.02235174447,-187500.02235174447
$SILENCE,32524.090412150672,-1987.807689643823,5708.993161796709,36998.01558232494,-187500.02235174447,-187500.02235174447,-187500.02235174447,-187500.02235174447
$SILENCE,31765.874536737745,-2029.5607482863365,5539.8575115034,36980.91649781662,-187500.02235174447,-187500.02235174447,-187500.02235174447,-187500.02235174447
$SILENCE,32149.74339601319,-2230.569986172913,5770.259293348706,36819.67101331604,-187500.02235174447,-187500.02235174447,-187500.02235174447,-187500.02235174447
$SILENCE,32905.54528302494,-2191.9685234985977,5946.703964078899,36843.16269673857,-187500.02235174447,-187500.02235174447,-187500.02235174447,-187500.02235174447
$SILENCE,32684.732399550965,-2006.3819892861832,5786.5984185455345,36995.04280031238,-187500.02235174447,-187500.02235174447,-187500.02235174447,-187500.02235174447
$SILENCE,31843.993883609044,-1990.646361189647,5551.033383731054,37006.91157661815,-187500.02235174447,-187500.02235174447,-187500.02235174447,-187500.02235174447
$SILENCE,32000.32198432946,-2209.2687737070055,5708.479071674236,36832.50091463338,-187500.02235174447,-187500.02235174447,-187500.02235174447,-187500.02235174447
$SILENCE,32830.152848977195,-2205.1337009827735,5942.233615187838,36833.57379836724,-187500.02235174447,-187500.02235174447,-187500.02235174447,-187500.02235174447
$SILENCE,32784.44353156609,-2038.4120390906382,5814.3592851590265,36964.152689475144,-187500.02235174447,-187500.02235174447,-187500.02235174447,-187500.02235174447
$SILENCE,31944.062643535453,-1977.101204049731,5557.180113456263,37018.065097101346,-187500.02235174447,-187500.02235174447,-187500.02235174447,-187500.02235174447
$SILENCE,31870.480700788583,-2173.8189070008884,5660.3334141175055,36860.842926602716,-187500.02235174447,-187500.02235174447,-187500.02235174447,-187500.02235174447
$SILENCE,32712.403859186634,-2231.665221651223,5921.580603311134,36811.0879434452,-187500.02235174447,-187500.02235174447,-187500.02235174447,-187500.02235174447
$SILENCE,32877.98558211155,-2073.996016263487,5864.002509594263,36932.99435770445,-187500.02235174447,-187500.02235174447,-187500.02235174447,-187500.02235174447
$SILENCE,32093.461703474728,-1958.7280701074685,5598.48613720967,37021.52961749192,-187500.02235174447,-187500.02235174447,-187500.02235174447,-187500.02235174447
$SILENCE,31799.33509818734,-2127.7519616785007,5625.040009622576,36895.53283399735,-187500.02235174447,-187500.02235174447,-187500.02235174447,-187500.02235174447
$SILENCE,32600.26515725436,-2231.575814673402,5907.186079881916,36812.384344623606,-187500.02235174447,-187500.02235174447,-187500.02235174447,-187500.02235174447
$SILENCE,32942.29155090947,-2094.492565929004,5903.83331821362,36919.80682847581,-187500.02235174447,-187500.02235174447,-187500.02235174447,-187500.02235174447
$SILENCE,32242.860763414,-1961.38792769765,5631.142035858874,37026.06702161634,-187500.02235174447,-187500.02235174447,-187500.02235174447,-187500.02235174447
$SILENCE,31735.029129389422,-2094.6266763957356,5580.045948034042,36923.74073549995,-187500.02235174447,-187500.02235174447,-187500.02235174447,-187500.02235174447
$SILENCE,32441.143088477027,-2242.1928932896726,5867.489381729291,36802.68368753001,-187500.02235174447,-187500.02235174447,-187500.02235174447,-187500.02235174447
$SILENCE,32953.42271964821,-2139.151351350707,5923.949888223397,36877.42792098855,-187500.02235174447,-187500.02235174447,-187500.02235174447,-187500.02235174447
$SILENCE,32397.914814700463,-1973.3461109812392,5674.415013124349,37010.42080049763,-187500.02235174447,-187500.02235174447,-187500.02235174447,-187500.02235174447
$SILENCE,31740.013568402956,-2052.6277485642136,5557.068354733987,36959.59293360626,-187500.02235174447,-187500.02235174447,-187500.02235174447,-187500.02235174447
$SILENCE,32292.235766915772,-2225.764361115022,5832.5536051456465,36816.653527814575,-187500.02235174447,-187500.02235174447,-187500.02235174447,-187500.02235174447
$SILENCE,32945.24198117757,-2159.4690870605814,5952.381307170547,36861.6475894031,-187500.02235174447,-187500.02235174447,-187500.02235174447,-187500.02235174447
$SILENCE,32565.552898115267,-1984.2537622754292,5737.201063299306,37004.341126005784,-187500.02235174447,-187500.02235174447,-187500.02235174447,-187500.02235174447
$SILENCE,31780.62668807825,-2017.8931376806663,5544.551377839015,36986.727951375,-187500.02235174447,-187500.02235174447,-187500.02235174447,-187500.02235174447
$SILENCE,32125.894084679378,-2224.9149948257204,5766.414793302392,36817.16761793705,-187500.02235174447,-187500.02235174447,-187500.02235174447,-187500.02235174447
$SILENCE,32888.22268107208,-2192.3932066432485,5949.833208302643,36830.6457198436,-187500.02235174447,-187500.02235174447,-187500.02235174447,-187500.02235174447
$SILENCE,32690.275632175882,-2016.037942890876,5786.6654737789,36981.20707049454,-187500.02235174447,-187500.02235174447,-187500.02235174447,-187500.02235174447
$SILENCE,31871.26301184452,-1984.5666866978036,5565.986700771654,37016.96986162304,-187500.02235174447,-187500.02235174447,-187500.02235174447,-187500.02235174447
$SILENCE,31995.42695229375,-2192.3932066432485,5726.874557360954,36845.68844386202,-187500.02235174447,-187500.02235174447,-187500.02235174447,-187500.02235174447
$SILENCE,32820.11691571676,-2199.679875335679,5957.27633920626,36831.20451345498,-187500.02235174447,-187500.02235174447,-187500.02235174447,-187500.02235174447
$SILENCE,32795.887624727206,-2040.7589722584455,5823.367038174515,36955.68137832658,-187500.02235174447,-187500.02235174447,-187500.02235174447,-187500.02235174447
$SILENCE,31970.817681648456,-1978.1517360391304,5562.76804957009,37018.42272501263,-187500.02235174447,-187500.02235174447,-187500.02235174447,-187500.02235174447
$SILENCE,31874.615773512814,-2169.8179447433886,5664.31202463055,36863.25691500389,-187500.02235174447,-187500.02235174447,-187500.02235174447,-187500.02235174447
$SILENCE,32716.42717318859,-2222.4563029356364,5938.165597696972,36814.75362953587,-187500.02235174447,-187500.02235174447,-187500.02235174447,-187500.02235174447
$SILENCE,32897.83393118786,-2066.2399609374957,5874.731346932811,36935.65421529463,-187500.02235174447,-187500.02235174447,-187500.02235174447,-187500.02235174447
$SILENCE,32126.519933524127,-1956.939930551044,5603.492927967659,37030.00092864048,-187500.02235174447,-187500.02235174447,-187500.02235174447,-187500.02235174447
$SILENCE,31800.63149936575,-2124.7568279214893,5620.614364220424,36901.63486023365,-187500.02235174447,-187500.02235174447,-187500.02235174447,-187500.02235174447
$SILENCE,32589.044581537793,-2235.375611230804,5909.756530494276,36807.690478287994,-187500.02235174447,-187500.02235174447,-187500.02235174447,-187500.02235174447
$SILENCE,32945.68901606667,-2102.94152533311,5907.230783370827,36907.535720769854,-187500.02235174447,-187500.02235174447,-187500.02235174447,-187500.02235174447
$SILENCE,32266.397150325436,-1963.5336951653596,5634.472445782715,37017.19337906759,-187500.02235174447,-187500.02235174447,-187500.02235174447,-187500.02235174447
$SILENCE,31752.99993193149,-2099.678170642635,5578.2131049887075,36925.64063377865,-187500.02235174447,-187500.02235174447,-187500.02235174447,-187500.02235174447
$SILENCE,32442.28302744425,-2238.057820565441,5875.491306244291,36809.00923121086,-187500.02235174447,-187500.02235174447,-187500.02235174447,-187500.02235174447
$SILENCE,32970.521804156524,-2133.630470470246,5943.50766462179,36887.597964715715,-187500.02235174447,-187500.02235174447,-187500.02235174447,-187500.02235174447
$SILENCE,32441.880696044052,-1970.932122580066,5700.678312859334,37018.959166879555,-187500.02235174447,-187500.02235174447,-187500.02235174447,-187500.02235174447
$SILENCE,31760.42071109065,-2049.8561322517553,5562.3657181698945,36963.7727098194,-187500.02235174447,-187500.02235174447,-187500.02235174447,-187500.02235174447
$SILENCE,32291.922842493397,-2226.077285537396,5828.239718465772,36819.939234249505,-187500.02235174447,-187500.02235174447,-187500.02235174447,-187500.02235174447
$SILENCE,32960.35176042936,-2155.6916422476343,5961.232597974849,36868.174298784055,-187500.02235174447,-187500.02235174447,-187500.02235174447,-187500.02235174447
$SILENCE,32585.803578591775,-1994.423806002594,5740.129141822951,36994.305192745356,-187500.02235174447,-187500.02235174447,-187500.02235174447,-187500.02235174447
$SILENCE,31801.14558948822,-2020.1730156151077,5549.245244174629,36981.58705015029,-187500.02235174447,-187500.02235174447,-187500.02235174447,-187500.02235174447
$SILENCE,32129.515067281136,-2213.828529575888,5773.3885375724485,36824.23076918492,-187500.02235174447,-187500.02235174447,-187500.02235174447,-187500.02235174447
$SILENCE,32905.12059988029,-2180.3232646373826,5962.841923575631,36837.59711236919,-187500.02235174447,-187500.02235174447,-187500.02235174447,-187500.02235174447
$SILENCE,32714.99666154345,-2012.0146288889205,5794.95797097182,36976.960239048036,-187500.02235174447,-187500.02235174447,-187500.02235174447,-187500.02235174447
$SILENCE,31874.36990432381,-1989.6852361780689,5554.810828544,37006.84452138478,-187500.02235174447,-187500.02235174447,-187500.02235174447,-187500.02235174447
$SILENCE,31970.549460714992,-2196.8859072787654,5703.0699495160525,36838.602940869685,-187500.02235174447,-187500.02235174447,-187500.02235174447,-187500.02235174447
$SILENCE,32802.77196201944,-2208.8440905623547,5946.480446634347,36820.90035926108,-187500.02235174447,-187500.02235174447,-187500.02235174447,-187500.02235174447
$SILENCE,32830.04109025492,-2041.2954141253729,5849.004489064752,36958.631808594684,-187500.02235174447,-187500.02235174447,-187500.02235174447,-187500.02235174447
$SILENCE,32002.735972730636,-1977.6823494055689,5583.2645992356065,37022.17781808112,-187500.02235174447,-187500.02235174447,-187500.02235174447,-187500.02235174447
$SILENCE,31863.708122218624,-2162.955959195609,5660.623986795425,36868.934258095534,-187500.02235174447,-187500.02235174447,-187500.02235174447,-187500.02235174447
$SILENCE,32704.625452116186,-2220.578756401391,5939.79727504221,36816.027678969826,-187500.02235174447,-187500.02235174447,-187500.02235174447,-187500.02235174447
$SILENCE,32912.98841392856,-2064.4741731255262,5895.496117531791,36938.89521824065,-187500.02235174447,-187500.02235174447,-187500.02235174447,-187500.02235174447
$SILENCE,32142.903762209866,-1958.5939596407368,5611.58425946048,37027.206960583564,-187500.02235174447,-187500.02235174447,-187500.02235174447,-187500.02235174447
$SILENCE,31790.28264168294,-2120.889976130721,5613.886489139377,36901.34428755573,-187500.02235174447,-187500.02235174447,-187500.02235174447,-187500.02235174447
$SILENCE,32568.033941749807,-2237.3649164873264,5900.279390845227,36794.279431614814,-187500.02235174447,-187500.02235174447,-187500.02235174447,-187500.02235174447
$SILENCE,32954.76382431553,-2115.1902812946178,5914.159824151972,36895.19755783052,-187500.02235174447,-187500.02235174447,-187500.02235174447,-187500.02235174447
$SILENCE,32295.856749517534,-1971.1779917690747,5652.599710535969,37017.41689651214,-187500.02235174447,-187500.02235174447,-187500.02235174447,-187500.02235174447
$SILENCE,31747.613161517762,-2086.3341792028164,5577.1625729993075,36929.127505913675,-187500.02235174447,-187500.02235174447,-187500.02235174447,-187500.02235174447
$SILENCE,32428.17907669295,-2225.429084948192,5873.390242265492,36811.959661478955,-187500.02235174447,-187500.02235174447,-187500.02235174447,-187500.02235174447
$SILENCE,32983.37405721832,-2123.281612787439,5958.75155434031,36889.430807761055,-187500.02235174447,-187500.02235174447,-187500.02235174447,-187500.02235174447
$SILENCE,32463.919516076985,-1966.8194016002897,5709.887231574921,37021.0378791139,-187500.02235174447,-187500.02235174447,-187500.02235174447,-187500.02235174447
$SILENCE,31761.33713261332,-2037.8308937348002,5562.656290847814,36966.946657532055,-187500.02235174447,-187500.02235174447,-187500.02235174447,-187500.02235174447
$SILENCE,32266.039522414154,-2234.7050588971447,5813.442863636358,36801.409638096055,-187500.02235174447,-187500.02235174447,-187500.02235174447,-187500.02235174447
$SILENCE,32962.13989998578,-2164.7440987520336,5958.460981662391,36849.510592163875,-187500.02235174447,-187500.02235174447,-187500.02235174447,-187500.02235174447
$SILENCE,32606.478942212936,-1998.4024165156386,5745.4488570033145,36985.18568100759,-187500.02235174447,-187500.02235174447,-187500.02235174447,-187500.02235174447
$SILENCE,31801.458513910595,-2014.1156928677194,5542.204444671207,36984.73864611848,-187500.02235174447,-187500.02235174447,-187500.02235174447,-187500.02235174447
$SILENCE,32116.662814219337,-2207.7041515951337,5764.2913775791385,36826.354184908174,-187500.02235174447,-187500.02235174447,-187500.02235174447,-187500.02235174447
$SILENCE,32914.0165941735,-2179.3397878813494,5974.196609758927,36842.805068827285,-187500.02235174447,-187500.02235174447,-187500.02235174447,-187500.02235174447
$SILENCE,32750.468879994023,-2009.1536055986412,5813.621677592001,36982.2799542284,-187500.02235174447,-187500.02235174447,-187500.02235174447,-187500.02235174447
$SILENCE,31896.83340750139,-1985.2148872870073,5558.118886723386,37007.582128951806,-187500.02235174447,-187500.02235174447,-187500.02235174447,-187500.02235174447
$SILENCE,31978.886661396824,-2191.342674653849,5710.17780425284,36844.45909791697,-187500.02235174447,-187500.02235174447,-187500.02235174447,-187500.02235174447
$SILENCE,32821.10039247279,-2211.146320241251,5960.338528196637,36818.598129582184,-187500.02235174447,-187500.02235174447,-187500.02235174447,-187500.02235174447
$SILENCE,32855.20915451159,-2043.5976438042694,5858.816904880632,36951.300436413345,-187500.02235174447,-187500.02235174447,-187500.02235174447,-187500.02235174447
$SILENCE,32023.99248170763,-1969.7251283794797,5584.829221347478,37019.71912619104,-187500.02235174447,-187500.02235174447,-187500.02235174447,-187500.02235174447
$SILENCE,31848.754805178025,-2156.965691681587,5646.765905233134,36869.560106940284,-187500.02235174447,-187500.02235174447,-187500.02235174447,-187500.02235174447
$SILENCE,32694.589518855755,-2223.8421110918657,5937.025658729752,36812.49610334589,-187500.02235174447,-187500.02235174447,-187500.02235174447,-187500.02235174447
$SILENCE,32922.73377451107,-2079.5616006328587,5894.780861709221,36924.00895643341,-187500.02235174447,-187500.02235174447,-187500.02235174447,-187500.02235174447
$SILENCE,32157.812375761558,-1959.5997881412254,5614.266468795117,37019.07092560183,-187500.02235174447,-187500.02235174447,-187500.02235174447,-187500.02235174447
$SILENCE,31784.71705731357,-2110.5858219368247,5617.283954296584,36908.89917718162,-187500.02235174447,-187500.02235174447,-187500.02235174447,-187500.02235174447
não,32558.310932911747,-2231.017021062019,5906.090844403607,36802.527225318816,-187500.02235174447,-187500.02235174447,-187500.02235174447,-187500.02235174447
não,32973.47223442462,-2102.896821844199,5934.74578079531,36906.2616713359,-187500.02235174447,-187500.02235174447,-187500.02235174447,-187500.02235174447
não,32328.736165611288,-1957.4763724179713,5669.810553766555,37028.90569316217,-187500.02235174447,-187500.02235174447,-187500.02235174447,-187500.02235174447
não,31738.89598118019,-2082.3332169453165,5570.680567107269,36928.65811928012,-187500.02235174447,-187500.02235174447,-187500.02235174447,-187500.02235174447
não,32399.658250767978,-2236.20262577565,5860.470933970325,36801.09671367368,-187500.02235174447,-187500.02235174447,-187500.02235174447,-187500.02235174447
não,32977.495548426574,-2135.9774036380536,5954.839999060631,36881.89826987962,-187500.02235174447,-187500.02235174447,-187500.02235174447,-187500.02235174447
não,32487.366496010603,-1978.777584883879,5715.139891521918,37006.665707429136,-187500.02235174447,-187500.02235174447,-187500.02235174447,-187500.02235174447
não,31759.772510501447,-2040.4683995805265,5558.09653497893,36960.50935512893,-187500.02235174447,-187500.02235174447,-187500.02235174447,-187500.02235174447
não,32238.14454533393,-2225.1385122702736,5810.268915923705,36809.880949244616,-187500.02235174447,-187500.02235174447,-187500.02235174447,-187500.02235174447
não,32947.81243178993,-2167.9851016980533,5964.674766620966,36852.237504987424,-187500.02235174447,-187500.02235174447,-187500.02235174447,-187500.02235174447
não,32622.5498464763,-1997.1730705705966,5763.866694434488,36993.92521308961,-187500.02235174447,-187500.02235174447,-187500.02235174447,-187500.02235174447
não,31816.612996651293,-2007.9466113980548,5556.889540778344,36995.66864915713,-187500.02235174447,-187500.02235174447,-187500.02235174447,-187500.02235174447
não,32100.949537867255,-2202.5185468815025,5766.727717724767,36833.99848151189,-187500.02235174447,-187500.02235174447,-187500.02235174447,-187500.02235174447
não,32894.03413463046,-2187.3640641408047,5970.866199835086,36839.720528092446,-187500.02235174447,-187500.02235174447,-187500.02235174447,-187500.02235174447
não,32755.430967263103,-2012.3722568002054,5816.907384026931,36982.950506562054,-187500.02235174447,-187500.02235174447,-187500.02235174447,-187500.02235174447
não,31916.79351529998,-1973.6366836591583,5571.462878163205,37027.60929198376,-187500.02235174447,-187500.02235174447,-187500.02235174447,-187500.02235174447
não,31961.161728043764,-2176.8810959912653,5711.071874031052,36856.86431608967,-187500.02235174447,-187500.02235174447,-187500.02235174447,-187500.02235174447
não,32791.6407932807,-2223.216262247117,5950.6602228474885,36808.76336202185,-187500.02235174447,-187500.02235174447,-187500.02235174447,-187500.02235174447
não,32856.81848011237,-2053.253597408962,5866.1929805508835,36954.40732889263,-187500.02235174447,-187500.02235174447,-187500.02235174447,-187500.02235174447
não,32048.959380264212,-1963.421936443083,5605.146957057352,37036.54998976588,-187500.02235174447,-187500.02235174447,-187500.02235174447,-187500.02235174447
não,31854.946238392145,-2145.7898194539334,5658.031184438609,36886.30156353731,-187500.02235174447,-187500.02235174447,-187500.02235174447,-187500.02235174447
não,32688.487492619457,-2219.148244756251,5941.965394254375,36818.262853415355,-187500.02235174447,-187500.02235174447,-187500.02235174447,-187500.02235174447
não,32940.525763097496,-2080.8803535557217,5906.984914181819,36928.79222974685,-187500.02235174447,-187500.02235174447,-187500.02235174447,-187500.02235174447
não,32189.171873232353,-1960.29269221934,5629.152730602352,37031.49849551899,-187500.02235174447,-187500.02235174447,-187500.02235174447,-187500.02235174447
não,31778.99501073301,-2109.9376213476207,5612.880660638888,36917.10226739672,-187500.02235174447,-187500.02235174447,-187500.02235174447,-187500.02235174447
não,32540.004854202853,-2228.7818466164886,5908.258963615771,36811.691440545495,-187500.02235174447,-187500.02235174447,-187500.02235174447,-187500.02235174447
não,32960.24000170708,-2105.4896242010145,5933.069399961162,36900.472569521975,-187500.02235174447,-187500.02235174447,-187500.02235174447,-187500.02235174447
não,32347.243410020285,-1952.7378025934463,5681.008777738664,37034.828905442824,-187500.02235174447,-187500.02235174447,-187500.02235174447,-187500.02235174447
não,31757.604391289282,-2062.5966265912803,5590.752433628134,36952.59683759175,-187500.02235174447,-187500.02235174447,-187500.02235174447,-187500.02235174447
não,32382.51446277076,-2240.404753733248,5863.153143304961,36799.889719473096,-187500.02235174447,-187500.02235174447,-187500.02235174447,-187500.02235174447
não,32976.13209201481,-2142.9511479081093,5966.574664899667,36871.83998487473,-187500.02235174447,-187500.02235174447,-187500.02235174447,-187500.02235174447
não,32507.728935209387,-1975.357767982217,5732.2389760302285,37016.388716267196,-187500.02235174447,-187500.02235174447,-187500.02235174447,-187500.02235174447
não,31767.416807105164,-2033.4052483326493,5561.739869325146,36979.888317571684,-187500.02235174447,-187500.02235174447,-187500.02235174447,-187500.02235174447
não,32211.41185896538,-2232.291070495972,5803.0940059535515,36814.61951906914,-187500.02235174447,-187500.02235174447,-187500.02235174447,-187500.02235174447
não,32945.979588744594,-2172.4554505891147,5973.637816147544,36856.149060267104,-187500.02235174447,-187500.02235174447,-187500.02235174447,-187500.02235174447
não,32664.526422563365,-1989.327608266784,5788.654779035423,37000.89895735967,-187500.02235174447,-187500.02235174447,-187500.02235174447,-187500.02235174447
não,31840.372901007286,-1987.9194483660995,5567.663081605802,37007.31390801834,-187500.02235174447,-187500.02235174447,-187500.02235174447,-187500.02235174447
não,32076.921412577798,-2194.5613258554135,5761.787982200144,36834.42316465654,-187500.02235174447,-187500.02235174447,-187500.02235174447,-187500.02235174447
não,32877.91852687818,-2198.405825901726,5970.665034134989,36819.53690284931,-187500.02235174447,-187500.02235174447,-187500.02235174447,-187500.02235174447
não,32770.42898779261,-2033.7181727550237,5822.540023629668,36949.78051779038,-187500.02235174447,-187500.02235174447,-187500.02235174447,-187500.02235174447
não,31982.015905620567,-1987.9194483660995,5586.907933581821,37003.40235273867,-187500.02235174447,-187500.02235174447,-187500.02235174447,-187500.02235174447
não,31990.867196424868,-2162.955959195609,5711.161281008874,36867.615505172675,-187500.02235174447,-187500.02235174447,-187500.02235174447,-187500.02235174447
não,32773.1335488717,-2211.123968496796,5953.342432182126,36822.442629628495,-187500.02235174447,-187500.02235174447,-187500.02235174447,-187500.02235174447
não,32856.79612836792,-2050.4149258631383,5865.388317750492,36949.40053813464,-187500.02235174447,-187500.02235174447,-187500.02235174447,-187500.02235174447
não,32055.82136581199,-1958.7280701074685,5600.453090721738,37037.220542099545,-187500.02235174447,-187500.02235174447,-187500.02235174447,-187500.02235174447
não,31836.97543585008,-2141.0736013738633,5657.919425716332,36890.39193277263,-187500.02235174447,-187500.02235174447,-187500.02235174447,-187500.02235174447
não,32659.966666694483,-2229.273584994505,5935.818664529164,36798.52626306132,-187500.02235174447,-187500.02235174447,-187500.02235174447,-187500.02235174447
não,32945.95723700014,-2086.580048391825,5913.60103054059,36918.510427297406,-187500.02235174447,-187500.02235174447,-187500.02235174447,-187500.02235174447
não,32211.121286287464,-1960.29269221934,5636.595861505969,37029.12921060672,-187500.02235174447,-187500.02235174447,-187500.02235174447,-187500.02235174447
não,31774.077626952843,-2096.772443863445,5615.495814740159,36924.32188085579,-187500.02235174447,-187500.02235174447,-187500.02235174447,-187500.02235174447
não,32520.76000222683,-2226.8148931044216,5903.632152513523,36805.00826895336,-187500.02235174447,-187500.02235174447,-187500.02235174447,-187500.02235174447
não,32975.99798154807,-2117.0678278288638,5938.813798286176,36893.02943861836,-187500.02235174447,-187500.02235174447,-187500.02235174447,-187500.02235174447
não,32378.93818365791,-1966.4394219445494,5688.988350509209,37026.40229778318,-187500.02235174447,-187500.02235174447,-187500.02235174447,-187500.02235174447
não,31757.492632567006,-2061.546094601881,5583.48811668016,36954.34027365926,-187500.02235174447,-187500.02235174447,-187500.02235174447,-187500.02235174447
não,32375.227794078328,-2225.6526023927454,5863.4884194717915,36816.47471385893,-187500.02235174447,-187500.02235174447,-187500.02235174447,-187500.02235174447
não,32982.47998744011,-2143.3311275638493,5958.03629851774,36870.78945288533,-187500.02235174447,-187500.02235174447,-187500.02235174447,-187500.02235174447
não,32527.130249396596,-1981.0798145627755,5725.354638737994,36998.23909976949,-187500.02235174447,-187500.02235174447,-187500.02235174447,-187500.02235174447
não,31769.607278061783,-2035.0592774223421,5550.1616656972965,36962.051625496344,-187500.02235174447,-187500.02235174447,-187500.02235174447,-187500.02235174447
não,32202.828789094543,-2228.2901082384715,5806.223250177294,36809.61272831115,-187500.02235174447,-187500.02235174447,-187500.02235174447,-187500.02235174447
não,32950.248771935556,-2179.6974157926343,5981.192705773438,36841.128687993136,-187500.02235174447,-187500.02235174447,-187500.02235174447,-187500.02235174447
não,32691.16970195409,-2004.5938497297586,5797.1037384395295,36983.44224494007,-187500.02235174447,-187500.02235174447,-187500.02235174447,-187500.02235174447
não,31857.561392493415,-1992.0098176014208,5568.914779295299,37005.07873357281,-187500.02235174447,-187500.02235174447,-187500.02235174447,-187500.02235174447
não,32065.09733976094,-2195.097767722341,5754.970700141275,36841.55337113779,-187500.02235174447,-187500.02235174447,-187500.02235174447,-187500.02235174447
não,32880.690143190644,-2194.4272153886814,5973.146077769527,36831.740955321904,-187500.02235174447,-187500.02235174447,-187500.02235174447,-187500.02235174447
não,32804.33658413131,-2023.034038905387,5838.745038359766,36975.194451236064,-187500.02235174447,-187500.02235174447,-187500.02235174447,-187500.02235174447
não,31963.732178656126,-1966.2382562444516,5583.644578891347,37031.65495773017,-187500.02235174447,-187500.02235174447,-187500.02235174447,-187500.02235174447
não,31932.909123052257,-2174.2659418899943,5697.370254679949,36863.949819082,-187500.02235174447,-187500.02235174447,-187500.02235174447,-187500.02235174447
não,32776.933345429105,-2223.529186669491,5956.024641516762,36808.964527721946,-187500.02235174447,-187500.02235174447,-187500.02235174447,-187500.02235174447
não,32891.97777414057,-2066.865809782244,5867.578788707112,36930.110982669714,-187500.02235174447,-187500.02235174447,-187500.02235174447,-187500.02235174447
não,32091.472398218204,-1962.7960875983345,5600.140166299363,37026.84933267228,-187500.02235174447,-187500.02235174447,-187500.02235174447,-187500.02235174447
não,31835.05318582692,-2132.378772780749,5645.380097076905,36894.07997060776,-187500.02235174447,-187500.02235174447,-187500.02235174447,-187500.02235174447
não,32663.341780107236,-2225.697305881656,5933.002344727796,36810.55150157827,-187500.02235174447,-187500.02235174447,-187500.02235174447,-187500.02235174447
não,32964.41977792022,-2086.803565836378,5915.120949163551,36915.53764528485,-187500.02235174447,-187500.02235174447,-187500.02235174447,-187500.02235174447
não,32255.62360949798,-1949.6532618586139,5656.466562326737,37035.387699054205,-187500.02235174447,-187500.02235174447,-187500.02235174447,-187500.02235174447
não,31787.57808060385,-2088.8822780707214,5615.786387418078,36931.988529203954,-187500.02235174447,-187500.02235174447,-187500.02235174447,-187500.02235174447
não,32510.701717221942,-2238.3260414989045,5895.227896598327,36807.936347477,-187500.02235174447,-187500.02235174447,-187500.02235174447,-187500.02235174447
não,32997.1874352917,-2122.476949987048,5945.362859411581,36889.274345549864,-187500.02235174447,-187500.02235174447,-187500.02235174447,-187500.02235174447
não,32406.095553171108,-1968.9428173235437,5685.300312674083,37008.58795745229,-187500.02235174447,-187500.02235174447,-187500.02235174447,-187500.02235174447
não,31767.43915884962,-2055.511123598948,5583.376357957883,36953.91559051461,-187500.02235174447,-187500.02235174447,-187500.02235174447,-187500.02235174447
não,32351.110261811053,-2230.324116983905,5846.970480319319,36811.15499867857,-187500.02235174447,-187500.02235174447,-187500.02235174447,-187500.02235174447
não,32983.4858159406,-2156.8092294703997,5953.454190904402,36858.20542075699,-187500.02235174447,-187500.02235174447,-187500.02235174447,-187500.02235174447
não,32557.260400922347,-1983.8737826196889,5738.2292435442505,36998.216748025035,-187500.02235174447,-187500.02235174447,-187500.02235174447,-187500.02235174447
não,31786.214624192075,-2023.2128528610294,5563.975043770676,36986.2809164859,-187500.02235174447,-187500.02235174447,-187500.02235174447,-187500.02235174447
não,32187.920175542855,-2216.980125544086,5797.439014606359,36832.299748933285,-187500.02235174447,-187500.02235174447,-187500.02235174447,-187500.02235174447
não,32944.75024279955,-2178.870401247788,5975.425955703969,36843.9450077945,-187500.02235174447,-187500.02235174447,-187500.02235174447,-187500.02235174447
não,32696.668231090098,-2003.2527450624402,5794.890915738454,36976.89318381467,-187500.02235174447,-187500.02235174447,-187500.02235174447,-187500.02235174447
não,31868.78196820998,-1990.8475268897448,5566.925474038777,36995.400428223664,-187500.02235174447,-187500.02235174447,-187500.02235174447,-187500.02235174447
não,32041.560952849504,-2197.4894043790587,5736.932842365843,36831.62919659963,-187500.02235174447,-187500.02235174447,-187500.02235174447,-187500.02235174447
não,32868.374331995765,-2200.998628258542,5961.254949719304,36818.70988830446,-187500.02235174447,-187500.02235174447,-187500.02235174447,-187500.02235174447
não,32821.79329655091,-2030.9242046981103,5842.1872070058835,36956.62015159371,-187500.02235174447,-187500.02235174447,-187500.02235174447,-187500.02235174447
não,31978.596088718903,-1968.7863551123567,5587.779651615579,37015.31583253334,-187500.02235174447,-187500.02235174447,-187500.02235174447,-187500.02235174447
não,31926.762393327048,-2163.447697573626,5695.537411634614,36870.09654880721,-187500.02235174447,-187500.02235174447,-187500.02235174447,-187500.02235174447
não,32772.753569215965,-2225.317326225916,5948.715621079877,36814.61951906914,-187500.02235174447,-187500.02235174447,-187500.02235174447,-187500.02235174447
não,32912.921358695196,-2068.74335631649,5887.6730069724335,36934.670738538596,-187500.02235174447,-187500.02235174447,-187500.02235174447,-187500.02235174447
não,32112.885369406387,-1958.2139799849965,5620.703771198246,37022.2895768034,-187500.02235174447,-187500.02235174447,-187500.02235174447,-187500.02235174447
não,31817.99880480752,-2129.9200808906653,5639.300422585061,36891.531871739855,-187500.02235174447,-187500.02235174447,-187500.02235174447,-187500.02235174447
não,32629.54594249081,-2231.1734832732063,5918.764283509766,36808.897472488585,-187500.02235174447,-187500.02235174447,-187500.02235174447,-187500.02235174447
não,32961.33523718539,-2094.514917673459,5913.60103054059,36910.195578360035,-187500.02235174447,-187500.02235174447,-187500.02235174447,-187500.02235174447
