WORD,Channel_1,Channel_2,Channel_3,Channel_4,Channel_5,Channel_6,Channel_7,Channel_8
talvez,31735.65497823417,-977.598247241765,7986.814735748141,36699.30686942421,-187500.02235174447,-187500.02235174447,-187500.02235174447,-187500.02235174447
talvez,32416.37735562055,-1008.3095441233569,8147.948461526449,36673.11062492259,-187500.02235174447,-187500.02235174447,-187500.02235174447,-187500.02235174447
talvez,32371.83032892112,-851.9143881695734,8076.60169322511,36688.35451464111,-187500.02235174447,-187500.02235174447,-187500.02235174447,-187500.02235174447
talvez,31686.235271243488,-765.1225644496161,7914.216269757304,36722.619738891095,-187500.02235174447,-187500.02235174447,-187500.02235174447,-187500.02235174447
talvez,31631.02646243888,-934.504083931933,7958.651537734454,36710.818017818696,-187500.02235174447,-187500.02235174447,-187500.02235174447,-187500.02235174447
talvez,32320.309557951638,-1014.9033087376724,8131.631688074075,36667.50033706431,-187500.02235174447,-187500.02235174447,-187500.02235174447,-187500.02235174447
talvez,32443.04298675573,-879.407033849601,8104.541373794244,36680.26318314829,-187500.02235174447,-187500.02235174447,-187500.02235174447,-187500.02235174447
talvez,31786.125217214256,-772.4986401198674,7921.212365771815,36711.51092189681,-187500.02235174447,-187500.02235174447,-187500.02235174447,-187500.02235174447
talvez,31538.378481671632,-924.0658192713046,7916.786720369664,36701.87732003657,-187500.02235174447,-187500.02235174447,-187500.02235174447,-187500.02235174447
talvez,32212.998832821708,-1030.4824746230215,8115.60548729962,36675.94929646842,-187500.02235174447,-187500.02235174447,-187500.02235174447,-187500.02235174447
talvez,32493.33441178017,-915.9521360340282,8120.254650146324,36676.53044182425,-187500.02235174447,-187500.02235174447,-187500.02235174447,-187500.02235174447
talvez,31926.628282860314,-764.6531778160546,7961.154933113448,36725.92779707048,-187500.02235174447,-187500.02235174447,-187500.02235174447,-187500.02235174447
talvez,31509.76824876884,-869.9522459450062,7901.073444017583,36726.397183704044,-187500.02235174447,-187500.02235174447,-187500.02235174447,-187500.02235174447
talvez,32081.794092869055,-1025.140407698203,8075.282940302246,36673.825880745164,-187500.02235174447,-187500.02235174447,-187500.02235174447,-187500.02235174447
talvez,32501.09046710616,-938.0580113003268,8131.698743307441,36666.896839964014,-187500.02235174447,-187500.02235174447,-187500.02235174447,-187500.02235174447
talvez,32045.696025573736,-788.3013234497695,7987.977026459816,36706.817055561194,-187500.02235174447,-187500.02235174447,-187500.02235174447,-187500.02235174447
talvez,31497.98887944089,-844.2700915658584,7884.287283931647,36721.47979992387,-187500.02235174447,-187500.02235174447,-187500.02235174447,-187500.02235174447
talvez,31959.79827163199,-1019.2842506509127,8044.124608531548,36680.956087226405,-187500.02235174447,-187500.02235174447,-187500.02235174447,-187500.02235174447
talvez,32509.695888721457,-963.8295726572959,8156.509179652832,36673.06592143368,-187500.02235174447,-187500.02235174447,-187500.02235174447,-187500.02235174447
talvez,32182.399294662395,-798.8736985771297,8025.773826333741,36707.12997998357,-187500.02235174447,-187500.02235174447,-187500.02235174447,-187500.02235174447
talvez,31530.778888556826,-811.9047655945737,7884.890781031941,36724.56434065871,-187500.02235174447,-187500.02235174447,-187500.02235174447,-187500.02235174447
talvez,31843.72566267558,-995.4125875726447,8022.711637343364,36697.1611019565,-187500.02235174447,-187500.02235174447,-187500.02235174447,-187500.02235174447
talvez,32470.75914988031,-987.2318491020023,8153.2681767068125,36667.65679927549,-187500.02235174447,-187500.02235174447,-187500.02235174447,-187500.02235174447
talvez,32292.25811866023,-824.5335012118222,8060.128457561548,36696.60230834512,-187500.02235174447,-187500.02235174447,-187500.02235174447,-187500.02235174447
talvez,31594.928395143557,-790.961181039951,7887.461231644301,36715.64599462104,-187500.02235174447,-187500.02235174447,-187500.02235174447,-187500.02235174447
talvez,31702.105009806757,-974.5137065069326,7977.963444943839,36702.771389814785,-187500.02235174447,-187500.02235174447,-187500.02235174447,-187500.02235174447
talvez,32406.095553171108,-999.7041225080637,8155.056316263237,36682.74422678283,-187500.02235174447,-187500.02235174447,-187500.02235174447,-187500.02235174447
talvez,32384.727285471832,-862.6879289970313,8081.586132238643,36681.42547385996,-187500.02235174447,-187500.02235174447,-187500.02235174447,-187500.02235174447
talvez,31688.246928244465,-780.6570268460545,7897.5642201381,36704.82775030467,-187500.02235174447,-187500.02235174447,-187500.02235174447,-187500.02235174447
talvez,31607.49007552744,-942.5060084469329,7943.005316615739,36706.43707590545,-187500.02235174447,-187500.02235174447,-187500.02235174447,-187500.02235174447
talvez,32301.042354231162,-1020.4912448514992,8127.250746160835,36674.317619123176,-187500.02235174447,-187500.02235174447,-187500.02235174447,-187500.02235174447
talvez,32439.734928576345,-893.5109846008999,8095.958303923405,36676.17281391297,-187500.02235174447,-187500.02235174447,-187500.02235174447,-187500.02235174447
talvez,31812.522627415972,-767.6036080841551,7928.990772842261,36713.27670970878,-187500.02235174447,-187500.02235174447,-187500.02235174447,-187500.02235174447
talvez,31534.19870545849,-903.6586765836092,7910.885859833463,36703.28547993726,-187500.02235174447,-187500.02235174447,-187500.02235174447,-187500.02235174447
talvez,32192.61404187847,-1028.3143554108567,8102.12738539307,36668.77438649826,-187500.02235174447,-187500.02235174447,-187500.02235174447,-187500.02235174447
talvez,32500.66578396151,-914.1639964776035,8129.865900262106,36673.66941853397,-187500.02235174447,-187500.02235174447,-187500.02235174447,-187500.02235174447
talvez,31955.193812274196,-765.5248958498116,7969.358023328546,36709.901596296026,-187500.02235174447,-187500.02235174447,-187500.02235174447,-187500.02235174447
talvez,31508.27068189033,-866.8900569546291,7902.369845195991,36720.13869525656,-187500.02235174447,-187500.02235174447,-187500.02235174447,-187500.02235174447
talvez,32061.7669298371,-1028.4484658775887,8073.293635045724,36678.564450569684,-187500.02235174447,-187500.02235174447,-187500.02235174447,-187500.02235174447
talvez,32507.795990442755,-941.7013456465419,8140.5276823672875,36675.83753774614,-187500.02235174447,-187500.02235174447,-187500.02235174447,-187500.02235174447
talvez,32074.97681081019,-785.06032050375,7992.939113728895,36706.0123927608,-187500.02235174447,-187500.02235174447,-187500.02235174447,-187500.02235174447
talvez,31493.47382706092,-840.5597019862774,7876.374766394469,36708.09110499515,-187500.02235174447,-187500.02235174447,-187500.02235174447,-187500.02235174447
talvez,31921.59914035787,-1022.3911431302004,8036.681477627931,36675.9045929795,-187500.02235174447,-187500.02235174447,-187500.02235174447,-187500.02235174447
talvez,32495.323717036692,-972.9937878839718,8152.955252284438,36673.49060457833,-187500.02235174447,-187500.02235174447,-187500.02235174447,-187500.02235174447
talvez,32195.81034133558,-805.802739358275,8021.772864076241,36696.624660089576,-187500.02235174447,-187500.02235174447,-187500.02235174447,-187500.02235174447
talvez,31540.792470072804,-809.1778527710263,7875.883028016452,36720.541026656756,-187500.02235174447,-187500.02235174447,-187500.02235174447,-187500.02235174447
talvez,31795.42354290766,-1000.6205440307313,7999.3540643875685,36690.09795070862,-187500.02235174447,-187500.02235174447,-187500.02235174447,-187500.02235174447
talvez,32448.630922869557,-989.2882095918906,8148.462551648921,36671.791871999725,-187500.02235174447,-187500.02235174447,-187500.02235174447,-187500.02235174447
talvez,32331.48543017929,-813.670553406543,8078.434536270444,36709.70043059593,-187500.02235174447,-187500.02235174447,-187500.02235174447,-187500.02235174447
talvez,31637.039081697356,-771.2022389414595,7913.389255212457,36730.26403549481,-187500.02235174447,-187500.02235174447,-187500.02235174447,-187500.02235174447
talvez,31692.02437305741,-973.1055466062483,7973.381337330501,36691.32729665367,-187500.02235174447,-187500.02235174447,-187500.02235174447,-187500.02235174447
talvez,32374.6913522114,-1011.3940848581893,8135.27502242029,36666.427453330456,-187500.02235174447,-187500.02235174447,-187500.02235174447,-187500.02235174447
talvez,32392.37158207555,-869.2593418668916,8078.345129292623,36672.59653480012,-187500.02235174447,-187500.02235174447,-187500.02235174447,-187500.02235174447
talvez,31707.245911031478,-780.3888059125908,7894.1667549808935,36705.632413105064,-187500.02235174447,-187500.02235174447,-187500.02235174447,-187500.02235174447
talvez,31589.385162518643,-944.6741276590977,7932.097665321549,36705.20772996041,-187500.02235174447,-187500.02235174447,-187500.02235174447,-187500.02235174447
talvez,32297.086095462575,-1020.468893107044,8122.3333623806675,36669.73551150984,-187500.02235174447,-187500.02235174447,-187500.02235174447,-187500.02235174447
talvez,32482.851443630632,-879.5187925718776,8114.867879732595,36684.15238668351,-187500.02235174447,-187500.02235174447,-187500.02235174447,-187500.02235174447
talvez,31855.125052347787,-760.9874917253843,7937.864415391018,36714.707221353914,-187500.02235174447,-187500.02235174447,-187500.02235174447,-187500.02235174447
talvez,31529.43778388951,-892.9968944784277,7908.896554576941,36714.77427658728,-187500.02235174447,-187500.02235174447,-187500.02235174447,-187500.02235174447
talvez,32173.302134669084,-1022.8605297637617,8099.176955124969,36685.44878786192,-187500.02235174447,-187500.02235174447,-187500.02235174447,-187500.02235174447
talvez,32515.775563213298,-920.824816325285,8139.99124050036,36679.838500003636,-187500.02235174447,-187500.02235174447,-187500.02235174447,-187500.02235174447
talvez,31988.341449301417,-775.8066982992528,7980.936226956395,36707.2640904503,-187500.02235174447,-187500.02235174447,-187500.02235174447,-187500.02235174447
talvez,31504.962623710948,-870.8686674676737,7893.764423580697,36711.55562538572,-187500.02235174447,-187500.02235174447,-187500.02235174447,-187500.02235174447
talvez,32046.67950232977,-1023.82165477534,8067.6833471874415,36679.32440988116,-187500.02235174447,-187500.02235174447,-187500.02235174447,-187500.02235174447
talvez,32524.090412150672,-943.7800578808855,8141.064124234215,36672.37301735557,-187500.02235174447,-187500.02235174447,-187500.02235174447,-187500.02235174447
talvez,32125.000014901165,-779.7182535789316,8007.914782513951,36711.13094224107,-187500.02235174447,-187500.02235174447,-187500.02235174447,-187500.02235174447
talvez,31517.09962095018,-819.7949313872971,7891.3504351795245,36728.431192449476,-187500.02235174447,-187500.02235174447,-187500.02235174447,-187500.02235174447
talvez,31913.46310537614,-1011.7964162583849,8040.280108485235,36693.65187807702,-187500.02235174447,-187500.02235174447,-187500.02235174447,-187500.02235174447
talvez,32511.238159088873,-971.0938896052706,8160.130162254592,36678.787968014236,-187500.02235174447,-187500.02235174447,-187500.02235174447,-187500.02235174447
talvez,32242.123155846974,-816.1739487855374,8035.250965982791,36691.729628053865,-187500.02235174447,-187500.02235174447,-187500.02235174447,-187500.02235174447
talvez,31550.560182399775,-814.2964022512916,7876.330062905558,36701.20676770291,-187500.02235174447,-187500.02235174447,-187500.02235174447,-187500.02235174447
talvez,31774.0999786973,-991.9927706709827,7990.793346261185,36688.846253019125,-187500.02235174447,-187500.02235174447,-187500.02235174447,-187500.02235174447
talvez,32461.885507331554,-982.7615002109409,8153.134066240081,36675.301095879215,-187500.02235174447,-187500.02235174447,-187500.02235174447,-187500.02235174447
talvez,32359.134538070506,-833.0048123603837,8075.126478091059,36691.9084420095,-187500.02235174447,-187500.02235174447,-187500.02235174447,-187500.02235174447
talvez,31658.675570330095,-779.1147564786382,7908.740092365753,36717.45648592192,-187500.02235174447,-187500.02235174447,-187500.02235174447,-187500.02235174447
talvez,31672.801872825847,-960.052127844349,7964.91002618194,36701.20676770291,-187500.02235174447,-187500.02235174447,-187500.02235174447,-187500.02235174447
talvez,32379.765198202756,-1017.3396488833009,8141.600566101142,36672.46242433339,-187500.02235174447,-187500.02235174447,-187500.02235174447,-187500.02235174447
talvez,32455.269390972782,-860.8997894406068,8107.782376740262,36690.23206117535,-187500.02235174447,-187500.02235174447,-187500.02235174447,-187500.02235174447
talvez,31753.268152864952,-768.6764918180099,7914.506842435222,36707.15233172802,-187500.02235174447,-187500.02235174447,-187500.02235174447,-187500.02235174447
talvez,31562.317199983267,-934.1241042761927,7917.859604103519,36700.84913979163,-187500.02235174447,-187500.02235174447,-187500.02235174447,-187500.02235174447
talvez,32273.10267366203,-1025.4086286316667,8113.325609365179,36673.58001155615,-187500.02235174447,-187500.02235174447,-187500.02235174447,-187500.02235174447
talvez,32506.76781019781,-893.8015572788188,8121.931030980472,36680.173776170464,-187500.02235174447,-187500.02235174447,-187500.02235174447,-187500.02235174447
talvez,31891.670154532214,-755.2430934003703,7960.350270313057,36719.42343943399,-187500.02235174447,-187500.02235174447,-187500.02235174447,-187500.02235174447
talvez,31520.787658785306,-886.6266473086653,7914.260973246214,36718.17174174449,-187500.02235174447,-187500.02235174447,-187500.02235174447,-187500.02235174447
talvez,32150.235134391205,-1030.1248467117366,8087.21877184138,36677.111587180094,-187500.02235174447,-187500.02235174447,-187500.02235174447,-187500.02235174447
talvez,32544.162278671538,-919.3496011912348,8146.383839414578,36683.07950294966,-187500.02235174447,-187500.02235174447,-187500.02235174447,-187500.02235174447
talvez,32026.272359642073,-766.3519103946579,7992.067395695138,36709.901596296026,-187500.02235174447,-187500.02235174447,-187500.02235174447,-187500.02235174447
talvez,31506.773115011827,-844.1359810991265,7904.359150452513,36728.36413721611,-187500.02235174447,-187500.02235174447,-187500.02235174447,-187500.02235174447
talvez,32035.43657486875,-1005.1355964107033,8077.272245558768,36700.62562234708,-187500.02235174447,-187500.02235174447,-187500.02235174447,-187500.02235174447
talvez,32521.139981882574,-965.9082848916394,8132.995144485849,36656.48092704784,-187500.02235174447,-187500.02235174447,-187500.02235174447,-187500.02235174447
talvez,32123.413041044838,-801.1312247671158,7989.720462527331,36683.52653783876,-187500.02235174447,-187500.02235174447,-187500.02235174447,-187500.02235174447
talvez,31495.239614872888,-816.4421697190011,7874.497219860223,36711.55562538572,-187500.02235174447,-187500.02235174447,-187500.02235174447,-187500.02235174447
talvez,31876.381561324786,-1003.7497882544743,8027.4725589123445,36689.74032279734,-187500.02235174447,-187500.02235174447,-187500.02235174447,-187500.02235174447
talvez,32513.71920272341,-976.4806600189996,8159.3702029431115,36675.97164821287,-187500.02235174447,-187500.02235174447,-187500.02235174447,-187500.02235174447
talvez,32267.00064742573,-809.2002045154816,8045.197492265403,36694.098912966125,-187500.02235174447,-187500.02235174447,-187500.02235174447,-187500.02235174447
talvez,31586.792360161828,-773.8397447871859,7916.339685480558,36735.24847450834,-187500.02235174447,-187500.02235174447,-187500.02235174447,-187500.02235174447
talvez,31772.267135651964,-972.7255669505081,8011.1557854599705,36709.901596296026,-187500.02235174447,-187500.02235174447,-187500.02235174447,-187500.02235174447
talvez,32462.24313524284,-1004.53209931041,8155.548054641254,36675.79283425723,-187500.02235174447,-187500.02235174447,-187500.02235174447,-187500.02235174447
talvez,32372.299715554684,-854.2613213373807,8069.605597210598,36683.325372138665,-187500.02235174447,-187500.02235174447,-187500.02235174447,-187500.02235174447
talvez,31659.99432325296,-764.8543435161524,7913.165737767904,36723.31264296921,-187500.02235174447,-187500.02235174447,-187500.02235174447,-187500.02235174447
talvez,31639.341311376254,-949.1891800390697,7961.780781958197,36704.3136601822,-187500.02235174447,-187500.02235174447,-187500.02235174447,-187500.02235174447
talvez,32357.994599103287,-1020.7818175294183,8134.872691020095,36674.0046947008,-187500.02235174447,-187500.02235174447,-187500.02235174447,-187500.02235174447
talvez,32472.994324325842,-864.2749028533582,8115.896059977539,36699.30686942421,-187500.02235174447,-187500.02235174447,-187500.02235174447,-187500.02235174447
talvez,31782.23601367903,-751.1080206761385,7941.217177059314,36728.3194337272,-187500.02235174447,-187500.02235174447,-187500.02235174447,-187500.02235174447
talvez,31551.67776962254,-916.3768191786789,7928.18611004187,36715.69069810995,-187500.02235174447,-187500.02235174447,-187500.02235174447,-187500.02235174447
talvez,32249.00749313921,-1027.889672266206,8118.3994553565335,36679.63733430354,-187500.02235174447,-187500.02235174447,-187500.02235174447,-187500.02235174447
talvez,32519.128324881596,-904.0386562393495,8133.375124141589,36685.091159950636,-187500.02235174447,-187500.02235174447,-187500.02235174447,-187500.02235174447
talvez,31909.55155009646,-759.6687388025211,7961.221988346814,36714.97544228738,-187500.02235174447,-187500.02235174447,-187500.02235174447,-187500.02235174447
talvez,31491.551577037764,-881.5528013173106,7899.933505050362,36711.60032887463,-187500.02235174447,-187500.02235174447,-187500.02235174447,-187500.02235174447
talvez,32121.26727357713,-1030.4154193896557,8081.407318283001,36678.6091540586,-187500.02235174447,-187500.02235174447,-187500.02235174447,-187500.02235174447
talvez,32551.314836897236,-930.6372321411649,8149.311917938223,36682.25248840481,-187500.02235174447,-187500.02235174447,-187500.02235174447,-187500.02235174447
talvez,32064.985581038665,-760.0040149693507,8008.473576125333,36729.07939303868,-187500.02235174447,-187500.02235174447,-187500.02235174447,-187500.02235174447
talvez,32474.15661503752,-879.9658274609837,8111.023379686282,36685.64995356202,-187500.02235174447,-187500.02235174447,-187500.02235174447,-187500.02235174447
talvez,31595.733057943948,-768.8776575181076,7907.778967354175,36738.57888443219,-187500.02235174447,-187500.02235174447,-187500.02235174447,-187500.02235174447
talvez,32534.77454600031,-961.7061569340417,8153.491694151366,36672.82005224467,-187500.02235174447,-187500.02235174447,-187500.02235174447,-187500.02235174447
talvez,31620.521142544883,-939.1308950341815,7954.918796410418,36712.65086086403,-187500.02235174447,-187500.02235174447,-187500.02235174447,-187500.02235174447
talvez,32403.905082214485,-841.3420130422131,8088.895152675528,36695.440017633446,-187500.02235174447,-187500.02235174447,-187500.02235174447,-187500.02235174447
talvez,31852.867526157803,-1002.9898289429938,8014.352084917079,36688.712142552395,-187500.02235174447,-187500.02235174447,-187500.02235174447,-187500.02235174447
talvez,32499.19056882746,-986.9859799129939,8149.580138871687,36670.51782256577,-187500.02235174447,-187500.02235174447,-187500.02235174447,-187500.02235174447
talvez,31729.396489786686,-969.5516192378544,7983.886657224496,36706.10179973862,-187500.02235174447,-187500.02235174447,-187500.02235174447,-187500.02235174447
talvez,31801.01147902149,-755.6901282894764,7936.076275834594,36717.255320221826,-187500.02235174447,-187500.02235174447,-187500.02235174447,-187500.02235174447
talvez,31552.10245276719,-894.2262404234697,7937.976174113295,36721.3680412016,-187500.02235174447,-187500.02235174447,-187500.02235174447,-187500.02235174447
talvez,32225.895789372422,-1021.6982390520858,8115.65019078853,36683.03479946075,-187500.02235174447,-187500.02235174447,-187500.02235174447,-187500.02235174447
talvez,32536.29446462327,-959.9627208665278,8159.906644810038,36671.43424408844,-187500.02235174447,-187500.02235174447,-187500.02235174447,-187500.02235174447
talvez,31497.050106173767,-835.2846902948249,7894.367920680991,36728.36413721611,-187500.02235174447,-187500.02235174447,-187500.02235174447,-187500.02235174447
talvez,31601.075124868767,-938.8626741007179,7947.542720740166,36700.02212524678,-187500.02235174447,-187500.02235174447,-187500.02235174447,-187500.02235174447
talvez,32091.07006681801,-1017.9878494725049,8084.536562506743,36687.21457567389,-187500.02235174447,-187500.02235174447,-187500.02235174447,-187500.02235174447
talvez,31829.867581113293,-988.4164915581337,8019.180061719426,36706.72764858337,-187500.02235174447,-187500.02235174447,-187500.02235174447,-187500.02235174447
talvez,32202.292347227616,-793.6880938634985,8038.201396250892,36698.569261857185,-187500.02235174447,-187500.02235174447,-187500.02235174447,-187500.02235174447
talvez,32412.443448596416,-848.5169230123668,8093.656074244509,36680.196127914925,-187500.02235174447,-187500.02235174447,-187500.02235174447,-187500.02235174447
talvez,32311.815895058622,-813.2905737508028,8065.0458413417155,36704.380715415566,-187500.02235174447,-187500.02235174447,-187500.02235174447,-187500.02235174447
talvez,31603.26559582539,-775.5161256213338,7905.767310353198,36739.58471293267,-187500.02235174447,-187500.02235174447,-187500.02235174447,-187500.02235174447
talvez,31696.11474229273,-972.6138082282315,7970.967348929328,36701.81026480321,-187500.02235174447,-187500.02235174447,-187500.02235174447,-187500.02235174447
talvez,32307.032621745187,-1021.6088320742646,8120.858147246618,36661.510069550284,-187500.02235174447,-187500.02235174447,-187500.02235174447,-187500.02235174447
talvez,32228.555646962603,-786.5355356378002,8046.672707399453,36702.54787237023,-187500.02235174447,-187500.02235174447,-187500.02235174447,-187500.02235174447
talvez,31811.85207508231,-754.7960585112642,7946.894520150962,36719.42343943399,-187500.02235174447,-187500.02235174447,-187500.02235174447,-187500.02235174447
talvez,31524.319234409242,-895.0979584572266,7927.202633285837,36721.09982026814,-187500.02235174447,-187500.02235174447,-187500.02235174447,-187500.02235174447
talvez,31926.918855538235,-1011.1929191580915,8043.722277131353,36688.89095650804,-187500.02235174447,-187500.02235174447,-187500.02235174447,-187500.02235174447
talvez,32091.986488340677,-775.7396430658869,8010.485233126311,36701.87732003657,-187500.02235174447,-187500.02235174447,-187500.02235174447,-187500.02235174447
talvez,31944.867306335847,-768.2741604178144,7967.86045645004,36696.98228800086,-187500.02235174447,-187500.02235174447,-187500.02235174447,-187500.02235174447
talvez,31482.029733899803,-856.6082545051879,7908.56127841011,36720.85395107912,-187500.02235174447,-187500.02235174447,-187500.02235174447,-187500.02235174447
talvez,32050.501650631628,-1021.9664599855495,8081.675539216464,36683.99592447233,-187500.02235174447,-187500.02235174447,-187500.02235174447,-187500.02235174447
talvez,31514.462115104452,-809.2002045154816,7880.062804229594,36708.06875325069,-187500.02235174447,-187500.02235174447,-187500.02235174447,-187500.02235174447
talvez,31780.224356678053,-1001.4922620644883,8006.193698190892,36691.372000142575,-187500.02235174447,-187500.02235174447,-187500.02235174447,-187500.02235174447
talvez,32471.586164425156,-1000.8217097308291,8161.918301811016,36666.87448821956,-187500.02235174447,-187500.02235174447,-187500.02235174447,-187500.02235174447
talvez,32330.814877845634,-835.3964490171014,8067.079850087149,36679.88320349255,-187500.02235174447,-187500.02235174447,-187500.02235174447,-187500.02235174447
talvez,31611.602796507217,-778.8465355451746,7903.75565335222,36713.54493064224,-187500.02235174447,-187500.02235174447,-187500.02235174447,-187500.02235174447
talvez,31674.947640293558,-960.2085900555361,7978.879866466506,36700.06682873569,-187500.02235174447,-187500.02235174447,-187500.02235174447,-187500.02235174447
talvez,32384.637878494013,-1010.2317941465133,8141.779380056785,36670.11549116558,-187500.02235174447,-187500.02235174447,-187500.02235174447,-187500.02235174447
talvez,32420.69124230042,-852.6296439921432,8098.685216746952,36689.98619198635,-187500.02235174447,-187500.02235174447,-187500.02235174447,-187500.02235174447
talvez,31730.402318287175,-748.5152183193229,7935.405723500935,36726.397183704044,-187500.02235174447,-187500.02235174447,-187500.02235174447,-187500.02235174447
talvez,31576.555261201294,-927.8432640842515,7940.747790425753,36710.460389907406,-187500.02235174447,-187500.02235174447,-187500.02235174447,-187500.02235174447
talvez,32277.349505108537,-1031.5330066124209,8111.60452504212,36660.7054067499,-187500.02235174447,-187500.02235174447,-187500.02235174447,-187500.02235174447
talvez,32117.69099446428,-766.3519103946579,8021.594050120599,36716.540064399254,-187500.02235174447,-187500.02235174447,-187500.02235174447,-187500.02235174447
talvez,31849.335950533863,-750.4374683424793,7959.277386579202,36725.05607903672,-187500.02235174447,-187500.02235174447,-187500.02235174447,-187500.02235174447
talvez,32015.81174323699,-1022.6817158081193,8058.720297660863,36681.53723258224,-187500.02235174447,-187500.02235174447,-187500.02235174447,-187500.02235174447
talvez,32165.724893298735,-1023.2628611639574,8101.300370848224,36675.12228192357,-187500.02235174447,-187500.02235174447,-187500.02235174447,-187500.02235174447
talvez,32513.942720167965,-924.1552262491258,8131.98931598536,36672.03774118874,-187500.02235174447,-187500.02235174447,-187500.02235174447,-187500.02235174447
talvez,31962.681646666726,-779.5617913677444,7971.034404162694,36698.569261857185,-187500.02235174447,-187500.02235174447,-187500.02235174447,-187500.02235174447
talvez,31485.47190254592,-814.5869749292106,7896.558391637611,36741.12698330009,-187500.02235174447,-187500.02235174447,-187500.02235174447,-187500.02235174447
talvez,31871.710046733624,-1013.1598726701585,8029.886547313517,36698.45750313491,-187500.02235174447,-187500.02235174447,-187500.02235174447,-187500.02235174447
talvez,32477.129397050074,-988.5953055137761,8142.718153323907,36676.08340693515,-187500.02235174447,-187500.02235174447,-187500.02235174447,-187500.02235174447
talvez,32209.824885109054,-815.928079596529,8032.680515370431,36702.19024445894,-187500.02235174447,-187500.02235174447,-187500.02235174447,-187500.02235174447
talvez,31517.09962095018,-793.2410589743923,7886.433051399357,36734.13088728558,-187500.02235174447,-187500.02235174447,-187500.02235174447,-187500.02235174447
$SILENCE,31740.32649282533,-989.4893752919884,7995.241343407792,36706.50413113882,-187500.02235174447,-187500.02235174447,-187500.02235174447,-187500.02235174447
$SILENCE,32417.047907954206,-1004.1968231435804,8138.739542810863,36672.708293522395,-187500.02235174447,-187500.02235174447,-187500.02235174447,-187500.02235174447
$SILENCE,32309.379554912994,-841.9008066535959,8059.3461465056125,36699.23981419084,-187500.02235174447,-187500.02235174447,-187500.02235174447,-187500.02235174447
$SILENCE,31596.20244457751,-769.2799889183032,7897.117185248993,36740.00939607732,-187500.02235174447,-187500.02235174447,-187500.02235174447,-187500.02235174447
$SILENCE,31623.02453792388,-949.8150288838183,7963.881845936996,36733.683852396476,-187500.02235174447,-187500.02235174447,-187500.02235174447,-187500.02235174447
$SILENCE,32351.26672402224,-1010.3659046132451,8136.906699765528,36700.42445664698,-187500.02235174447,-187500.02235174447,-187500.02235174447,-187500.02235174447
$SILENCE,32395.03143966573,-877.6635977820871,8081.541428749732,36689.51680535279,-187500.02235174447,-187500.02235174447,-187500.02235174447,-187500.02235174447
$SILENCE,31702.999079584966,-775.3596634101467,7906.728435364776,36719.31168071171,-187500.02235174447,-187500.02235174447,-187500.02235174447,-187500.02235174447
$SILENCE,31522.06170821926,-935.2193397545028,7913.23279300127,36717.523541155286,-187500.02235174447,-187500.02235174447,-187500.02235174447,-187500.02235174447
$SILENCE,31480.062780387736,-879.8764204831625,7911.690522633854,36736.16489603101,-187500.02235174447,-187500.02235174447,-187500.02235174447,-187500.02235174447
$SILENCE,32461.639638142544,-905.9162027735953,8110.397530841534,36688.39921813002,-187500.02235174447,-187500.02235174447,-187500.02235174447,-187500.02235174447
$SILENCE,32118.92034040932,-1019.8653960067506,8088.895152675528,36694.948279255426,-187500.02235174447,-187500.02235174447,-187500.02235174447,-187500.02235174447
$SILENCE,32489.75813266732,-933.7217728759972,8119.852318746129,36679.32440988116,-187500.02235174447,-187500.02235174447,-187500.02235174447,-187500.02235174447
$SILENCE,31976.495024740107,-783.1827739695042,7968.91098843944,36713.00848877531,-187500.02235174447,-187500.02235174447,-187500.02235174447,-187500.02235174447
$SILENCE,31458.783919666283,-857.9493591725063,7891.596304368532,36730.107573283625,-187500.02235174447,-187500.02235174447,-187500.02235174447,-187500.02235174447
$SILENCE,31968.202527547186,-1032.1365037127143,8047.834998111129,36681.11254943759,-187500.02235174447,-187500.02235174447,-187500.02235174447,-187500.02235174447
$SILENCE,32490.406333256524,-964.790697668874,8133.889214264062,36673.87058423407,-187500.02235174447,-187500.02235174447,-187500.02235174447,-187500.02235174447
$SILENCE,32114.539398496083,-784.9709135259287,8012.698055827386,36712.09206725265,-187500.02235174447,-187500.02235174447,-187500.02235174447,-187500.02235174447
$SILENCE,31485.404847312555,-804.7075038799649,7892.378615424468,36734.62262566359,-187500.02235174447,-187500.02235174447,-187500.02235174447,-187500.02235174447
$SILENCE,31851.325255790387,-1001.5146138089435,8023.471596654845,36696.758770556306,-187500.02235174447,-187500.02235174447,-187500.02235174447,-187500.02235174447
$SILENCE,32470.04389405774,-981.1074711212482,8146.428542903489,36672.88710747804,-187500.02235174447,-187500.02235174447,-187500.02235174447,-187500.02235174447
$SILENCE,32483.298478519737,-911.3476766762349,8114.197327398936,36666.203935885904,-187500.02235174447,-187500.02235174447,-187500.02235174447,-187500.02235174447
$SILENCE,31535.62921710363,-791.4082159290572,7884.84607754303,36725.39135520355,-187500.02235174447,-187500.02235174447,-187500.02235174447,-187500.02235174447
$SILENCE,31706.776524397916,-986.7177589795302,7978.633997277499,36692.489587365344,-187500.02235174447,-187500.02235174447,-187500.02235174447,-187500.02235174447
$SILENCE,31527.292016421798,-917.8520343127292,7929.750732153742,36705.09597123814,-187500.02235174447,-187500.02235174447,-187500.02235174447,-187500.02235174447
$SILENCE,32432.492963372824,-859.3351673287353,8108.117652907093,36690.8579100201,-187500.02235174447,-187500.02235174447,-187500.02235174447,-187500.02235174447
$SILENCE,31629.79711649384,-776.253733188359,7903.018045785195,36714.88603530956,-187500.02235174447,-187500.02235174447,-187500.02235174447,-187500.02235174447
$SILENCE,31603.757334203405,-955.7382411644747,7954.181188843392,36702.12318922558,-187500.02235174447,-187500.02235174447,-187500.02235174447,-187500.02235174447
$SILENCE,31873.632296756783,-770.8893145190852,7950.8731306640075,36703.71016308191,-187500.02235174447,-187500.02235174447,-187500.02235174447,-187500.02235174447
$SILENCE,31474.296030318266,-883.0280164513608,7901.632237628965,36715.489532409854,-187500.02235174447,-187500.02235174447,-187500.02235174447,-187500.02235174447
$SILENCE,32098.692011677267,-1029.9013292671834,8079.93210314895,36681.73839828234,-187500.02235174447,-187500.02235174447,-187500.02235174447,-187500.02235174447
$SILENCE,32516.6249295026,-933.4982554314441,8140.214757944913,36671.41189234399,-187500.02235174447,-187500.02235174447,-187500.02235174447,-187500.02235174447
$SILENCE,32025.28888288604,-768.4976778623675,7998.996436476284,36706.124151483076,-187500.02235174447,-187500.02235174447,-187500.02235174447,-187500.02235174447
$SILENCE,31460.057969100235,-843.5771874877438,7895.440804414846,36708.44873290643,-187500.02235174447,-187500.02235174447,-187500.02235174447,-187500.02235174447
$SILENCE,31959.306533253974,-1022.8605297637617,8051.590091179621,36668.70733126489,-187500.02235174447,-187500.02235174447,-187500.02235174447,-187500.02235174447
$SILENCE,32529.29836860876,-943.4224299696006,8161.717136110919,36673.98234295635,-187500.02235174447,-187500.02235174447,-187500.02235174447,-187500.02235174447
$SILENCE,32154.68313153781,-783.0710152472276,8023.672762354942,36700.62562234708,-187500.02235174447,-187500.02235174447,-187500.02235174447,-187500.02235174447
$SILENCE,31483.32613507821,-812.1282830391268,7880.711004818798,36711.89090155255,-187500.02235174447,-187500.02235174447,-187500.02235174447,-187500.02235174447
$SILENCE,32488.95346986693,-912.666429599098,8132.70457180793,36670.316656865674,-187500.02235174447,-187500.02235174447,-187500.02235174447,-187500.02235174447
$SILENCE,32371.495052754293,-841.7890479313193,8091.756175965807,36683.07950294966,-187500.02235174447,-187500.02235174447,-187500.02235174447,-187500.02235174447
$SILENCE,31468.79750118226,-825.5169779678557,7904.3815021969685,36723.33499471367,-187500.02235174447,-187500.02235174447,-187500.02235174447,-187500.02235174447
$SILENCE,31498.167693396535,-917.8520343127292,7917.099644792038,36701.653802592016,-187500.02235174447,-187500.02235174447,-187500.02235174447,-187500.02235174447
$SILENCE,31698.685192905094,-970.244523315969,7992.2015061618695,36697.3622676566,-187500.02235174447,-187500.02235174447,-187500.02235174447,-187500.02235174447
$SILENCE,31658.74262556346,-759.0428899577726,7923.492243706256,36717.098858010635,-187500.02235174447,-187500.02235174447,-187500.02235174447,-187500.02235174447
$SILENCE,32439.42200415397,-874.4002430916123,8110.062254674704,36678.96678196988,-187500.02235174447,-187500.02235174447,-187500.02235174447,-187500.02235174447
$SILENCE,32508.779467198787,-934.3923252096564,8145.80269405874,36670.07078767667,-187500.02235174447,-187500.02235174447,-187500.02235174447,-187500.02235174447
$SILENCE,31453.84418414166,-873.4614698244894,7896.357225937513,36700.960898513906,-187500.02235174447,-187500.02235174447,-187500.02235174447,-187500.02235174447
$SILENCE,31933.51262015255,-1012.176395914125,8056.0604400706825,36686.94635474042,-187500.02235174447,-187500.02235174447,-187500.02235174447,-187500.02235174447
$SILENCE,32274.086150418065,-826.1204750681491,8056.775695893252,36693.87539552157,-187500.02235174447,-187500.02235174447,-187500.02235174447,-187500.02235174447
$SILENCE,32163.623829319935,-810.4519022049788,8029.037181024216,36681.13490118205,-187500.02235174447,-187500.02235174447,-187500.02235174447,-187500.02235174447
$SILENCE,31492.020963671326,-803.0087713013615,7891.462193901801,36706.45942764991,-187500.02235174447,-187500.02235174447,-187500.02235174447,-187500.02235174447
$SILENCE,31785.0523334804,-992.9315439381056,8013.614477350054,36681.3584186266,-187500.02235174447,-187500.02235174447,-187500.02235174447,-187500.02235174447
$SILENCE,31564.910002340082,-782.4228146580238,7901.766348095697,36721.21157899041,-187500.02235174447,-187500.02235174447,-187500.02235174447,-187500.02235174447
$SILENCE,31672.55600363684,-966.9811686254941,7987.86526773754,36700.75973281381,-187500.02235174447,-187500.02235174447,-187500.02235174447,-187500.02235174447
$SILENCE,32403.65921302548,-988.081215391304,8164.891083823572,36686.07463670667,-187500.02235174447,-187500.02235174447,-187500.02235174447,-187500.02235174447
$SILENCE,32394.22677686534,-844.1136293546713,8109.481109318866,36699.10570372411,-187500.02235174447,-187500.02235174447,-187500.02235174447,-187500.02235174447
$SILENCE,31666.878660545193,-782.6686838470321,7921.592345427555,36714.6178143761,-187500.02235174447,-187500.02235174447,-187500.02235174447,-187500.02235174447
$SILENCE,32173.995038747198,-1013.562204070354,8116.007818699815,36675.9045929795,-187500.02235174447,-187500.02235174447,-187500.02235174447,-187500.02235174447
$SILENCE,32279.517624320702,-1029.498997866988,8126.17786242698,36662.67236026196,-187500.02235174447,-187500.02235174447,-187500.02235174447,-187500.02235174447
$SILENCE,32447.781556580256,-886.4254816085675,8112.923277964984,36681.3584186266,-187500.02235174447,-187500.02235174447,-187500.02235174447,-187500.02235174447
$SILENCE,31785.00762999149,-765.2343231718926,7938.736133424775,36712.15912248601,-187500.02235174447,-187500.02235174447,-187500.02235174447,-187500.02235174447
$SILENCE,32494.787275169765,-918.053200012827,8133.151606697036,36663.81229922918,-187500.02235174447,-187500.02235174447,-187500.02235174447,-187500.02235174447
$SILENCE,31935.74779459808,-766.9777592394065,7978.142258899482,36708.851064306626,-187500.02235174447,-187500.02235174447,-187500.02235174447,-187500.02235174447
$SILENCE,31466.629381970095,-851.959091658484,7919.915964593407,36731.2698639953,-187500.02235174447,-187500.02235174447,-187500.02235174447,-187500.02235174447
$SILENCE,32019.991519450134,-1033.2317391910242,8073.472449001366,36675.18933715693,-187500.02235174447,-187500.02235174447,-187500.02235174447,-187500.02235174447
$SILENCE,32510.90288292204,-955.9170551201172,8155.726868596897,36668.05913067569,-187500.02235174447,-187500.02235174447,-187500.02235174447,-187500.02235174447
$SILENCE,32071.31112471952,-795.4538816754678,8010.552288359677,36690.72379955337,-187500.02235174447,-187500.02235174447,-187500.02235174447,-187500.02235174447
$SILENCE,31466.852899414647,-836.7599054288752,7896.357225937513,36714.75192484283,-187500.02235174447,-187500.02235174447,-187500.02235174447,-187500.02235174447
$SILENCE,31893.570052810916,-1018.5019395949769,8041.800027108196,36688.242755918836,-187500.02235174447,-187500.02235174447,-187500.02235174447,-187500.02235174447
$SILENCE,32496.418952515003,-964.3660145242233,8160.465438421422,36680.64316280403,-187500.02235174447,-187500.02235174447,-187500.02235174447,-187500.02235174447
$SILENCE,32196.99498379171,-800.3712654556354,8044.236367253825,36700.02212524678,-187500.02235174447,-187500.02235174447,-187500.02235174447,-187500.02235174447
$SILENCE,31507.018984200837,-795.1856607420041,7899.8664498169965,36724.229064491876,-187500.02235174447,-187500.02235174447,-187500.02235174447,-187500.02235174447
$SILENCE,31754.81042323237,-1001.3805033422117,8010.708750570864,36686.275802406766,-187500.02235174447,-187500.02235174447,-187500.02235174447,-187500.02235174447
$SILENCE,32439.354948920605,-1009.8294627463177,8154.542226140765,36661.19714512791,-187500.02235174447,-187500.02235174447,-187500.02235174447,-187500.02235174447
$SILENCE,32311.16769446942,-834.3235652832467,8070.186742566436,36692.44488387643,-187500.02235174447,-187500.02235174447,-187500.02235174447,-187500.02235174447
$SILENCE,31604.69610747053,-764.0496807157613,7919.9383163378625,36737.52835244279,-187500.02235174447,-187500.02235174447,-187500.02235174447,-187500.02235174447
$SILENCE,31644.057529456324,-967.3387965367791,7970.140334384482,36696.15527345601,-187500.02235174447,-187500.02235174447,-187500.02235174447,-187500.02235174447
$SILENCE,32362.241430549795,-1027.1520646991808,8135.118560209104,36656.63738925903,-187500.02235174447,-187500.02235174447,-187500.02235174447,-187500.02235174447
$SILENCE,32404.106247914584,-870.6451500231207,8098.171126624481,36678.63150580305,-187500.02235174447,-187500.02235174447,-187500.02235174447,-187500.02235174447
$SILENCE,31714.063193090344,-767.3130354062362,7931.918851365906,36722.70914586892,-187500.02235174447,-187500.02235174447,-187500.02235174447,-187500.02235174447
$SILENCE,31563.881822095136,-926.7256768614861,7950.828427175096,36708.60519511762,-187500.02235174447,-187500.02235174447,-187500.02235174447,-187500.02235174447
$SILENCE,32272.543880050645,-1019.5524715843763,8128.524795594788,36670.36136035459,-187500.02235174447,-187500.02235174447,-187500.02235174447,-187500.02235174447
$SILENCE,32498.721182193898,-879.8093652497967,8146.562653370221,36694.92592751097,-187500.02235174447,-187500.02235174447,-187500.02235174447,-187500.02235174447
$SILENCE,31842.764537664003,-760.7416225363759,7963.792438959174,36714.50605565382,-187500.02235174447,-187500.02235174447,-187500.02235174447,-187500.02235174447
$SILENCE,31480.55451876575,-902.3846271496567,7907.533098165167,36699.619793846585,-187500.02235174447,-187500.02235174447,-187500.02235174447,-187500.02235174447
$SILENCE,32142.41202383185,-1034.304622924879,8100.629818514564,36672.52947956675,-187500.02235174447,-187500.02235174447,-187500.02235174447,-187500.02235174447
$SILENCE,32512.8251329452,-917.5838133792655,8141.779380056785,36673.69177027843,-187500.02235174447,-187500.02235174447,-187500.02235174447,-187500.02235174447
$SILENCE,31972.62817294934,-766.2625034168367,7985.518334569733,36707.88993929505,-187500.02235174447,-187500.02235174447,-187500.02235174447,-187500.02235174447
$SILENCE,31464.28244880229,-870.3545773452017,7905.096758019538,36709.342802684645,-187500.02235174447,-187500.02235174447,-187500.02235174447,-187500.02235174447
$SILENCE,31999.070286639966,-1042.9323962846277,8057.893283116017,36664.527555051754,-187500.02235174447,-187500.02235174447,-187500.02235174447,-187500.02235174447
$SILENCE,32507.66187997602,-958.599264454754,8146.94263302596,36666.427453330456,-187500.02235174447,-187500.02235174447,-187500.02235174447,-187500.02235174447
$SILENCE,32100.726020422702,-790.0671112617388,8016.006114006772,36700.82678804717,-187500.02235174447,-187500.02235174447,-187500.02235174447,-187500.02235174447
$SILENCE,31486.85771070215,-820.510187209867,7900.581705639566,36721.61391039061,-187500.02235174447,-187500.02235174447,-187500.02235174447,-187500.02235174447
$SILENCE,31889.904366720246,-1010.2317941465133,8049.1984545229025,36696.55760485621,-187500.02235174447,-187500.02235174447,-187500.02235174447,-187500.02235174447
$SILENCE,32504.443228774457,-978.0005786419605,8165.4722291794105,36679.145595925525,-187500.02235174447,-187500.02235174447,-187500.02235174447,-187500.02235174447
$SILENCE,32238.278655800663,-813.0000010728838,8049.287861500724,36691.9084420095,-187500.02235174447,-187500.02235174447,-187500.02235174447,-187500.02235174447
$SILENCE,31544.346397441197,-793.7327973524091,7906.840194087053,36716.338898699156,-187500.02235174447,-187500.02235174447,-187500.02235174447,-187500.02235174447
$SILENCE,31752.821117975847,-990.4952037924771,8010.038198237205,36684.91234599499,-187500.02235174447,-187500.02235174447,-187500.02235174447,-187500.02235174447
$SILENCE,32442.931228033452,-997.7148172515414,8159.23609247638,36664.5052033073,-187500.02235174447,-187500.02235174447,-187500.02235174447,-187500.02235174447
$SILENCE,32355.49120372429,-827.863911135663,8094.639551000542,36695.48472112235,-187500.02235174447,-187500.02235174447,-187500.02235174447,-187500.02235174447
$SILENCE,31642.671721300096,-754.4607823444346,7936.344496768057,36730.17462851699,-187500.02235174447,-187500.02235174447,-187500.02235174447,-187500.02235174447
$SILENCE,31623.248055368433,-977.1288606082036,7957.601005745055,36683.39242737203,-187500.02235174447,-187500.02235174447,-187500.02235174447,-187500.02235174447
$SILENCE,32341.54371518418,-1036.696259581597,8127.876595005584,36655.16217412498,-187500.02235174447,-187500.02235174447,-187500.02235174447,-187500.02235174447
$SILENCE,32427.79909703721,-868.1194028996711,8110.196365141436,36687.28163090726,-187500.02235174447,-187500.02235174447,-187500.02235174447,-187500.02235174447
$SILENCE,31737.130193368223,-760.2275324139038,7941.373639270501,36728.38648896057,-187500.02235174447,-187500.02235174447,-187500.02235174447,-187500.02235174447
$SILENCE,31547.430938176032,-927.9550228065281,7952.527159753699,36714.371945187086,-187500.02235174447,-187500.02235174447,-187500.02235174447,-187500.02235174447
$SILENCE,32241.22908606876,-1033.6340705912198,8118.1088826786145,36664.05816841819,-187500.02235174447,-187500.02235174447,-187500.02235174447,-187500.02235174447
$SILENCE,32484.594879698147,-893.6003915787211,8126.826063016184,36677.89389823603,-187500.02235174447,-187500.02235174447,-187500.02235174447,-187500.02235174447
$SILENCE,31879.600212526348,-745.1401049065715,7980.466840322833,36727.42536394899,-187500.02235174447,-187500.02235174447,-187500.02235174447,-187500.02235174447
$SILENCE,31483.706114733952,-896.2826009133579,7919.223060515293,36702.59257585914,-187500.02235174447,-187500.02235174447,-187500.02235174447,-187500.02235174447
$SILENCE,32112.39363102837,-1045.3463846858008,8081.452021771911,36650.80358395619,-187500.02235174447,-187500.02235174447,-187500.02235174447,-187500.02235174447
$SILENCE,32516.334356824682,-929.0726100292934,8145.333307425179,36668.796738242716,-187500.02235174447,-187500.02235174447,-187500.02235174447,-187500.02235174447
$SILENCE,31990.643678980316,-783.24982920287,7989.720462527331,36702.43611364796,-187500.02235174447,-187500.02235174447,-187500.02235174447,-187500.02235174447
$SILENCE,31468.350466293155,-858.7540219728974,7906.817842342597,36719.468142922895,-187500.02235174447,-187500.02235174447,-187500.02235174447,-187500.02235174447
$SILENCE,31997.729181972645,-1017.8090355168624,8077.562818236687,36690.2097094309,-187500.02235174447,-187500.02235174447,-187500.02235174447,-187500.02235174447
$SILENCE,32524.53744703978,-953.9501016080501,8161.605377388642,36677.84919474712,-187500.02235174447,-187500.02235174447,-187500.02235174447,-187500.02235174447
$SILENCE,32128.129259124908,-803.2769922348252,8018.353047174579,36692.57899434317,-187500.02235174447,-187500.02235174447,-187500.02235174447,-187500.02235174447
$SILENCE,31485.874233946113,-821.7395331549088,7895.641970114943,36713.47787540888,-187500.02235174447,-187500.02235174447,-187500.02235174447,-187500.02235174447
$SILENCE,31849.514764489504,-1007.1025499227703,8037.664954383965,36690.92496525347,-187500.02235174447,-187500.02235174447,-187500.02235174447,-187500.02235174447
$SILENCE,32481.95737385242,-975.340721051779,8162.6559093780415,36680.08436919265,-187500.02235174447,-187500.02235174447,-187500.02235174447,-187500.02235174447
$SILENCE,32268.542917793147,-802.9640678124509,8068.510361732288,36711.37681143008,-187500.02235174447,-187500.02235174447,-187500.02235174447,-187500.02235174447
$SILENCE,31549.91198181057,-791.3411606956912,7902.325141707081,36717.45648592192,-187500.02235174447,-187500.02235174447,-187500.02235174447,-187500.02235174447
$SILENCE,31714.2867105349,-992.1045293932593,7992.357968373057,36681.26901164878,-187500.02235174447,-187500.02235174447,-187500.02235174447,-187500.02235174447
$SILENCE,32409.090686928117,-1014.9033087376724,8140.460627133922,36649.73070022234,-187500.02235174447,-187500.02235174447,-187500.02235174447,-187500.02235174447
$SILENCE,32351.758462400256,-850.1933038465147,8083.5307340062545,36687.326334396166,-187500.02235174447,-187500.02235174447,-187500.02235174447,-187500.02235174447
$SILENCE,31642.64936955564,-770.3752243966132,7926.308563507625,36726.397183704044,-187500.02235174447,-187500.02235174447,-187500.02235174447,-187500.02235174447
$SILENCE,31614.285005841855,-955.6041306977429,7973.135468141493,36702.88314853706,-187500.02235174447,-187500.02235174447,-187500.02235174447,-187500.02235174447
$SILENCE,32334.659377891945,-1021.0276867184266,8146.406191159033,36673.93763946744,-187500.02235174447,-187500.02235174447,-187500.02235174447,-187500.02235174447
$SILENCE,32436.71744307488,-875.0037401919055,8109.972847696883,36680.64316280403,-187500.02235174447,-187500.02235174447,-187500.02235174447,-187500.02235174447
$SILENCE,31770.38958911772,-749.2751776308033,7953.376526043002,36727.00068080434,-187500.02235174447,-187500.02235174447,-187500.02235174447,-187500.02235174447
$SILENCE,31520.541789596296,-925.0492960273381,7930.264822276214,36699.39627640203,-187500.02235174447,-187500.02235174447,-187500.02235174447,-187500.02235174447
$SILENCE,32202.22529199425,-1041.6359951062198,8104.519022049788,36662.13591839503,-187500.02235174447,-187500.02235174447,-187500.02235174447,-187500.02235174447
$SILENCE,32477.03999007225,-908.5760603637768,8127.27309790529,36683.92886923896,-187500.02235174447,-187500.02235174447,-187500.02235174447,-187500.02235174447
$SILENCE,31887.959764952633,-758.5511515797558,7973.269578608225,36728.7217651274,-187500.02235174447,-187500.02235174447,-187500.02235174447,-187500.02235174447
$SILENCE,31486.053047901758,-865.3254348427577,7925.436845473868,36727.69358488245,-187500.02235174447,-187500.02235174447,-187500.02235174447,-187500.02235174447
$SILENCE,32096.68035467629,-1022.3017361523791,8100.830984214662,36682.09602619363,-187500.02235174447,-187500.02235174447,-187500.02235174447,-187500.02235174447
$SILENCE,32512.981595156387,-939.8014473678408,8142.874615535095,36669.556697554195,-187500.02235174447,-187500.02235174447,-187500.02235174447,-187500.02235174447
$SILENCE,32011.967243190677,-785.0379687592947,7983.976064202317,36700.02212524678,-187500.02235174447,-187500.02235174447,-187500.02235174447,-187500.02235174447
$SILENCE,31460.728521433895,-854.7754114598526,7891.0598625016055,36712.15912248601,-187500.02235174447,-187500.02235174447,-187500.02235174447,-187500.02235174447
$SILENCE,31944.152050513276,-1030.2366054340132,8047.589128922121,36671.07661617716,-187500.02235174447,-187500.02235174447,-187500.02235174447,-187500.02235174447
$SILENCE,32502.073943862197,-963.6954621905641,8153.581101129187,36663.54407829572,-187500.02235174447,-187500.02235174447,-187500.02235174447,-187500.02235174447
$SILENCE,32174.59853584749,-790.2906287062918,8044.102256787093,36707.174683472476,-187500.02235174447,-187500.02235174447,-187500.02235174447,-187500.02235174447
$SILENCE,31518.28426340631,-798.3372567102024,7919.401874470935,36737.34953848714,-187500.02235174447,-187500.02235174447,-187500.02235174447,-187500.02235174447
$SILENCE,31826.850095611826,-998.6312387742089,8035.921518316451,36695.30590716671,-187500.02235174447,-187500.02235174447,-187500.02235174447,-187500.02235174447
$SILENCE,32458.689207874446,-1003.7497882544743,8146.964984770416,36656.9503136814,-187500.02235174447,-187500.02235174447,-187500.02235174447,-187500.02235174447
$SILENCE,32271.985086439265,-823.5500244557887,8062.4530389849,36697.60813684561,-187500.02235174447,-187500.02235174447,-187500.02235174447,-187500.02235174447
$SILENCE,31560.640819149117,-792.1011200071716,7901.7439963512425,36718.61877663359,-187500.02235174447,-187500.02235174447,-187500.02235174447,-187500.02235174447
$SILENCE,31686.190567754576,-988.8188229583292,7981.562075801144,36686.67813380696,-187500.02235174447,-187500.02235174447,-187500.02235174447,-187500.02235174447
$SILENCE,32396.64076526651,-1005.9626109555496,8151.301223194746,36669.06495917618,-187500.02235174447,-187500.02235174447,-187500.02235174447,-187500.02235174447
$SILENCE,32368.812843419655,-847.7793154453416,8093.2760945887685,36691.68492456495,-187500.02235174447,-187500.02235174447,-187500.02235174447,-187500.02235174447
$SILENCE,31672.868928059215,-759.512276591334,7931.80709264363,36733.035651807266,-187500.02235174447,-187500.02235174447,-187500.02235174447,-187500.02235174447
$SILENCE,31590.815674163783,-942.0589735578268,7964.060659892638,36710.30392769622,-187500.02235174447,-187500.02235174447,-187500.02235174447,-187500.02235174447
$SILENCE,32295.409714628426,-1025.945070498594,8129.172996183992,36662.73941549533,-187500.02235174447,-187500.02235174447,-187500.02235174447,-187500.02235174447
$SILENCE,32435.08576572964,-886.827813008763,8106.038940672749,36676.73160752435,-187500.02235174447,-187500.02235174447,-187500.02235174447,-187500.02235174447
$SILENCE,31787.555728859395,-759.0205382133172,7951.923662653407,36721.993890046346,-187500.02235174447,-187500.02235174447,-187500.02235174447,-187500.02235174447
$SILENCE,31526.442650132496,-902.1611097051036,7946.782761428686,36726.71010812642,-187500.02235174447,-187500.02235174447,-187500.02235174447,-187500.02235174447
$SILENCE,32181.326410928537,-1037.9032537821834,8102.485013304355,36662.96293293988,-187500.02235174447,-187500.02235174447,-187500.02235174447,-187500.02235174447
$SILENCE,32484.036086086762,-920.6236506251873,8127.720132794397,36668.41675858698,-187500.02235174447,-187500.02235174447,-187500.02235174447,-187500.02235174447
$SILENCE,31928.774050328026,-754.416078855524,7982.567904301633,36720.809247590216,-187500.02235174447,-187500.02235174447,-187500.02235174447,-187500.02235174447
$SILENCE,31479.615745498628,-872.6791587685536,7915.199746513337,36715.44482892094,-187500.02235174447,-187500.02235174447,-187500.02235174447,-187500.02235174447
$SILENCE,32059.643514113846,-1033.6340705912198,8083.642492728531,36667.477985319856,-187500.02235174447,-187500.02235174447,-187500.02235174447,-187500.02235174447
$SILENCE,32511.10404862214,-936.8733688441955,8153.80461857374,36674.809357501195,-187500.02235174447,-187500.02235174447,-187500.02235174447,-187500.02235174447
$SILENCE,32063.599772882437,-771.6492738305657,8014.06151223916,36717.94822429994,-187500.02235174447,-187500.02235174447,-187500.02235174447,-187500.02235174447
$SILENCE,32480.549213951734,-952.5419417073658,8146.629708603587,36666.65097077501,-187500.02235174447,-187500.02235174447,-187500.02235174447,-187500.02235174447
$SILENCE,31921.59914035787,-1025.2521664204796,8051.612442924076,36676.061055190694,-187500.02235174447,-187500.02235174447,-187500.02235174447,-187500.02235174447
$SILENCE,32480.772731396286,-987.9471049245722,8142.472284134899,36656.32446483665,-187500.02235174447,-187500.02235174447,-187500.02235174447,-187500.02235174447
$SILENCE,31493.60793752765,-852.7190509699644,7917.747845381242,36718.55172140023,-187500.02235174447,-187500.02235174447,-187500.02235174447,-187500.02235174447
$SILENCE,31582.523176970863,-943.0648020583155,7960.5290842687,36708.47108465089,-187500.02235174447,-187500.02235174447,-187500.02235174447,-187500.02235174447
$SILENCE,32460.56675440869,-933.2970897313464,8118.645324545542,36651.183563611936,-187500.02235174447,-187500.02235174447,-187500.02235174447,-187500.02235174447
$SILENCE,32448.42975716946,-993.5797445273096,8152.195292972958,36660.750110238805,-187500.02235174447,-187500.02235174447,-187500.02235174447,-187500.02235174447
$SILENCE,31545.754557341883,-787.9883990273952,7918.418397714901,36733.99677681885,-187500.02235174447,-187500.02235174447,-187500.02235174447,-187500.02235174447
$SILENCE,31517.27843490582,-901.9599440050059,7944.033496860683,36710.035706762756,-187500.02235174447,-187500.02235174447,-187500.02235174447,-187500.02235174447
$SILENCE,32459.113891019097,-978.7381862089857,8160.264272721323,36661.375959083554,-187500.02235174447,-187500.02235174447,-187500.02235174447,-187500.02235174447
$SILENCE,32271.314534105604,-1033.1870357021137,8125.999048471338,36660.906572449996,-187500.02235174447,-187500.02235174447,-187500.02235174447,-187500.02235174447
$SILENCE,32447.42392866897,-886.6042955642099,8119.181766412469,36682.09602619363,-187500.02235174447,-187500.02235174447,-187500.02235174447,-187500.02235174447
talvez,32299.410676885927,-831.864873393163,8075.953492635906,36696.825825789674,-187500.02235174447,-187500.02235174447,-187500.02235174447,-187500.02235174447
talvez,32475.408312727013,-958.9792441104942,8144.148664969047,36654.75984272479,-187500.02235174447,-187500.02235174447,-187500.02235174447,-187500.02235174447
talvez,31612.027479651868,-768.5423813512781,7915.222098257792,36733.683852396476,-187500.02235174447,-187500.02235174447,-187500.02235174447,-187500.02235174447
talvez,31667.683323345584,-955.9394068645724,7993.721424784831,36709.8121893182,-187500.02235174447,-187500.02235174447,-187500.02235174447,-187500.02235174447
talvez,32337.520401182224,-1028.2249484330355,8139.968888755905,36651.60824675659,-187500.02235174447,-187500.02235174447,-187500.02235174447,-187500.02235174447
talvez,32369.148119586484,-883.0950716847267,8089.453946286911,36665.46632831888,-187500.02235174447,-187500.02235174447,-187500.02235174447,-187500.02235174447
talvez,31478.811082698237,-858.8881324396292,7912.13755752296,36717.3670789441,-187500.02235174447,-187500.02235174447,-187500.02235174447,-187500.02235174447
talvez,31562.428958705543,-934.3029182318352,7947.632127717988,36700.22329094688,-187500.02235174447,-187500.02235174447,-187500.02235174447,-187500.02235174447
talvez,32483.700809919934,-923.0599907708157,8143.388705657567,36672.26125863329,-187500.02235174447,-187500.02235174447,-187500.02235174447,-187500.02235174447
talvez,32445.099347245618,-888.504193842911,8129.955307239928,36685.225270417366,-187500.02235174447,-187500.02235174447,-187500.02235174447,-187500.02235174447
talvez,31840.909342874213,-751.7562212653424,7967.905159938951,36729.03468954977,-187500.02235174447,-187500.02235174447,-187500.02235174447,-187500.02235174447
talvez,31504.895568477583,-895.0085514794054,7934.221081044803,36717.098858010635,-187500.02235174447,-187500.02235174447,-187500.02235174447,-187500.02235174447
talvez,32094.556938953036,-778.7124250784427,8017.771901818741,36703.21842470389,-187500.02235174447,-187500.02235174447,-187500.02235174447,-187500.02235174447
talvez,31505.342603366687,-811.994172572395,7915.80324361363,36732.38745121806,-187500.02235174447,-187500.02235174447,-187500.02235174447,-187500.02235174447
talvez,31875.062808401923,-1020.7371140405077,8044.705753887386,36685.80641577321,-187500.02235174447,-187500.02235174447,-187500.02235174447,-187500.02235174447
talvez,32470.960315580407,-986.3154275793347,8158.18556048698,36672.082444677646,-187500.02235174447,-187500.02235174447,-187500.02235174447,-187500.02235174447
talvez,32208.282614741638,-812.4859109504117,8042.984669564327,36699.15040721303,-187500.02235174447,-187500.02235174447,-187500.02235174447,-187500.02235174447
talvez,31547.274475964845,-785.2614862038478,7907.108415020516,36726.75481161533,-187500.02235174447,-187500.02235174447,-187500.02235174447,-187500.02235174447
talvez,31754.408091832174,-989.0199886584269,8013.5027186277775,36690.522633853274,-187500.02235174447,-187500.02235174447,-187500.02235174447,-187500.02235174447
talvez,32404.17330314795,-1016.982020972016,8143.209891701925,36650.73652872283,-187500.02235174447,-187500.02235174447,-187500.02235174447,-187500.02235174447
talvez,32321.53890389668,-836.0670013507607,8082.189629338936,36689.002715230316,-187500.02235174447,-187500.02235174447,-187500.02235174447,-187500.02235174447
talvez,31644.616323067705,-751.510352076334,7937.149159568448,36744.94913160195,-187500.02235174447,-187500.02235174447,-187500.02235174447,-187500.02235174447
talvez,31631.473497327985,-962.2649505454243,7976.756450743253,36694.992982744334,-187500.02235174447,-187500.02235174447,-187500.02235174447,-187500.02235174447
talvez,32310.139514224473,-1034.8634165362616,8127.161339183014,36647.40611879899,-187500.02235174447,-187500.02235174447,-187500.02235174447,-187500.02235174447
talvez,32382.000372648286,-881.0834146837491,8088.4034142975115,36673.64706678952,-187500.02235174447,-187500.02235174447,-187500.02235174447,-187500.02235174447
talvez,31737.264303834952,-755.6901282894764,7941.798322415152,36732.99094831836,-187500.02235174447,-187500.02235174447,-187500.02235174447,-187500.02235174447
talvez,31546.11218525317,-924.8481303272404,7955.38818304398,36704.67128809349,-187500.02235174447,-187500.02235174447,-187500.02235174447,-187500.02235174447
talvez,32223.75002190471,-1034.1705124581472,8120.2770018907795,36660.9512759389,-187500.02235174447,-187500.02235174447,-187500.02235174447,-187500.02235174447
talvez,32456.386978195547,-898.115443958693,8125.663772304509,36679.905555237005,-187500.02235174447,-187500.02235174447,-187500.02235174447,-187500.02235174447
talvez,31861.987037895567,-753.9466922219625,7967.122848883016,36731.493381439854,-187500.02235174447,-187500.02235174447,-187500.02235174447,-187500.02235174447
talvez,31507.86835049014,-877.0377489373385,7934.690467678365,36727.22419824889,-187500.02235174447,-187500.02235174447,-187500.02235174447,-187500.02235174447
talvez,32104.145837324362,-1040.92073928365,8104.2508011163245,36667.947371953414,-187500.02235174447,-187500.02235174447,-187500.02235174447,-187500.02235174447
talvez,32469.775673124277,-947.8927788606619,8129.0835892061705,36659.94544743842,-187500.02235174447,-187500.02235174447,-187500.02235174447,-187500.02235174447
talvez,31998.779713962045,-759.7804975247976,7995.464860852345,36721.45744817942,-187500.02235174447,-187500.02235174447,-187500.02235174447,-187500.02235174447
talvez,31487.50591129135,-831.1943210595037,7919.80420587113,36731.359270973124,-187500.02235174447,-187500.02235174447,-187500.02235174447,-187500.02235174447
talvez,31965.65442867928,-1030.5718816008427,8072.176047822959,36668.863793476085,-187500.02235174447,-187500.02235174447,-187500.02235174447,-187500.02235174447
talvez,32465.014751555296,-967.9422936370723,8136.32555440969,36654.08929039112,-187500.02235174447,-187500.02235174447,-187500.02235174447,-187500.02235174447
talvez,32098.334383765985,-794.5374601528001,8006.797195291186,36689.87443326407,-187500.02235174447,-187500.02235174447,-187500.02235174447,-187500.02235174447
talvez,31499.32998410821,-811.3236202387358,7902.816880085097,36719.31168071171,-187500.02235174447,-187500.02235174447,-187500.02235174447,-187500.02235174447
talvez,31843.368034764295,-1008.756579012463,8040.280108485235,36680.196127914925,-187500.02235174447,-187500.02235174447,-187500.02235174447,-187500.02235174447
talvez,32444.965236778884,-990.2269828590134,8153.715211595919,36657.12912763705,-187500.02235174447,-187500.02235174447,-187500.02235174447,-187500.02235174447
talvez,32231.930760375355,-813.7599603843643,8054.875797614551,36694.45654087741,-187500.02235174447,-187500.02235174447,-187500.02235174447,-187500.02235174447
talvez,31555.656380135584,-779.2935704342807,7912.986923812262,36721.65861387952,-187500.02235174447,-187500.02235174447,-187500.02235174447,-187500.02235174447
talvez,31715.806629157858,-980.1239943652147,8005.567849346144,36687.41574137399,-187500.02235174447,-187500.02235174447,-187500.02235174447,-187500.02235174447
talvez,32378.491148768804,-1012.1987476585804,8148.484903393377,36662.18062188395,-187500.02235174447,-187500.02235174447,-187500.02235174447,-187500.02235174447
talvez,32323.7293748533,-847.667556723065,8078.233370570347,36691.506110609305,-187500.02235174447,-187500.02235174447,-187500.02235174447,-187500.02235174447
talvez,31655.523974361895,-755.7795352672977,7926.017990829706,36741.3728524891,-187500.02235174447,-187500.02235174447,-187500.02235174447,-187500.02235174447
talvez,31608.58531100575,-950.9773195954942,7971.526142540711,36707.532311383766,-187500.02235174447,-187500.02235174447,-187500.02235174447,-187500.02235174447
talvez,32287.184272668874,-1032.1588554571695,8131.98931598536,36652.18939211242,-187500.02235174447,-187500.02235174447,-187500.02235174447,-187500.02235174447
talvez,32394.874977454543,-885.3302461302575,8102.440309815444,36666.203935885904,-187500.02235174447,-187500.02235174447,-187500.02235174447,-187500.02235174447
talvez,31758.967847701057,-756.2042184119485,7951.09664810856,36723.42440169149,-187500.02235174447,-187500.02235174447,-187500.02235174447,-187500.02235174447
talvez,31540.591304372705,-914.8345488112627,7946.738057939775,36706.682945094464,-187500.02235174447,-187500.02235174447,-187500.02235174447,-187500.02235174447
talvez,32198.447847181305,-1032.6952973240968,8117.147757667037,36655.54215378072,-187500.02235174447,-187500.02235174447,-187500.02235174447,-187500.02235174447
talvez,32455.403501439516,-910.0736272422823,8129.620031073097,36670.36136035459,-187500.02235174447,-187500.02235174447,-187500.02235174447,-187500.02235174447
talvez,31881.99184918307,-759.1770004245044,7966.027613404705,36717.83646557766,-187500.02235174447,-187500.02235174447,-187500.02235174447,-187500.02235174447
talvez,31496.468960817932,-859.6480917511096,7927.403798985934,36722.351517957635,-187500.02235174447,-187500.02235174447,-187500.02235174447,-187500.02235174447
talvez,32086.01857257111,-1017.049076205382,8107.26828661779,36678.45269184741,-187500.02235174447,-187500.02235174447,-187500.02235174447,-187500.02235174447
talvez,32460.52205091978,-944.3835549811787,8139.052467233238,36664.88518296304,-187500.02235174447,-187500.02235174447,-187500.02235174447,-187500.02235174447
talvez,31994.37642030435,-782.9369047804958,7989.832221249608,36710.34863118513,-187500.02235174447,-187500.02235174447,-187500.02235174447,-187500.02235174447
talvez,31479.056951887247,-839.5538734857886,7911.1317290224715,36724.87726508108,-187500.02235174447,-187500.02235174447,-187500.02235174447,-187500.02235174447
talvez,31945.64961739178,-1020.3571343847674,8071.6172542115755,36678.76561626978,-187500.02235174447,-187500.02235174447,-187500.02235174447,-187500.02235174447
talvez,32468.8145481127,-965.8412296582735,8164.511104167832,36667.321523108665,-187500.02235174447,-187500.02235174447,-187500.02235174447,-187500.02235174447
talvez,32122.228398588708,-799.9465823109845,8031.339410703113,36695.17179669998,-187500.02235174447,-187500.02235174447,-187500.02235174447,-187500.02235174447
talvez,31503.12978066561,-808.641410904099,7898.838269572052,36717.05415452173,-187500.02235174447,-187500.02235174447,-187500.02235174447,-187500.02235174447
talvez,31795.468246396573,-1012.0199337029379,8015.514375628755,36667.455633575395,-187500.02235174447,-187500.02235174447,-187500.02235174447,-187500.02235174447
talvez,32415.57269282016,-991.9257154376169,8145.690935336464,36654.62573225805,-187500.02235174447,-187500.02235174447,-187500.02235174447,-187500.02235174447
talvez,32241.273789557672,-818.9008616090848,8064.487047730333,36701.095008980636,-187500.02235174447,-187500.02235174447,-187500.02235174447,-187500.02235174447
talvez,31573.67188616656,-774.86792503213,7915.579726169077,36736.83544836467,-187500.02235174447,-187500.02235174447,-187500.02235174447,-187500.02235174447
talvez,31692.672573646614,-976.4136047856338,7997.096538197582,36697.250508934325,-187500.02235174447,-187500.02235174447,-187500.02235174447,-187500.02235174447
talvez,32357.279343280716,-1014.0315907039155,8145.959156269927,36658.6043427711,-187500.02235174447,-187500.02235174447,-187500.02235174447,-187500.02235174447
talvez,32333.407680202446,-853.6354724926321,8089.0516148867155,36682.09602619363,-187500.02235174447,-187500.02235174447,-187500.02235174447,-187500.02235174447
talvez,31668.823262312802,-765.2119714274373,7933.505825222233,36727.96180581592,-187500.02235174447,-187500.02235174447,-187500.02235174447,-187500.02235174447
talvez,31595.19661607702,-937.5886246667653,7979.9303984559065,36711.30975619671,-187500.02235174447,-187500.02235174447,-187500.02235174447,-187500.02235174447
talvez,32273.90733646242,-1014.4115703596557,8139.477150377888,36662.6053050286,-187500.02235174447,-187500.02235174447,-187500.02235174447,-187500.02235174447
talvez,32410.99058520682,-873.863801224685,8110.352827352623,36677.178642413455,-187500.02235174447,-187500.02235174447,-187500.02235174447,-187500.02235174447
talvez,31776.737484543024,-764.9213987495183,7945.642822461466,36719.84812257864,-187500.02235174447,-187500.02235174447,-187500.02235174447,-187500.02235174447
talvez,31520.407679129563,-912.1523394766259,7936.612717701521,36701.720857825385,-187500.02235174447,-187500.02235174447,-187500.02235174447,-187500.02235174447
talvez,32174.687942825312,-1027.8673205217506,8120.32170537969,36660.683055005444,-187500.02235174447,-187500.02235174447,-187500.02235174447,-187500.02235174447
talvez,32454.554135150214,-916.5779848787768,8129.0835892061705,36662.4041393285,-187500.02235174447,-187500.02235174447,-187500.02235174447,-187500.02235174447
talvez,31897.012221457033,-776.4996023773674,7962.4960377807665,36699.128055468565,-187500.02235174447,-187500.02235174447,-187500.02235174447,-187500.02235174447
talvez,31486.47773104641,-867.828830221752,7915.937354080362,36710.84036956315,-187500.02235174447,-187500.02235174447,-187500.02235174447,-187500.02235174447
talvez,32048.780566308567,-1029.3872391447114,8092.963170166394,36666.11452890808,-187500.02235174447,-187500.02235174447,-187500.02235174447,-187500.02235174447
talvez,32464.590068410645,-946.7751916378966,8143.589871357664,36658.939618937926,-187500.02235174447,-187500.02235174447,-187500.02235174447,-187500.02235174447
talvez,32037.58234233646,-771.0010732413618,8009.769977303741,36711.153293985524,-187500.02235174447,-187500.02235174447,-187500.02235174447,-187500.02235174447
talvez,31493.026792171815,-826.0310680903278,7915.333856980069,36725.23489299237,-187500.02235174447,-187500.02235174447,-187500.02235174447,-187500.02235174447
talvez,31916.905274022258,-1023.3969716306892,8061.670727928964,36679.74909302581,-187500.02235174447,-187500.02235174447,-187500.02235174447,-187500.02235174447
talvez,32451.84957407112,-978.0452821308711,8146.786170814774,36662.96293293988,-187500.02235174447,-187500.02235174447,-187500.02235174447,-187500.02235174447
talvez,32152.738529770202,-798.1137392656493,8030.579451391632,36699.418628146486,-187500.02235174447,-187500.02235174447,-187500.02235174447,-187500.02235174447
talvez,31529.99657750089,-790.5364978953002,7915.04328430215,36727.023032548794,-187500.02235174447,-187500.02235174447,-187500.02235174447,-187500.02235174447
talvez,31804.990089534534,-995.9713811840275,8038.536672417721,36681.78310177125,-187500.02235174447,-187500.02235174447,-187500.02235174447,-187500.02235174447
talvez,32421.339442889624,-1006.2531836334687,8156.5538831417425,36650.468307789364,-187500.02235174447,-187500.02235174447,-187500.02235174447,-187500.02235174447
talvez,32277.461263830814,-832.3342600267245,8079.239199070836,36688.220404174375,-187500.02235174447,-187500.02235174447,-187500.02235174447,-187500.02235174447
talvez,31594.21313932099,-779.2712186898254,7919.401874470935,36718.68583186696,-187500.02235174447,-187500.02235174447,-187500.02235174447,-187500.02235174447
talvez,31671.438416414076,-976.6371222301868,7988.5358200712,36694.88122402206,-187500.02235174447,-187500.02235174447,-187500.02235174447,-187500.02235174447
talvez,32348.07042456513,-1014.72449478203,8146.5179498813095,36662.51589805078,-187500.02235174447,-187500.02235174447,-187500.02235174447,-187500.02235174447
talvez,32361.190898560395,-851.4226497915566,8096.494745790333,36687.63925881854,-187500.02235174447,-187500.02235174447,-187500.02235174447,-187500.02235174447
talvez,31698.148751038167,-754.5278375778005,7941.418342759413,36727.62652964908,-187500.02235174447,-187500.02235174447,-187500.02235174447,-187500.02235174447
talvez,31571.928450099047,-938.9297293340837,7962.406630802946,36695.2612036778,-187500.02235174447,-187500.02235174447,-187500.02235174447,-187500.02235174447
talvez,32251.734405962758,-1039.400820660689,8131.810502029718,36645.997958898304,-187500.02235174447,-187500.02235174447,-187500.02235174447,-187500.02235174447
talvez,32417.40553586549,-905.1338917176595,8109.3022953632235,36669.556697554195,-187500.02235174447,-187500.02235174447,-187500.02235174447,-187500.02235174447
talvez,31815.450705939616,-752.5385323212782,7967.1899041163815,36728.3194337272,-187500.02235174447,-187500.02235174447,-187500.02235174447,-187500.02235174447
talvez,31507.778943512316,-895.5002898574221,7937.0821043350825,36710.37098292959,-187500.02235174447,-187500.02235174447,-187500.02235174447,-187500.02235174447
talvez,32133.7842504721,-1041.3901259172114,8103.98258018286,36659.9007439495,-187500.02235174447,-187500.02235174447,-187500.02235174447,-187500.02235174447
talvez,32470.46857720239,-925.3175169608018,8144.752162069341,36668.72968300935,-187500.02235174447,-187500.02235174447,-187500.02235174447,-187500.02235174447
talvez,31947.214239503654,-760.4734016029122,7992.5367823287,36717.74705859984,-187500.02235174447,-187500.02235174447,-187500.02235174447,-187500.02235174447
talvez,31489.450513058964,-851.8026294472968,7928.074351319594,36726.88892208206,-187500.02235174447,-187500.02235174447,-187500.02235174447,-187500.02235174447
talvez,32016.549350804016,-1033.0529252353817,8094.460737044899,36667.053302175205,-187500.02235174447,-187500.02235174447,-187500.02235174447,-187500.02235174447
talvez,32454.285914216747,-965.7071191915417,8136.034981731771,36653.17286886846,-187500.02235174447,-187500.02235174447,-187500.02235174447,-187500.02235174447
talvez,32055.06140650051,-785.6191141151327,8010.2170121928475,36707.9122910395,-187500.02235174447,-187500.02235174447,-187500.02235174447,-187500.02235174447
talvez,31489.226995614412,-824.511149467367,7914.216269757304,36724.81020984772,-187500.02235174447,-187500.02235174447,-187500.02235174447,-187500.02235174447
talvez,31882.327125349897,-1024.2910414089015,8047.946756833406,36673.11062492259,-187500.02235174447,-187500.02235174447,-187500.02235174447,-187500.02235174447
talvez,32444.09351874513,-983.1191281222258,8146.786170814774,36659.140784638024,-187500.02235174447,-187500.02235174447,-187500.02235174447,-187500.02235174447
talvez,32184.410951663373,-801.7794253563196,8048.662012655976,36707.0629247502,-187500.02235174447,-187500.02235174447,-187500.02235174447,-187500.02235174447
talvez,31539.630179361127,-790.4694426619343,7920.340647738058,36738.73534664337,-187500.02235174447,-187500.02235174447,-187500.02235174447,-187500.02235174447
talvez,31760.62187679075,-996.9325061956056,8019.247116952792,36686.38756112904,-187500.02235174447,-187500.02235174447,-187500.02235174447,-187500.02235174447
talvez,32390.158759374473,-1009.6506487906753,8142.762856812818,36643.96395015287,-187500.02235174447,-187500.02235174447,-187500.02235174447,-187500.02235174447
talvez,32277.327153364084,-838.6821554520316,8069.940873377428,36684.46531110589,-187500.02235174447,-187500.02235174447,-187500.02235174447,-187500.02235174447
talvez,31612.83214245226,-765.1002127051607,7928.2755170196915,36737.41659372051,-187500.02235174447,-187500.02235174447,-187500.02235174447,-187500.02235174447
talvez,31629.417136838096,-974.1560785956477,7974.968311186828,36698.32339266818,-187500.02235174447,-187500.02235174447,-187500.02235174447,-187500.02235174447
talvez,32297.220205929305,-1032.0247449904377,8125.484958348866,36653.37403456856,-187500.02235174447,-187500.02235174447,-187500.02235174447,-187500.02235174447
talvez,32361.414416004947,-875.5848855477435,8099.154603380514,36680.28553489275,-187500.02235174447,-187500.02235174447,-187500.02235174447,-187500.02235174447
talvez,31707.447076731572,-761.2333609143926,7940.770142170209,36725.279596481276,-187500.02235174447,-187500.02235174447,-187500.02235174447,-187500.02235174447
talvez,31543.76525208536,-928.826740840285,7948.95088064085,36706.83940730565,-187500.02235174447,-187500.02235174447,-187500.02235174447,-187500.02235174447
talvez,32204.125190272953,-1034.3269746693343,8112.096263420137,36663.18645038443,-187500.02235174447,-187500.02235174447,-187500.02235174447,-187500.02235174447
talvez,32399.03240192323,-905.9609062625059,8101.881516204062,36674.47408133437,-187500.02235174447,-187500.02235174447,-187500.02235174447,-187500.02235174447
talvez,31812.67908962716,-760.1828289249931,7961.3784505580015,36731.24751225085,-187500.02235174447,-187500.02235174447,-187500.02235174447,-187500.02235174447
talvez,31485.002515912358,-888.0124554648943,7927.4708542193,36732.58861691816,-187500.02235174447,-187500.02235174447,-187500.02235174447,-187500.02235174447
talvez,32089.9748313397,-1036.3609834147674,8092.717300977386,36678.83267150315,-187500.02235174447,-187500.02235174447,-187500.02235174447,-187500.02235174447
talvez,32444.026463511764,-939.600281667743,8134.157435197525,36678.89972673651,-187500.02235174447,-187500.02235174447,-187500.02235174447,-187500.02235174447
talvez,31945.157879013765,-771.8951430195741,7990.458070094356,36723.69262262495,-187500.02235174447,-187500.02235174447,-187500.02235174447,-187500.02235174447
talvez,31465.444739513965,-852.02614689185,7920.385351226968,36733.70620414093,-187500.02235174447,-187500.02235174447,-187500.02235174447,-187500.02235174447
talvez,31965.296800767996,-1038.7302683270298,8063.905902374495,36666.38274984154,-187500.02235174447,-187500.02235174447,-187500.02235174447,-187500.02235174447
talvez,32443.870001300576,-974.4466512735667,8131.877557263084,36650.624770000555,-187500.02235174447,-187500.02235174447,-187500.02235174447,-187500.02235174447
talvez,32072.54047066456,-794.7609775973532,8012.340427916101,36708.02404976178,-187500.02235174447,-187500.02235174447,-187500.02235174447,-187500.02235174447
talvez,31485.985992668393,-813.0894080507051,7913.5680691681,36745.619683935605,-187500.02235174447,-187500.02235174447,-187500.02235174447,-187500.02235174447
talvez,31844.820898153892,-1012.6904860365971,8045.711582387875,36692.847215276626,-187500.02235174447,-187500.02235174447,-187500.02235174447,-187500.02235174447
talvez,32438.505582631304,-984.5496397673655,8156.017441274816,36674.675247034465,-187500.02235174447,-187500.02235174447,-187500.02235174447,-187500.02235174447
talvez,32200.28069022664,-817.5597569417664,8049.153751033992,36701.78791305875,-187500.02235174447,-187500.02235174447,-187500.02235174447,-187500.02235174447
talvez,31544.122879996645,-792.5705066407331,7911.377598211479,36730.12992502808,-187500.02235174447,-187500.02235174447,-187500.02235174447,-187500.02235174447
talvez,31722.132172838712,-996.8207474733291,8006.81954703564,36693.540119354744,-187500.02235174447,-187500.02235174447,-187500.02235174447,-187500.02235174447
talvez,32371.15977658746,-1027.1520646991808,8135.163263698014,36656.05624390319,-187500.02235174447,-187500.02235174447,-187500.02235174447,-187500.02235174447
talvez,32306.071496733606,-844.2924433103137,8077.473411258867,36697.63048859006,-187500.02235174447,-187500.02235174447,-187500.02235174447,-187500.02235174447
talvez,31626.757279247915,-765.4578406164457,7920.787682627164,36740.14350654406,-187500.02235174447,-187500.02235174447,-187500.02235174447,-187500.02235174447
talvez,31629.77476474938,-956.632310942687,7982.791421746186,36708.292270695245,-187500.02235174447,-187500.02235174447,-187500.02235174447,-187500.02235174447
talvez,32318.230845717295,-1020.5583000848652,8150.89889179455,36671.97068595537,-187500.02235174447,-187500.02235174447,-187500.02235174447,-187500.02235174447
talvez,32373.439654521902,-889.3535601322127,8094.974827167372,36671.903630722,-187500.02235174447,-187500.02235174447,-187500.02235174447,-187500.02235174447
talvez,31734.17976310012,-771.0457767302725,7937.126807823994,36727.20184650443,-187500.02235174447,-187500.02235174447,-187500.02235174447,-187500.02235174447
talvez,31535.584513614718,-940.4049444681341,7939.652554947443,36705.23008170487,-187500.02235174447,-187500.02235174447,-187500.02235174447,-187500.02235174447
talvez,32195.095085513007,-1045.9945852750045,8110.688103519453,36658.44788055991,-187500.02235174447,-187500.02235174447,-187500.02235174447,-187500.02235174447
talvez,32432.448259883913,-910.2971446868354,8118.13123442307,36675.61402030158,-187500.02235174447,-187500.02235174447,-187500.02235174447,-187500.02235174447
talvez,31856.555563992926,-760.5404568362782,7969.983872173295,36725.8160383482,-187500.02235174447,-187500.02235174447,-187500.02235174447,-187500.02235174447
talvez,31486.410675813044,-891.991065977939,7929.795435642653,36723.245587735844,-187500.02235174447,-187500.02235174447,-187500.02235174447,-187500.02235174447
talvez,32070.238240985662,-1044.3852596742224,8086.257646829802,36666.11452890808,-187500.02235174447,-187500.02235174447,-187500.02235174447,-187500.02235174447
talvez,32463.47248118788,-933.4535519425335,8142.472284134899,36675.0552266902,-187500.02235174447,-187500.02235174447,-187500.02235174447,-187500.02235174447
talvez,32001.976013419157,-757.7017852904542,8019.940021030906,36731.69454713995,-187500.02235174447,-187500.02235174447,-187500.02235174447,-187500.02235174447
talvez,31485.65071650156,-833.5189024828557,7931.762389154719,36737.84127686516,-187500.02235174447,-187500.02235174447,-187500.02235174447,-187500.02235174447
talvez,31944.777899358025,-1039.1549514716808,8052.171236535459,36662.62765677305,-187500.02235174447,-187500.02235174447,-187500.02235174447,-187500.02235174447
talvez,32454.889411317043,-976.4583082745444,8137.331382910179,36654.961008424885,-187500.02235174447,-187500.02235174447,-187500.02235174447,-187500.02235174447
talvez,32115.969910141222,-798.963105554951,8025.818529822652,36707.19703521694,-187500.02235174447,-187500.02235174447,-187500.02235174447,-187500.02235174447
talvez,31507.980109212414,-810.3848469716129,7915.467967446801,36734.779087874784,-187500.02235174447,-187500.02235174447,-187500.02235174447,-187500.02235174447
talvez,31813.77432510547,-1014.0092389594602,8025.751474589286,36679.97261047037,-187500.02235174447,-187500.02235174447,-187500.02235174447,-187500.02235174447
talvez,32422.166457434472,-1000.0617504193486,8145.4003626585445,36658.98432242683,-187500.02235174447,-187500.02235174447,-187500.02235174447,-187500.02235174447
talvez,32229.56147546309,-821.7395331549088,8062.698908173908,36702.59257585914,-187500.02235174447,-187500.02235174447,-187500.02235174447,-187500.02235174447
talvez,31560.90904008258,-775.382015154602,7927.917889108407,36756.728500929894,-187500.02235174447,-187500.02235174447,-187500.02235174447,-187500.02235174447
talvez,31699.914538850135,-988.6400090026867,8000.985741732806,36699.86566303559,-187500.02235174447,-187500.02235174447,-187500.02235174447,-187500.02235174447
talvez,32374.8925179115,-1017.0714279498372,8150.071877249704,36665.53338355224,-187500.02235174447,-187500.02235174447,-187500.02235174447,-187500.02235174447
talvez,32322.790601586177,-855.1106876266823,8081.07204211617,36693.24954667682,-187500.02235174447,-187500.02235174447,-187500.02235174447,-187500.02235174447
talvez,31652.73000630498,-764.4743638604122,7932.611755444022,36740.67994841099,-187500.02235174447,-187500.02235174447,-187500.02235174447,-187500.02235174447
talvez,31596.87299691117,-957.6604911876311,7966.787572716185,36702.54787237023,-187500.02235174447,-187500.02235174447,-187500.02235174447,-187500.02235174447
talvez,32287.05016220214,-1034.371678158245,8134.604470086631,36668.439110331434,-187500.02235174447,-187500.02235174447,-187500.02235174447,-187500.02235174447
talvez,32415.460934097882,-882.245705395425,8125.552013582232,36697.3622676566,-187500.02235174447,-187500.02235174447,-187500.02235174447,-187500.02235174447
talvez,31764.71224602607,-764.899047005063,7953.689450465376,36731.89571284005,-187500.02235174447,-187500.02235174447,-187500.02235174447,-187500.02235174447
talvez,31525.28035942082,-924.7363716049638,7939.80901715863,36713.5672823867,-187500.02235174447,-187500.02235174447,-187500.02235174447,-187500.02235174447
talvez,32180.78996906161,-1036.5397973704098,8119.159414668014,36670.92015396597,-187500.02235174447,-187500.02235174447,-187500.02235174447,-187500.02235174447
talvez,32454.352969450116,-912.8005400658299,8135.520891609299,36684.085331450144,-187500.02235174447,-187500.02235174447,-187500.02235174447,-187500.02235174447
talvez,31892.474817332604,-754.125506177605,7990.72629102782,36737.12602104259,-187500.02235174447,-187500.02235174447,-187500.02235174447,-187500.02235174447
talvez,31483.75081822286,-868.991120933428,7928.633144930976,36726.687756381965,-187500.02235174447,-187500.02235174447,-187500.02235174447,-187500.02235174447
talvez,32046.05365348502,-1048.20740797608,8079.574475237665,36662.87352596206,-187500.02235174447,-187500.02235174447,-187500.02235174447,-187500.02235174447
talvez,32462.04196954274,-958.1075260767373,8144.059257991226,36663.20880212889,-187500.02235174447,-187500.02235174447,-187500.02235174447,-187500.02235174447
talvez,32015.275301370064,-785.0156170148393,8007.624209836032,36721.74802085734,-187500.02235174447,-187500.02235174447,-187500.02235174447,-187500.02235174447
talvez,31477.26881233082,-844.4489055215008,7915.155043024426,36739.09297455466,-187500.02235174447,-187500.02235174447,-187500.02235174447,-187500.02235174447
talvez,31913.999547243067,-1038.0373642489153,8055.5910534371205,36687.102816951614,-187500.02235174447,-187500.02235174447,-187500.02235174447,-187500.02235174447
talvez,32448.02742576926,-991.791604970885,8143.098132979648,36663.85700271809,-187500.02235174447,-187500.02235174447,-187500.02235174447,-187500.02235174447
talvez,32135.326520839517,-799.8348235887079,8033.149902003993,36708.225215461876,-187500.02235174447,-187500.02235174447,-187500.02235174447,-187500.02235174447
talvez,31506.706059778462,-807.6132306591547,7915.04328430215,36731.73925062886,-187500.02235174447,-187500.02235174447,-187500.02235174447,-187500.02235174447
talvez,31793.925976029157,-1011.2823261359127,8030.1771199914365,36682.96774422738,-187500.02235174447,-187500.02235174447,-187500.02235174447,-187500.02235174447
talvez,32428.26848367077,-997.8042242293626,8155.548054641254,36667.813261486684,-187500.02235174447,-187500.02235174447,-187500.02235174447,-187500.02235174447
talvez,32267.20181312583,-815.3692859851463,8083.262513072791,36715.22131147639,-187500.02235174447,-187500.02235174447,-187500.02235174447,-187500.02235174447
talvez,31572.040208821323,-791.5870298846996,7919.379522726479,36731.40397446203,-187500.02235174447,-187500.02235174447,-187500.02235174447,-187500.02235174447
talvez,31678.859195573237,-991.4563288040554,7999.86815451004,36697.13875021205,-187500.02235174447,-187500.02235174447,-187500.02235174447,-187500.02235174447
talvez,32364.275439295227,-1014.2327564040132,8156.218606974913,36673.334142367145,-187500.02235174447,-187500.02235174447,-187500.02235174447,-187500.02235174447
talvez,32347.48927920929,-859.4469260510118,8092.851411444118,36704.20190145992,-187500.02235174447,-187500.02235174447,-187500.02235174447,-187500.02235174447
talvez,31688.023410799913,-758.2829306462921,7950.582557986088,36752.615779950116,-187500.02235174447,-187500.02235174447,-187500.02235174447,-187500.02235174447
talvez,31588.289927040332,-955.3359097642792,7966.809924460641,36700.960898513906,-187500.02235174447,-187500.02235174447,-187500.02235174447,-187500.02235174447
talvez,32273.415598084404,-1043.5358933849209,8140.572385856198,36651.96587466787,-187500.02235174447,-187500.02235174447,-187500.02235174447,-187500.02235174447
talvez,32416.6008730651,-894.1144817011931,8115.784301255263,36676.46338659088,-187500.02235174447,-187500.02235174447,-187500.02235174447,-187500.02235174447
talvez,31779.777321788948,-762.6191690706216,7950.984889386284,36724.36317495861,-187500.02235174447,-187500.02235174447,-187500.02235174447,-187500.02235174447
talvez,31502.28041437631,-924.6469646271426,7933.550528711145,36710.12511374058,-187500.02235174447,-187500.02235174447,-187500.02235174447,-187500.02235174447
talvez,32152.000922203177,-1055.628187135242,8106.888306962051,36656.99501717032,-187500.02235174447,-187500.02235174447,-187500.02235174447,-187500.02235174447
talvez,32453.905934561008,-928.1785402510811,8129.687086306463,36668.34970335361,-187500.02235174447,-187500.02235174447,-187500.02235174447,-187500.02235174447
talvez,31929.444602661682,-752.449125343457,8000.806927777163,36739.74117514386,-187500.02235174447,-187500.02235174447,-187500.02235174447,-187500.02235174447
talvez,31483.683762989494,-867.0688709102716,7932.4999967217445,36739.182381532475,-187500.02235174447,-187500.02235174447,-187500.02235174447,-187500.02235174447
talvez,32026.942911975733,-1046.2628062084682,8085.765908451785,36678.586802314145,-187500.02235174447,-187500.02235174447,-187500.02235174447,-187500.02235174447
talvez,32473.888394104055,-956.341738264768,8149.8036563162395,36668.41675858698,-187500.02235174447,-187500.02235174447,-187500.02235174447,-187500.02235174447
talvez,32054.59201986695,-780.3888059125908,8019.984724519816,36717.14356149954,-187500.02235174447,-187500.02235174447,-187500.02235174447,-187500.02235174447
talvez,31483.214376355932,-837.0951815957048,7913.210441256815,36730.71107038392,-187500.02235174447,-187500.02235174447,-187500.02235174447,-187500.02235174447
talvez,31900.812018014436,-1034.371678158245,8057.200379037903,36673.98234295635,-187500.02235174447,-187500.02235174447,-187500.02235174447,-187500.02235174447
talvez,32465.059455044207,-980.5486775098656,8162.700612866952,36668.55086905371,-187500.02235174447,-187500.02235174447,-187500.02235174447,-187500.02235174447
talvez,32172.40806489087,-798.091387521194,8052.350050491101,36713.07554400868,-187500.02235174447,-187500.02235174447,-187500.02235174447,-187500.02235174447
talvez,31512.070478447735,-808.3061347372693,7910.863508089007,36729.88405583907,-187500.02235174447,-187500.02235174447,-187500.02235174447,-187500.02235174447
talvez,31760.733635513025,-1025.1851111871138,8012.742759316297,36681.40312211551,-187500.02235174447,-187500.02235174447,-187500.02235174447,-187500.02235174447
talvez,32409.18009390594,-1016.982020972016,8145.445066147455,36661.241848616824,-187500.02235174447,-187500.02235174447,-187500.02235174447,-187500.02235174447
talvez,32272.789749239655,-837.8774926516405,8071.281978044746,36698.34574441263,-187500.02235174447,-187500.02235174447,-187500.02235174447,-187500.02235174447
talvez,31588.356982273697,-783.1827739695042,7920.944144838351,36735.80726811973,-187500.02235174447,-187500.02235174447,-187500.02235174447,-187500.02235174447
talvez,31652.528840604886,-979.5652007538321,7990.05573869416,36703.30783168171,-187500.02235174447,-187500.02235174447,-187500.02235174447,-187500.02235174447
talvez,32340.806107617154,-1026.6826780656193,8143.254595190835,36665.17575564096,-187500.02235174447,-187500.02235174447,-187500.02235174447,-187500.02235174447
talvez,32373.953744644376,-857.569379516766,8113.415016343,36704.939509026946,-187500.02235174447,-187500.02235174447,-187500.02235174447,-187500.02235174447
talvez,31698.327564993808,-760.4734016029122,7948.481494007289,36743.540971701266,-187500.02235174447,-187500.02235174447,-187500.02235174447,-187500.02235174447
talvez,31553.890592323616,-956.1629243091255,7951.09664810856,36697.518729867785,-187500.02235174447,-187500.02235174447,-187500.02235174447,-187500.02235174447
talvez,32245.8111936821,-1050.6437481217085,8131.184653184969,36653.128165379545,-187500.02235174447,-187500.02235174447,-187500.02235174447,-187500.02235174447
talvez,32426.48034411435,-909.6489440976316,8119.785263512763,36672.708293522395,-187500.02235174447,-187500.02235174447,-187500.02235174447,-187500.02235174447
talvez,31823.25146475452,-767.4247941285126,7969.693299495376,36728.900579083034,-187500.02235174447,-187500.02235174447,-187500.02235174447,-187500.02235174447
talvez,31512.38340287011,-902.0269992383718,7940.636031703477,36719.08816326716,-187500.02235174447,-187500.02235174447,-187500.02235174447,-187500.02235174447
talvez,32123.30128232256,-1051.5601696443762,8102.037978415249,36664.25933411829,-187500.02235174447,-187500.02235174447,-187500.02235174447,-187500.02235174447
talvez,32455.761129350798,-940.3825927236787,8132.749275296841,36668.95320045391,-187500.02235174447,-187500.02235174447,-187500.02235174447,-187500.02235174447
talvez,31950.32113198294,-779.2488669453701,7991.620360806032,36720.98806154586,-187500.02235174447,-187500.02235174447,-187500.02235174447,-187500.02235174447
talvez,31481.60505075515,-869.4605075669895,7924.3416099955575,36727.023032548794,-187500.02235174447,-187500.02235174447,-187500.02235174447,-187500.02235174447
talvez,32024.685385785746,-1033.4105531466666,8096.114766134592,36687.72866579636,-187500.02235174447,-187500.02235174447,-187500.02235174447,-187500.02235174447
talvez,32486.76299891031,-955.6488341866535,8156.576234886198,36676.57514531317,-187500.02235174447,-187500.02235174447,-187500.02235174447,-187500.02235174447
talvez,32074.865052087913,-799.4101404440571,8018.800082063685,36712.87437830858,-187500.02235174447,-187500.02235174447,-187500.02235174447,-187500.02235174447
talvez,31487.75178048036,-839.3080042967802,7912.048150545139,36728.766468616304,-187500.02235174447,-187500.02235174447,-187500.02235174447,-187500.02235174447
talvez,31869.20665135463,-1034.2599194359684,8042.0905997861155,36678.296229636224,-187500.02235174447,-187500.02235174447,-187500.02235174447,-187500.02235174447
$SILENCE,32449.4579374144,-994.853793961262,8150.2730429498015,36667.43328183094,-187500.02235174447,-187500.02235174447,-187500.02235174447,-187500.02235174447
$SILENCE,32197.129094258442,-811.2565650053698,8058.228559282847,36722.26211097981,-187500.02235174447,-187500.02235174447,-187500.02235174447,-187500.02235174447
$SILENCE,31539.943103783502,-802.2264602454258,7927.962592597318,36743.20569553443,-187500.02235174447,-187500.02235174447,-187500.02235174447,-187500.02235174447
$SILENCE,31750.04950166339,-1015.1268261822256,8013.2121459498585,36688.35451464111,-187500.02235174447,-187500.02235174447,-187500.02235174447,-187500.02235174447
$SILENCE,32417.047907954206,-1011.2152709025469,8161.80654308874,36668.88614522054,-187500.02235174447,-187500.02235174447,-187500.02235174447,-187500.02235174447
$SILENCE,32321.02481377421,-826.2545855348809,8100.227487114369,36712.15912248601,-187500.02235174447,-187500.02235174447,-187500.02235174447,-187500.02235174447
$SILENCE,31616.296662842833,-777.0360442442948,7928.029647830684,36730.97929131738,-187500.02235174447,-187500.02235174447,-187500.02235174447,-187500.02235174447
$SILENCE,31637.329654375277,-981.6215612437203,7977.985796688295,36693.65187807702,-187500.02235174447,-187500.02235174447,-187500.02235174447,-187500.02235174447
$SILENCE,32336.671034892923,-1032.6952973240968,8155.99508953036,36669.10966266509,-187500.02235174447,-187500.02235174447,-187500.02235174447,-187500.02235174447
$SILENCE,32383.587346504613,-875.7189960144754,8105.882478461562,36689.96384024189,-187500.02235174447,-187500.02235174447,-187500.02235174447,-187500.02235174447
$SILENCE,31712.833847145303,-773.8397447871859,7939.540796225167,36730.55460817273,-187500.02235174447,-187500.02235174447,-187500.02235174447,-187500.02235174447
$SILENCE,31542.2453334624,-954.2853777748797,7949.263805063225,36707.21938696139,-187500.02235174447,-187500.02235174447,-187500.02235174447,-187500.02235174447
$SILENCE,32218.6538241689,-1055.0246900349487,8117.058350689215,36659.92309569396,-187500.02235174447,-187500.02235174447,-187500.02235174447,-187500.02235174447
$SILENCE,32443.870001300576,-900.0376939818495,8132.972792741394,36693.13778795455,-187500.02235174447,-187500.02235174447,-187500.02235174447,-187500.02235174447
$SILENCE,31850.140613334253,-751.7785730097977,7986.144183414482,36747.4748787254,-187500.02235174447,-187500.02235174447,-187500.02235174447,-187500.02235174447
$SILENCE,31481.94032692198,-910.6547725981203,7927.42615073039,36719.42343943399,-187500.02235174447,-187500.02235174447,-187500.02235174447,-187500.02235174447
$SILENCE,32099.563729711026,-1064.4124227061777,8095.488917289844,36661.174793383456,-187500.02235174447,-187500.02235174447,-187500.02235174447,-187500.02235174447
$SILENCE,32464.299495732725,-953.212494041025,8132.436350874466,36673.17768015595,-187500.02235174447,-187500.02235174447,-187500.02235174447,-187500.02235174447
$SILENCE,31967.21905079115,-780.8358408016969,7999.376416132023,36725.54781741474,-187500.02235174447,-187500.02235174447,-187500.02235174447,-187500.02235174447
$SILENCE,31475.99476289687,-861.3244725852577,7933.863453133518,36734.55557043023,-187500.02235174447,-187500.02235174447,-187500.02235174447,-187500.02235174447
$SILENCE,31982.887623654322,-1046.240454464013,8079.775640937763,36680.68786629294,-187500.02235174447,-187500.02235174447,-187500.02235174447,-187500.02235174447
$SILENCE,32484.8183971427,-966.1541540806478,8159.057278520737,36676.93277322445,-187500.02235174447,-187500.02235174447,-187500.02235174447,-187500.02235174447
$SILENCE,32103.184712312785,-797.8231665877303,8026.489082156311,36708.135808484054,-187500.02235174447,-187500.02235174447,-187500.02235174447,-187500.02235174447
$SILENCE,31483.460245544942,-834.5247309833445,7905.141461508449,36723.22323599139,-187500.02235174447,-187500.02235174447,-187500.02235174447,-187500.02235174447
$SILENCE,31856.73437794857,-1035.0645822363595,8048.751419633797,36690.12030245308,-187500.02235174447,-187500.02235174447,-187500.02235174447,-187500.02235174447
$SILENCE,32448.317998447183,-1012.6010790587759,8162.745316355863,36665.712197507884,-187500.02235174447,-187500.02235174447,-187500.02235174447,-187500.02235174447
$SILENCE,32216.32924274555,-829.3391262697132,8061.961300606883,36701.87732003657,-187500.02235174447,-187500.02235174447,-187500.02235174447,-187500.02235174447
$SILENCE,31544.704025352483,-796.5938206426885,7920.653572160432,36738.51182919882,-187500.02235174447,-187500.02235174447,-187500.02235174447,-187500.02235174447
$SILENCE,31716.834809402804,-1002.4310353316112,8003.220916178337,36695.50707286681,-187500.02235174447,-187500.02235174447,-187500.02235174447,-187500.02235174447
$SILENCE,32390.27051809675,-1019.5077680954657,8142.718153323907,36666.31569460818,-187500.02235174447,-187500.02235174447,-187500.02235174447,-187500.02235174447
$SILENCE,32329.473773178313,-846.505266011389,8088.805745697707,36702.771389814785,-187500.02235174447,-187500.02235174447,-187500.02235174447,-187500.02235174447
$SILENCE,31651.858288271225,-765.256674916348,7944.368773027512,36749.55359095974,-187500.02235174447,-187500.02235174447,-187500.02235174447,-187500.02235174447
$SILENCE,31622.331633845766,-979.6322559871979,7975.124773398015,36703.93368052646,-187500.02235174447,-187500.02235174447,-187500.02235174447,-187500.02235174447
$SILENCE,32316.800334072155,-1042.083029995326,8141.734676567874,36671.74716851082,-187500.02235174447,-187500.02235174447,-187500.02235174447,-187500.02235174447
$SILENCE,32399.770009490254,-894.1591851901037,8115.918411721995,36686.32050589568,-187500.02235174447,-187500.02235174447,-187500.02235174447,-187500.02235174447
$SILENCE,31735.81144044536,-782.6910355914874,7948.302680051646,36722.8656080801,-187500.02235174447,-187500.02235174447,-187500.02235174447,-187500.02235174447
$SILENCE,31532.254103690877,-945.2552730149357,7949.5767294856,36703.08431423716,-187500.02235174447,-187500.02235174447,-187500.02235174447,-187500.02235174447
$SILENCE,32208.32731823055,-1056.6116638912754,8117.617144300598,36655.74331948082,-187500.02235174447,-187500.02235174447,-187500.02235174447,-187500.02235174447
$SILENCE,32460.18677475295,-916.2874122008577,8134.492711364354,36678.363284869585,-187500.02235174447,-187500.02235174447,-187500.02235174447,-187500.02235174447
$SILENCE,31875.21927061311,-770.7105005634428,7981.137392656493,36725.167837759,-187500.02235174447,-187500.02235174447,-187500.02235174447,-187500.02235174447
$SILENCE,31488.154111880558,-901.1999846935255,7926.2191565298035,36715.89186381005,-187500.02235174447,-187500.02235174447,-187500.02235174447,-187500.02235174447
$SILENCE,32088.611374927925,-1050.8002103328956,8098.014664413294,36673.91528772298,-187500.02235174447,-187500.02235174447,-187500.02235174447,-187500.02235174447
$SILENCE,32480.012772084807,-948.3845172386787,8148.529606882287,36673.87058423407,-187500.02235174447,-187500.02235174447,-187500.02235174447,-187500.02235174447
$SILENCE,32014.09065891393,-770.799907541264,8024.008038521772,36732.610968662615,-187500.02235174447,-187500.02235174447,-187500.02235174447,-187500.02235174447
$SILENCE,31490.81396947074,-844.6947747105093,7937.327973524091,36744.166820546016,-187500.02235174447,-187500.02235174447,-187500.02235174447,-187500.02235174447
$SILENCE,31952.22103026164,-1051.180189988636,8058.720297660863,36673.58001155615,-187500.02235174447,-187500.02235174447,-187500.02235174447,-187500.02235174447
$SILENCE,32467.831071356664,-994.272648605424,8140.997069000849,36658.224363115354,-187500.02235174447,-187500.02235174447,-187500.02235174447,-187500.02235174447
$SILENCE,32129.425660303317,-803.0981782791828,8036.703829372386,36715.757753343314,-187500.02235174447,-187500.02235174447,-187500.02235174447,-187500.02235174447
$SILENCE,31504.917920222037,-829.0262018473389,7915.110339535516,36734.75673613033,-187500.02235174447,-187500.02235174447,-187500.02235174447,-187500.02235174447
$SILENCE,31835.67903467167,-1030.2813089229237,8041.598861408099,36681.91721223798,-187500.02235174447,-187500.02235174447,-187500.02235174447,-187500.02235174447
$SILENCE,32450.262600214795,-1008.1083784232592,8161.493618666365,36656.570334025666,-187500.02235174447,-187500.02235174447,-187500.02235174447,-187500.02235174447
$SILENCE,32245.230048326262,-824.6452599340988,8067.996271609816,36700.98325025836,-187500.02235174447,-187500.02235174447,-187500.02235174447,-187500.02235174447
$SILENCE,31579.528043213853,-782.7804425693087,7935.539833967667,36745.01618683532,-187500.02235174447,-187500.02235174447,-187500.02235174447,-187500.02235174447
$SILENCE,31719.338204781798,-1006.208480144558,8008.808852292163,36690.187357686445,-187500.02235174447,-187500.02235174447,-187500.02235174447,-187500.02235174447
$SILENCE,32370.757445187268,-1045.2569777079796,8135.900871265039,36649.52953452224,-187500.02235174447,-187500.02235174447,-187500.02235174447,-187500.02235174447
$SILENCE,32328.132668510996,-869.3040453558023,8085.721204962874,36683.191261671935,-187500.02235174447,-187500.02235174447,-187500.02235174447,-187500.02235174447
$SILENCE,31651.813584782314,-778.6453698450769,7938.110284580027,36734.4214599635,-187500.02235174447,-187500.02235174447,-187500.02235174447,-187500.02235174447
$SILENCE,31590.703915441507,-962.0414331008712,7970.810886718141,36707.35349742812,-187500.02235174447,-187500.02235174447,-187500.02235174447,-187500.02235174447
$SILENCE,32296.504950106737,-1035.8692450367505,8152.821141817706,36676.59749705762,-187500.02235174447,-187500.02235174447,-187500.02235174447,-187500.02235174447
$SILENCE,32429.49782961581,-891.1416996886372,8132.190481685458,36697.27286067878,-187500.02235174447,-187500.02235174447,-187500.02235174447,-187500.02235174447
$SILENCE,31773.407074619186,-770.1517069520602,7961.646671491465,36731.851009351136,-187500.02235174447,-187500.02235174447,-187500.02235174447,-187500.02235174447
$SILENCE,31525.727394309928,-924.1328745046706,7947.989755629273,36713.70139285343,-187500.02235174447,-187500.02235174447,-187500.02235174447,-187500.02235174447
$SILENCE,32176.967820759754,-1056.2987394689012,8112.99033319835,36654.13399388004,-187500.02235174447,-187500.02235174447,-187500.02235174447,-187500.02235174447
$SILENCE,32464.545364921734,-925.630441383176,8137.689010821464,36673.64706678952,-187500.02235174447,-187500.02235174447,-187500.02235174447,-187500.02235174447
$SILENCE,31895.98404121209,-775.3373116656913,7987.351177615068,36721.03276503477,-187500.02235174447,-187500.02235174447,-187500.02235174447,-187500.02235174447
$SILENCE,31483.013210655834,-895.1426619461372,7927.850833875041,36718.015279533305,-187500.02235174447,-187500.02235174447,-187500.02235174447,-187500.02235174447
$SILENCE,32059.643514113846,-1050.040251021415,8095.466565545388,36671.098967921615,-187500.02235174447,-187500.02235174447,-187500.02235174447,-187500.02235174447
$SILENCE,32478.559908695213,-969.2386948154801,8144.70745858043,36672.73064526685,-187500.02235174447,-187500.02235174447,-187500.02235174447,-187500.02235174447
$SILENCE,32026.764098020092,-797.8902218210962,8012.899221527484,36720.809247590216,-187500.02235174447,-187500.02235174447,-187500.02235174447,-187500.02235174447
$SILENCE,31473.290201817777,-847.6452049786097,7918.887784348462,36729.615834905606,-187500.02235174447,-187500.02235174447,-187500.02235174447,-187500.02235174447
$SILENCE,31942.922704568235,-1028.5825763443204,8079.507420004299,36682.54306108273,-187500.02235174447,-187500.02235174447,-187500.02235174447,-187500.02235174447
$SILENCE,32488.931118122473,-983.3202938223236,8172.222456004913,36666.82978473065,-187500.02235174447,-187500.02235174447,-187500.02235174447,-187500.02235174447
$SILENCE,32153.811413504056,-816.3751144856352,8046.985631821827,36698.077523479165,-187500.02235174447,-187500.02235174447,-187500.02235174447,-187500.02235174447
$SILENCE,31507.153094667567,-832.6471844490987,7917.636086658966,36717.590596388654,-187500.02235174447,-187500.02235174447,-187500.02235174447,-187500.02235174447
$SILENCE,31793.657755095694,-1034.2152159470577,8023.337486188113,36671.88127897755,-187500.02235174447,-187500.02235174447,-187500.02235174447,-187500.02235174447
$SILENCE,32425.98860573633,-1011.1258639247256,8152.66467960652,36662.560601539684,-187500.02235174447,-187500.02235174447,-187500.02235174447,-187500.02235174447
$SILENCE,32264.05021715763,-833.3624402716686,8078.233370570347,36710.57214862968,-187500.02235174447,-187500.02235174447,-187500.02235174447,-187500.02235174447
$SILENCE,31581.964383359482,-789.6200763726326,7932.432941488379,36742.15516354504,-187500.02235174447,-187500.02235174447,-187500.02235174447,-187500.02235174447
$SILENCE,31669.538518135374,-992.7750817269185,7998.4152911204455,36700.64797409153,-187500.02235174447,-187500.02235174447,-187500.02235174447,-187500.02235174447
$SILENCE,32353.8371746346,-1035.1092857252702,8142.695801579453,36655.47509854735,-187500.02235174447,-187500.02235174447,-187500.02235174447,-187500.02235174447
$SILENCE,32365.92946838492,-881.0163594503832,8098.573458024676,36673.98234295635,-187500.02235174447,-187500.02235174447,-187500.02235174447,-187500.02235174447
$SILENCE,31689.163349767132,-774.5773523542109,7943.273537549203,36724.63139589207,-187500.02235174447,-187500.02235174447,-187500.02235174447,-187500.02235174447
$SILENCE,31602.751505702916,-955.7382411644747,7977.717575754831,36703.64310784854,-187500.02235174447,-187500.02235174447,-187500.02235174447,-187500.02235174447
$SILENCE,32284.61382205651,-1058.2209894920575,8143.65692659103,36658.49258404882,-187500.02235174447,-187500.02235174447,-187500.02235174447,-187500.02235174447
$SILENCE,32433.118812217574,-909.023095252883,8127.518967094299,36675.41285460149,-187500.02235174447,-187500.02235174447,-187500.02235174447,-187500.02235174447
$SILENCE,31802.307880199896,-771.5598668527444,7968.821581461619,36726.17366625949,-187500.02235174447,-187500.02235174447,-187500.02235174447,-187500.02235174447
$SILENCE,31520.072402962734,-921.4953686589442,7945.5757672281,36712.002660274826,-187500.02235174447,-187500.02235174447,-187500.02235174447,-187500.02235174447
$SILENCE,32156.98536121671,-1058.6009691477977,8106.910658706505,36660.59364802762,-187500.02235174447,-187500.02235174447,-187500.02235174447,-187500.02235174447
$SILENCE,32474.983629582362,-928.6926303735531,8148.171978971002,36685.33702913964,-187500.02235174447,-187500.02235174447,-187500.02235174447,-187500.02235174447
$SILENCE,31948.667102893247,-757.254750401348,8013.234497694314,36743.384509490075,-187500.02235174447,-187500.02235174447,-187500.02235174447,-187500.02235174447
$SILENCE,31480.28629783229,-884.9502664745172,7918.37369422599,36713.388468431054,-187500.02235174447,-187500.02235174447,-187500.02235174447,-187500.02235174447
$SILENCE,32035.548333591025,-1056.8128295913732,8080.803821182707,36658.06790090417,-187500.02235174447,-187500.02235174447,-187500.02235174447,-187500.02235174447
$SILENCE,32486.137150065562,-970.8480204162622,8147.635537104075,36660.9512759389,-187500.02235174447,-187500.02235174447,-187500.02235174447,-187500.02235174447
$SILENCE,32055.57549662298,-802.9864195569062,8014.687361083908,36705.38654391605,-187500.02235174447,-187500.02235174447,-187500.02235174447,-187500.02235174447
$SILENCE,31488.08705664719,-849.12042011266,7921.61469717201,36717.97057604439,-187500.02235174447,-187500.02235174447,-187500.02235174447,-187500.02235174447
$SILENCE,31909.484494863096,-1042.2618439509683,8062.140114562526,36669.73551150984,-187500.02235174447,-187500.02235174447,-187500.02235174447,-187500.02235174447
$SILENCE,32472.457882458915,-991.6574945041532,8163.885255323084,36663.49937480681,-187500.02235174447,-187500.02235174447,-187500.02235174447,-187500.02235174447
$SILENCE,32183.114550484963,-816.0174865743503,8052.0147743242715,36706.23591020536,-187500.02235174447,-187500.02235174447,-187500.02235174447,-187500.02235174447
$SILENCE,31525.928560010027,-809.0213905598391,7922.084083805572,36740.79170713326,-187500.02235174447,-187500.02235174447,-187500.02235174447,-187500.02235174447
$SILENCE,31773.541185085916,-1008.8012825013736,8029.3501054465905,36696.15527345601,-187500.02235174447,-187500.02235174447,-187500.02235174447,-187500.02235174447
$SILENCE,32411.907006729485,-1020.468893107044,8153.826970318195,36654.78219446924,-187500.02235174447,-187500.02235174447,-187500.02235174447,-187500.02235174447
$SILENCE,32276.67895277488,-858.5528562727995,8072.287806545235,36679.145595925525,-187500.02235174447,-187500.02235174447,-187500.02235174447,-187500.02235174447
$SILENCE,31602.63974698064,-795.6997508644761,7930.1530635539375,36718.55172140023,-187500.02235174447,-187500.02235174447,-187500.02235174447,-187500.02235174447
$SILENCE,31659.36847440821,-991.5233840374214,7989.407538104956,36680.24083140383,-187500.02235174447,-187500.02235174447,-187500.02235174447,-187500.02235174447
$SILENCE,32335.59815115907,-1049.235588221024,8133.688048563964,36639.20302858389,-187500.02235174447,-187500.02235174447,-187500.02235174447,-187500.02235174447
$SILENCE,32367.628200963525,-881.3069321283022,8093.968998666883,36668.84144173163,-187500.02235174447,-187500.02235174447,-187500.02235174447,-187500.02235174447
$SILENCE,31709.548140710373,-775.1584977100489,7946.581595728589,36717.03180277727,-187500.02235174447,-187500.02235174447,-187500.02235174447,-187500.02235174447
$SILENCE,31569.022723319857,-956.4534969870446,7965.401764559957,36696.892881023035,-187500.02235174447,-187500.02235174447,-187500.02235174447,-187500.02235174447
$SILENCE,32256.92001067639,-1056.499905168999,8140.594737600653,36654.737490980326,-187500.02235174447,-187500.02235174447,-187500.02235174447,-187500.02235174447
$SILENCE,32445.926361790465,-911.213566209503,8132.883385763573,36679.011485458796,-187500.02235174447,-187500.02235174447,-187500.02235174447,-187500.02235174447
$SILENCE,31831.25338926952,-764.3849568825909,7978.812811233141,36733.259169251825,-187500.02235174447,-187500.02235174447,-187500.02235174447,-187500.02235174447
$SILENCE,31520.452382618474,-902.0269992383718,7951.767200442219,36726.44188719295,-187500.02235174447,-187500.02235174447,-187500.02235174447,-187500.02235174447
$SILENCE,32147.485869823206,-1041.7701055729515,8115.56078381071,36679.413816858985,-187500.02235174447,-187500.02235174447,-187500.02235174447,-187500.02235174447
$SILENCE,32465.372379466582,-951.7149271625194,8129.284754906268,36666.29334286372,-187500.02235174447,-187500.02235174447,-187500.02235174447,-187500.02235174447
$SILENCE,31938.631169632816,-794.090425263694,7979.52806705571,36703.37488691507,-187500.02235174447,-187500.02235174447,-187500.02235174447,-187500.02235174447
$SILENCE,31483.057914144745,-879.407033849601,7925.973287340795,36723.536160413765,-187500.02235174447,-187500.02235174447,-187500.02235174447,-187500.02235174447
$SILENCE,32024.01483345209,-1046.5310271419319,8095.93595217895,36677.29040113573,-187500.02235174447,-187500.02235174447,-187500.02235174447,-187500.02235174447
$SILENCE,32502.319813051203,-969.2386948154801,8168.065031536225,36668.05913067569,-187500.02235174447,-187500.02235174447,-187500.02235174447,-187500.02235174447
$SILENCE,32091.427694729293,-795.2974194642806,8031.920556058951,36709.07458175118,-187500.02235174447,-187500.02235174447,-187500.02235174447,-187500.02235174447
$SILENCE,31477.157053608546,-847.4887427674225,7899.978208539273,36715.60129113213,-187500.02235174447,-187500.02235174447,-187500.02235174447,-187500.02235174447
$SILENCE,31881.41070382723,-1042.6641753511637,8042.872910842051,36675.502261579306,-187500.02235174447,-187500.02235174447,-187500.02235174447,-187500.02235174447
$SILENCE,32468.8145481127,-1007.661343534153,8156.71034535293,36654.26810434677,-187500.02235174447,-187500.02235174447,-187500.02235174447,-187500.02235174447
$SILENCE,32205.91332982938,-830.4567134924786,8055.188722036925,36698.859834535106,-187500.02235174447,-187500.02235174447,-187500.02235174447,-187500.02235174447
$SILENCE,31552.86241207867,-802.0699980342387,7928.85666237553,36741.775183889295,-187500.02235174447,-187500.02235174447,-187500.02235174447,-187500.02235174447
$SILENCE,31763.415844847663,-1006.7672737559407,8027.696076356898,36695.2612036778,-187500.02235174447,-187500.02235174447,-187500.02235174447,-187500.02235174447
$SILENCE,32399.010050178775,-1037.2550531929796,8138.493673621854,36642.93576990793,-187500.02235174447,-187500.02235174447,-187500.02235174447,-187500.02235174447
$SILENCE,32307.613767101026,-860.8997894406068,8079.060385115193,36682.274840149264,-187500.02235174447,-187500.02235174447,-187500.02235174447,-187500.02235174447
$SILENCE,31631.249979883432,-787.6531228605655,7937.216214801814,36732.208637262425,-187500.02235174447,-187500.02235174447,-187500.02235174447,-187500.02235174447
$SILENCE,31639.251904398432,-978.6711309756197,7988.714634026842,36701.430285147464,-187500.02235174447,-187500.02235174447,-187500.02235174447,-187500.02235174447
$SILENCE,32311.9276537809,-1048.3191666983566,8141.734676567874,36654.29045609122,-187500.02235174447,-187500.02235174447,-187500.02235174447,-187500.02235174447
$SILENCE,32380.391047047502,-893.6227433231763,8103.803766227218,36677.91624998048,-187500.02235174447,-187500.02235174447,-187500.02235174447,-187500.02235174447
$SILENCE,31719.628777459715,-775.0020354988618,7947.341555040069,36725.12313427009,-187500.02235174447,-187500.02235174447,-187500.02235174447,-187500.02235174447
$SILENCE,31560.05967379328,-936.5604444218212,7966.273482593714,36713.5672823867,-187500.02235174447,-187500.02235174447,-187500.02235174447,-187500.02235174447
$SILENCE,32237.742213933732,-1049.7720300879514,8139.030115488782,36666.04747367471,-187500.02235174447,-187500.02235174447,-187500.02235174447,-187500.02235174447
$SILENCE,32440.85251579911,-928.5138164179107,8127.831891516673,36666.02512193026,-187500.02235174447,-187500.02235174447,-187500.02235174447,-187500.02235174447
$SILENCE,31845.133822576267,-778.6900733339875,7974.34246234208,36724.094954025146,-187500.02235174447,-187500.02235174447,-187500.02235174447,-187500.02235174447
$SILENCE,31491.84214971568,-908.4643016415002,7937.28327003518,36713.947262042435,-187500.02235174447,-187500.02235174447,-187500.02235174447,-187500.02235174447
$SILENCE,32096.143912809363,-1066.9605215740826,8089.02926314226,36649.216610099866,-187500.02235174447,-187500.02235174447,-187500.02235174447,-187500.02235174447
$SILENCE,32472.10025454763,-957.95106386555,8135.3644293981115,36657.598514270605,-187500.02235174447,-187500.02235174447,-187500.02235174447,-187500.02235174447
$SILENCE,31974.46101599467,-788.8824688056075,7998.169421931437,36711.577977130175,-187500.02235174447,-187500.02235174447,-187500.02235174447,-187500.02235174447
$SILENCE,31468.775149437806,-861.7938592188191,7921.212365771815,36729.325262227685,-187500.02235174447,-187500.02235174447,-187500.02235174447,-187500.02235174447
$SILENCE,31978.797254419,-1045.5475503858984,8078.278074059257,36681.98426747135,-187500.02235174447,-187500.02235174447,-187500.02235174447,-187500.02235174447
$SILENCE,32460.454995686414,-990.1375758811922,8143.9922027578605,36662.359435839586,-187500.02235174447,-187500.02235174447,-187500.02235174447,-187500.02235174447
$SILENCE,32085.750351637646,-809.0437423042945,8023.382189677023,36711.64503236354,-187500.02235174447,-187500.02235174447,-187500.02235174447,-187500.02235174447
$SILENCE,31478.05112338676,-832.3119082822691,7908.717740621298,36733.46033495192,-187500.02235174447,-187500.02235174447,-187500.02235174447,-187500.02235174447
$SILENCE,31835.656682927216,-1027.4873408660103,8043.632870153531,36685.11351169509,-187500.02235174447,-187500.02235174447,-187500.02235174447,-187500.02235174447
$SILENCE,32442.66300709999,-998.0277416739157,8164.756973356841,36661.957104439396,-187500.02235174447,-187500.02235174447,-187500.02235174447,-187500.02235174447
$SILENCE,32191.049419766598,-838.9950798744059,8041.084771285627,36688.712142552395,-187500.02235174447,-187500.02235174447,-187500.02235174447,-187500.02235174447
$SILENCE,31516.51847559434,-812.4188557170459,7900.179374239371,36726.665404637504,-187500.02235174447,-187500.02235174447,-187500.02235174447,-187500.02235174447
$SILENCE,31689.54332942287,-1018.6136983172535,7989.385186360501,36687.14752044052,-187500.02235174447,-187500.02235174447,-187500.02235174447,-187500.02235174447
$SILENCE,32362.241430549795,-1035.8468932922951,8137.778417799284,36659.67722650495,-187500.02235174447,-187500.02235174447,-187500.02235174447,-187500.02235174447
$SILENCE,32303.277528676696,-856.8541236941962,8081.809649683196,36706.10179973862,-187500.02235174447,-187500.02235174447,-187500.02235174447,-187500.02235174447
$SILENCE,31603.332651058754,-789.6200763726326,7916.585554669566,36737.103669298136,-187500.02235174447,-187500.02235174447,-187500.02235174447,-187500.02235174447
$SILENCE,31570.654400665095,-986.5165932794325,7954.784685943686,36696.3117356672,-187500.02235174447,-187500.02235174447,-187500.02235174447,-187500.02235174447
$SILENCE,32281.462226088315,-1044.5864253743202,8133.933917752972,36664.97458994086,-187500.02235174447,-187500.02235174447,-187500.02235174447,-187500.02235174447
$SILENCE,32371.472701009836,-899.6800660705646,8094.147812622526,36690.34381989763,-187500.02235174447,-187500.02235174447,-187500.02235174447,-187500.02235174447
$SILENCE,31712.967957612036,-779.8523640456634,7931.941203110362,36734.33205298568,-187500.02235174447,-187500.02235174447,-187500.02235174447,-187500.02235174447
$SILENCE,31490.054010159256,-947.3563369937345,7927.739075152765,36712.78497133076,-187500.02235174447,-187500.02235174447,-187500.02235174447,-187500.02235174447
$SILENCE,32157.477099594726,-1062.0654895383705,8098.685216746952,36660.03485441623,-187500.02235174447,-187500.02235174447,-187500.02235174447,-187500.02235174447
$SILENCE,32425.250998169304,-932.8053513533297,8122.355714125123,36676.37397961307,-187500.02235174447,-187500.02235174447,-187500.02235174447,-187500.02235174447
$SILENCE,31841.937523119155,-790.3353321952025,7973.068412908127,36723.60321564713,-187500.02235174447,-187500.02235174447,-187500.02235174447,-187500.02235174447
$SILENCE,31445.97637009339,-910.7441795759415,7912.048150545139,36715.19895973193,-187500.02235174447,-187500.02235174447,-187500.02235174447,-187500.02235174447
$SILENCE,32054.63672335586,-1054.108268512281,8096.427690556967,36678.89972673651,-187500.02235174447,-187500.02235174447,-187500.02235174447,-187500.02235174447
$SILENCE,32454.75530085031,-948.9656625945166,8141.019420745304,36680.956087226405,-187500.02235174447,-187500.02235174447,-187500.02235174447,-187500.02235174447
$SILENCE,31974.550422972494,-782.445166402479,7998.147070186981,36729.682890138974,-187500.02235174447,-187500.02235174447,-187500.02235174447,-187500.02235174447
$SILENCE,31428.474954184887,-874.1096704136933,7898.32417944958,36721.59155864615,-187500.02235174447,-187500.02235174447,-187500.02235174447,-187500.02235174447
$SILENCE,31915.87709377731,-1055.851704579795,8054.808742381185,36674.56348831219,-187500.02235174447,-187500.02235174447,-187500.02235174447,-187500.02235174447
$SILENCE,32445.99341702383,-995.5466980393766,8137.912528266017,36657.73262473734,-187500.02235174447,-187500.02235174447,-187500.02235174447,-187500.02235174447
$SILENCE,32103.810561157534,-822.2312715329256,8021.661105353965,36697.228157189864,-187500.02235174447,-187500.02235174447,-187500.02235174447,-187500.02235174447
$SILENCE,31486.45537930195,-828.0427250913054,7910.863508089007,36729.5711314167,-187500.02235174447,-187500.02235174447,-187500.02235174447,-187500.02235174447
