WORD,Channel_1,Channel_2,Channel_3,Channel_4,Channel_5,Channel_6,Channel_7,Channel_8
não,1505.8146722095814,-8002.9973987337835,6393.850611907317,11994.0801851845,-187500.02235174447,-187500.02235174447,-187500.02235174447,-187500.02235174447
não,1762.233884600864,-7935.04809558965,6943.412952829952,11950.65074570784,-187500.02235174447,-187500.02235174447,-187500.02235174447,-187500.02235174447
não,1693.6140291230715,-7912.651647645432,6920.278897318709,11972.331937829487,-187500.02235174447,-187500.02235174447,-187500.02235174447,-187500.02235174447
não,1428.8352643055039,-7972.19669487437,6385.602818203309,12021.371665164432,-187500.02235174447,-187500.02235174447,-187500.02235174447,-187500.02235174447
não,1452.8186861060485,-8009.725273814831,6300.733244506508,12006.038368468091,-187500.02235174447,-187500.02235174447,-187500.02235174447,-187500.02235174447
não,1742.1620180799985,-7946.872168406507,6880.336329977075,11952.617699219907,-187500.02235174447,-187500.02235174447,-187500.02235174447,-187500.02235174447
não,1735.3447360211296,-7909.365941210502,6985.881267295035,11965.626414492895,-187500.02235174447,-187500.02235174447,-187500.02235174447,-187500.02235174447
não,1478.0761573405455,-7956.14814235546,6494.299351489467,12015.85078428397,-187500.02235174447,-187500.02235174447,-187500.02235174447,-187500.02235174447
não,1416.8770810219146,-8008.719445314342,6253.8392846392735,12018.600048851973,-187500.02235174447,-187500.02235174447,-187500.02235174447,-187500.02235174447
não,1707.1368345185322,-7963.2559970922475,6784.782622430637,11958.429152778286,-187500.02235174447,-187500.02235174447,-187500.02235174447,-187500.02235174447
não,1758.791715954747,-7911.221136000292,7014.647962409015,11953.93645214277,-187500.02235174447,-187500.02235174447,-187500.02235174447,-187500.02235174447
não,1520.4327130833524,-7943.631165460488,6596.06684399448,12004.876077756415,-187500.02235174447,-187500.02235174447,-187500.02235174447,-187500.02235174447
não,1387.7751097411049,-8002.148032444482,6238.215415265014,12025.551441377575,-187500.02235174447,-187500.02235174447,-187500.02235174447,-187500.02235174447
não,1654.789049004203,-7976.756450743253,6677.471897300708,11964.285309825578,-187500.02235174447,-187500.02235174447,-187500.02235174447,-187500.02235174447
não,1773.4544603174284,-7920.1171302935045,7018.134834544044,11945.398085760842,-187500.02235174447,-187500.02235174447,-187500.02235174447,-187500.02235174447
não,1565.3820711829749,-7934.891633378463,6691.218220140722,11996.337711374488,-187500.02235174447,-187500.02235174447,-187500.02235174447,-187500.02235174447
não,1379.8625922039262,-7993.073224195627,6248.899549114651,12030.692342602295,-187500.02235174447,-187500.02235174447,-187500.02235174447,-187500.02235174447
não,1598.3955977434634,-7990.167497416437,6565.847285490905,11973.56128377453,-187500.02235174447,-187500.02235174447,-187500.02235174447,-187500.02235174447
não,1775.8237452296908,-7929.102531564538,7001.616895391571,11938.93843161326,-187500.02235174447,-187500.02235174447,-187500.02235174447,-187500.02235174447
não,1611.3596095275414,-7928.588441442066,6776.110145581979,11983.530161801596,-187500.02235174447,-187500.02235174447,-187500.02235174447,-187500.02235174447
não,1389.7420632531719,-7983.618436291032,6283.634159998198,12031.787578080604,-187500.02235174447,-187500.02235174447,-187500.02235174447,-187500.02235174447
não,1546.5171988626957,-7997.342407386591,6461.911673773727,11986.301778114055,-187500.02235174447,-187500.02235174447,-187500.02235174447,-187500.02235174447
não,1775.242599873853,-7942.0665433486165,6964.2671304067535,11933.663419921806,-187500.02235174447,-187500.02235174447,-187500.02235174447,-187500.02235174447
não,1653.604406548072,-7927.917889108407,6848.753315061726,11967.45925753823,-187500.02235174447,-187500.02235174447,-187500.02235174447,-187500.02235174447
não,1405.1424151828785,-7971.503790796255,6348.476570663044,12030.222955968733,-187500.02235174447,-187500.02235174447,-187500.02235174447,-187500.02235174447
não,1491.5989627360061,-7998.728215542819,6380.126640811759,12006.127775445912,-187500.02235174447,-187500.02235174447,-187500.02235174447,-187500.02235174447
não,1752.9355589074564,-7949.442619018868,6912.187565825888,11942.961745615214,-187500.02235174447,-187500.02235174447,-187500.02235174447,-187500.02235174447
não,1687.4002441644961,-7924.408665228923,6908.521879735217,11960.261995823623,-187500.02235174447,-187500.02235174447,-187500.02235174447,-187500.02235174447
não,1436.9712992872358,-7961.847837191563,6423.421969821688,12025.86436579995,-187500.02235174447,-187500.02235174447,-187500.02235174447,-187500.02235174447
não,1448.5942064039955,-7999.264657409747,6306.3882358537,12019.76233956365,-187500.02235174447,-187500.02235174447,-187500.02235174447,-187500.02235174447
não,1723.788884137736,-7959.880883679496,6842.4054196364195,11945.711010183217,-187500.02235174447,-187500.02235174447,-187500.02235174447,-187500.02235174447
não,1730.919090618979,-7919.580688426578,6986.015377761767,11948.281460795577,-187500.02235174447,-187500.02235174447,-187500.02235174447,-187500.02235174447
não,1472.5329247156292,-7952.90713940944,6507.0621975734475,12016.074301728524,-187500.02235174447,-187500.02235174447,-187500.02235174447,-187500.02235174447
não,1417.704095566761,-7997.72238704233,6277.286264572891,12028.09954024548,-187500.02235174447,-187500.02235174447,-187500.02235174447,-187500.02235174447
não,1666.9707497323454,-7972.509619296744,6726.444569402286,11960.396106290355,-187500.02235174447,-187500.02235174447,-187500.02235174447,-187500.02235174447
não,1731.72375341937,-7925.906232107429,6977.164086957466,11946.69448693925,-187500.02235174447,-187500.02235174447,-187500.02235174447,-187500.02235174447
não,1517.1470066484221,-7942.625336959999,6605.700445854717,12006.23953416819,-187500.02235174447,-187500.02235174447,-187500.02235174447,-187500.02235174447
não,1390.8596504759373,-7992.514430584244,6248.608976436732,12038.493101417196,-187500.02235174447,-187500.02235174447,-187500.02235174447,-187500.02235174447
não,1628.2351765912983,-7980.15391590046,6643.273728284089,11968.487437783175,-187500.02235174447,-187500.02235174447,-187500.02235174447,-187500.02235174447
não,1747.5487884937274,-7929.661325175921,6990.485726652829,11937.597326945941,-187500.02235174447,-187500.02235174447,-187500.02235174447,-187500.02235174447
não,1558.9671205243017,-7934.936336867373,6695.3085893760435,11990.570961305018,-187500.02235174447,-187500.02235174447,-187500.02235174447,-187500.02235174447
não,1385.7187492512167,-7986.0324246922055,6256.275624784902,12037.554328150074,-187500.02235174447,-187500.02235174447,-187500.02235174447,-187500.02235174447
não,1577.988455055768,-7988.982854960305,6539.8745584338385,11983.597217034963,-187500.02235174447,-187500.02235174447,-187500.02235174447,-187500.02235174447
não,1747.302919304719,-7933.23760428877,6981.477973637339,11938.849024635438,-187500.02235174447,-187500.02235174447,-187500.02235174447,-187500.02235174447
não,1597.2556587762426,-7927.0461710746495,6781.631026462439,11980.892655955871,-187500.02235174447,-187500.02235174447,-187500.02235174447,-187500.02235174447
não,1395.061778433535,-7976.018843176227,6293.513631047444,12038.113121761457,-187500.02235174447,-187500.02235174447,-187500.02235174447,-187500.02235174447
não,1527.92054747588,-7995.0178259632385,6437.74943801754,11998.32701663101,-187500.02235174447,-187500.02235174447,-187500.02235174447,-187500.02235174447
não,1741.7373349353475,-7941.194825314859,6944.575243541628,11940.570108958496,-187500.02235174447,-187500.02235174447,-187500.02235174447,-187500.02235174447
não,1639.791028474692,-7922.575822183589,6856.822294810092,11973.449525052254,-187500.02235174447,-187500.02235174447,-187500.02235174447,-187500.02235174447
não,1411.3785518859092,-7966.1393721269815,6357.014937044971,12036.324982205031,-187500.02235174447,-187500.02235174447,-187500.02235174447,-187500.02235174447
não,1473.4046427493863,-7996.91772424194,6355.696184122108,12016.789557551094,-187500.02235174447,-187500.02235174447,-187500.02235174447,-187500.02235174447
não,1712.9482880769121,-7946.603947473043,6894.7085016618375,11951.187187574767,-187500.02235174447,-187500.02235174447,-187500.02235174447,-187500.02235174447
não,1667.596598577094,-7916.227926758281,6922.759940953249,11968.956824416737,-187500.02235174447,-187500.02235174447,-187500.02235174447,-187500.02235174447
não,1443.0509737790792,-7952.884787664984,6433.592013548853,12030.602935624473,-187500.02235174447,-187500.02235174447,-187500.02235174447,-187500.02235174447
não,1434.937290541803,-7995.040177707694,6283.500049531466,12029.127720490424,-187500.02235174447,-187500.02235174447,-187500.02235174447,-187500.02235174447
não,1686.528526130739,-7957.824523189608,6809.213079120288,11955.143446343356,-187500.02235174447,-187500.02235174447,-187500.02235174447,-187500.02235174447
não,1700.6771803709485,-7917.680790147876,6960.176761171432,11958.406801033832,-187500.02235174447,-187500.02235174447,-187500.02235174447,-187500.02235174447
não,1476.8468113955037,-7944.391124771968,6521.233203558112,12021.081092486513,-187500.02235174447,-187500.02235174447,-187500.02235174447,-187500.02235174447
não,1398.4592435907416,-7993.967293973839,6238.908319343129,12035.989706038203,-187500.02235174447,-187500.02235174447,-187500.02235174447,-187500.02235174447
não,1641.601519775572,-7965.357061071046,6719.4931768766855,11965.715821470718,-187500.02235174447,-187500.02235174447,-187500.02235174447,-187500.02235174447
não,1714.468206699873,-7916.47379594729,6994.777261588248,11953.757638187128,-187500.02235174447,-187500.02235174447,-187500.02235174447,-187500.02235174447
não,1527.4958643312293,-7939.272575291703,6622.196033262734,12009.502888858664,-187500.02235174447,-187500.02235174447,-187500.02235174447,-187500.02235174447
não,1396.2911243785768,-7997.476517853323,6225.8996040701395,12036.995534538692,-187500.02235174447,-187500.02235174447,-187500.02235174447,-187500.02235174447
não,1608.1633100704325,-7981.740889756787,6608.606172633908,11976.556417531541,-187500.02235174447,-187500.02235174447,-187500.02235174447,-187500.02235174447
não,1728.8403783846354,-7922.66522916141,6991.357444686586,11948.259109051121,-187500.02235174447,-187500.02235174447,-187500.02235174447,-187500.02235174447
não,1564.376242682486,-7932.4999967217445,6710.2172029277335,11998.036443953091,-187500.02235174447,-187500.02235174447,-187500.02235174447,-187500.02235174447
não,1386.255191118144,-7989.452241593867,6243.423371723101,12041.488235174207,-187500.02235174447,-187500.02235174447,-187500.02235174447,-187500.02235174447
não,1551.6133965985057,-7990.05573869416,6502.323627748922,11989.006339193147,-187500.02235174447,-187500.02235174447,-187500.02235174447,-187500.02235174447
não,1734.7859424097471,-7927.001467585739,6977.521714868751,11946.403914261331,-187500.02235174447,-187500.02235174447,-187500.02235174447,-187500.02235174447
não,1602.4189117454187,-7922.642877416954,6794.438576035331,11981.89848445636,-187500.02235174447,-187500.02235174447,-187500.02235174447,-187500.02235174447
não,1382.8130224720267,-7977.717575754831,6283.276532086913,12037.062589772057,-187500.02235174447,-187500.02235174447,-187500.02235174447,-187500.02235174447
não,1495.5328697601403,-7995.844840508085,6407.239306836046,12005.099595200969,-187500.02235174447,-187500.02235174447,-187500.02235174447,-187500.02235174447
não,1721.9560410924007,-7932.701162421842,6952.912444223457,11953.51176899812,-187500.02235174447,-187500.02235174447,-187500.02235174447,-187500.02235174447
não,1640.37217383053,-7914.596249413044,6883.420870711908,11979.663310010828,-187500.02235174447,-187500.02235174447,-187500.02235174447,-187500.02235174447
não,1415.3348106544986,-7970.252093106758,6359.853608590795,12032.90516530337,-187500.02235174447,-187500.02235174447,-187500.02235174447,-187500.02235174447
não,1459.47950595373,-8006.01488423525,6314.658381302164,12014.621438338929,-187500.02235174447,-187500.02235174447,-187500.02235174447,-187500.02235174447
não,1713.2835642437417,-7947.207444573337,6881.520972433206,11956.752771944139,-187500.02235174447,-187500.02235174447,-187500.02235174447,-187500.02235174447
não,1681.4770318838398,-7912.338723223058,6929.599574756572,11969.023879650102,-187500.02235174447,-187500.02235174447,-187500.02235174447,-187500.02235174447
não,1446.0684592805458,-7956.349308055557,6441.392772363755,12027.339580933998,-187500.02235174447,-187500.02235174447,-187500.02235174447,-187500.02235174447
não,1411.5797175860068,-8002.39390163349,6259.874255642207,12023.517432632141,-187500.02235174447,-187500.02235174447,-187500.02235174447,-187500.02235174447
não,1672.4469271238956,-7956.282252822191,6798.998331904213,11962.497170269153,-187500.02235174447,-187500.02235174447,-187500.02235174447,-187500.02235174447
não,1709.1261397750545,-7915.557374424622,6976.806459046181,11962.921853413804,-187500.02235174447,-187500.02235174447,-187500.02235174447,-187500.02235174447
não,1487.0392068671235,-7949.1743980854035,6548.144703882302,12021.081092486513,-187500.02235174447,-187500.02235174447,-187500.02235174447,-187500.02235174447
não,1384.0200166726133,-8003.667951067442,6227.575984904288,12034.134511248412,-187500.02235174447,-187500.02235174447,-187500.02235174447,-187500.02235174447
não,1638.338165085097,-7970.1850378733925,6692.648731785862,11972.734269229684,-187500.02235174447,-187500.02235174447,-187500.02235174447,-187500.02235174447
não,1729.7791516517582,-7911.623467400488,6996.207773233387,11964.642937736862,-187500.02235174447,-187500.02235174447,-187500.02235174447,-187500.02235174447
não,1526.0430009416343,-7936.411552001424,6631.941393845248,12013.19092669379,-187500.02235174447,-187500.02235174447,-187500.02235174447,-187500.02235174447
não,1379.1473363813564,-8004.137337701004,6215.103711498226,12037.554328150074,-187500.02235174447,-187500.02235174447,-187500.02235174447,-187500.02235174447
não,1605.279935035698,-7988.759337515752,6606.460405166198,11983.954844946247,-187500.02235174447,-187500.02235174447,-187500.02235174447,-187500.02235174447
não,1750.6333292285597,-7920.430054715879,7015.072645553666,11952.1706643308,-187500.02235174447,-187500.02235174447,-187500.02235174447,-187500.02235174447
não,1580.022463801201,-7931.136540309971,6721.95186876677,11992.582618305996,-187500.02235174447,-187500.02235174447,-187500.02235174447,-187500.02235174447
não,1384.7799759840937,-8001.455128366367,6225.7207901144975,12028.032485012112,-187500.02235174447,-187500.02235174447,-187500.02235174447,-187500.02235174447
não,1563.1916002263547,-8004.651427823476,6473.579284379397,11985.363004846931,-187500.02235174447,-187500.02235174447,-187500.02235174447,-187500.02235174447
não,1767.7771172257803,-7932.14236881046,6978.907523024979,11953.109437597925,-187500.02235174447,-187500.02235174447,-187500.02235174447,-187500.02235174447
não,1632.437304548896,-7924.8109966291195,6827.072122940079,11993.521391573118,-187500.02235174447,-187500.02235174447,-187500.02235174447,-187500.02235174447
não,1394.1453569108673,-7992.335616628602,6291.725491491019,12021.706941331262,-187500.02235174447,-187500.02235174447,-187500.02235174447,-187500.02235174447
não,1510.2626693561876,-8017.615439607554,6386.005149603504,11988.335786859489,-187500.02235174447,-187500.02235174447,-187500.02235174447,-187500.02235174447
não,1759.4399165439509,-7943.564110227122,6959.841485004603,11944.325202026988,-187500.02235174447,-187500.02235174447,-187500.02235174447,-187500.02235174447
não,1698.6431716255156,-7925.816825129608,6926.202109599365,11969.761487217127,-187500.02235174447,-187500.02235174447,-187500.02235174447,-187500.02235174447
não,1456.864351852459,-7996.157764930459,6383.0323675909485,12009.681702814307,-187500.02235174447,-187500.02235174447,-187500.02235174447,-187500.02235174447
não,1481.7194916867604,-8039.967184062861,6298.118090405237,11981.406746078343,-187500.02235174447,-187500.02235174447,-187500.02235174447,-187500.02235174447
não,1748.8898931610458,-7965.915854682429,6884.247885256754,11932.299963510033,-187500.02235174447,-187500.02235174447,-187500.02235174447,-187500.02235174447
não,1732.237843541842,-7930.756560654231,6973.654863077983,11948.08029509548,-187500.02235174447,-187500.02235174447,-187500.02235174447,-187500.02235174447
não,1493.185936592333,-7980.042157178183,6471.522923889509,11995.153068918356,-187500.02235174447,-187500.02235174447,-187500.02235174447,-187500.02235174447
não,1457.6466629083948,-8033.798102593197,6266.222151067514,11993.163763661834,-187500.02235174447,-187500.02235174447,-187500.02235174447,-187500.02235174447
não,1745.4700762593839,-7985.361872358546,6827.452102595819,11933.909289110816,-187500.02235174447,-187500.02235174447,-187500.02235174447,-187500.02235174447
não,1775.1531928960317,-7933.483473477778,7023.834529380147,11922.152271527324,-187500.02235174447,-187500.02235174447,-187500.02235174447,-187500.02235174447
não,1545.2207976842878,-7985.29481712518,6593.317579426477,11968.08510638298,-187500.02235174447,-187500.02235174447,-187500.02235174447,-187500.02235174447
não,1449.220055248744,-8045.3763062210455,6246.127932802193,11984.312472857533,-187500.02235174447,-187500.02235174447,-187500.02235174447,-187500.02235174447
não,1719.0950178021214,-8003.243267922791,6707.959676737747,11937.373809501387,-187500.02235174447,-187500.02235174447,-187500.02235174447,-187500.02235174447
não,1827.4786266659055,-7949.822598674607,7049.092000614643,11920.565297670997,-187500.02235174447,-187500.02235174447,-187500.02235174447,-187500.02235174447
não,1625.2847463231979,-7971.459087307345,6694.258057386644,11964.911158670326,-187500.02235174447,-187500.02235174447,-187500.02235174447,-187500.02235174447
não,1451.991671561202,-8035.765056105263,6253.481656727989,11993.454336339753,-187500.02235174447,-187500.02235174447,-187500.02235174447,-187500.02235174447
não,1664.176781675432,-8030.2888787137135,6604.78402433205,11934.490434466654,-187500.02235174447,-187500.02235174447,-187500.02235174447,-187500.02235174447
não,1843.3483652291734,-7963.166590114426,7065.945215933945,11907.73539635365,-187500.02235174447,-187500.02235174447,-187500.02235174447,-187500.02235174447
não,1681.8793632840352,-7970.095630895571,6805.68150349635,11953.17649283129,-187500.02235174447,-187500.02235174447,-187500.02235174447,-187500.02235174447
não,1452.9527965727802,-8059.413201738978,6264.881046400195,11970.588501761975,-187500.02235174447,-187500.02235174447,-187500.02235174447,-187500.02235174447
não,1632.5267115267172,-8066.521056475766,6488.756118864551,11929.729512897673,-187500.02235174447,-187500.02235174447,-187500.02235174447,-187500.02235174447
não,1853.4513537229723,-7985.853610736563,7039.301936543219,11896.805393315006,-187500.02235174447,-187500.02235174447,-187500.02235174447,-187500.02235174447
não,1739.0551256007107,-7975.951787942861,6917.261411817242,11932.165853043301,-187500.02235174447,-187500.02235174447,-187500.02235174447,-187500.02235174447
não,1527.6299747979613,-8014.419140150445,6384.194658302625,11996.47182184122,-187500.02235174447,-187500.02235174447,-187500.02235174447,-187500.02235174447
não,1622.244909077276,-8036.323849716646,6431.915632714705,11964.330013314488,-187500.02235174447,-187500.02235174447,-187500.02235174447,-187500.02235174447
não,1825.7575423428468,-8031.831149081129,6950.699621522382,11857.421619584755,-187500.02235174447,-187500.02235174447,-187500.02235174447,-187500.02235174447
não,1781.6799022769812,-8004.651427823476,6962.478990850329,11915.804376102016,-187500.02235174447,-187500.02235174447,-187500.02235174447,-187500.02235174447
não,1546.7183645627933,-8059.122629061059,6434.240214138057,11974.343594830465,-187500.02235174447,-187500.02235174447,-187500.02235174447,-187500.02235174447
não,1563.5268763931842,-8089.252780586813,6325.521329107443,11928.991905330648,-187500.02235174447,-187500.02235174447,-187500.02235174447,-187500.02235174447
não,1845.6058914191594,-8022.532823387722,6916.769673439226,11885.651872831808,-187500.02235174447,-187500.02235174447,-187500.02235174447,-187500.02235174447
não,1845.8741123526231,-7986.144183414482,7038.989012120845,11904.047358518525,-187500.02235174447,-187500.02235174447,-187500.02235174447,-187500.02235174447
não,1600.407254744441,-8046.337431232623,6553.754991740584,11969.985004661681,-187500.02235174447,-187500.02235174447,-187500.02235174447,-187500.02235174447
não,1544.3043761616202,-8096.472394045877,6301.917886962639,11964.374716803399,-187500.02235174447,-187500.02235174447,-187500.02235174447,-187500.02235174447
não,1816.1686439715202,-8045.152788776492,6846.182864449366,11899.487602649642,-187500.02235174447,-187500.02235174447,-187500.02235174447,-187500.02235174447
não,1869.678720197525,-8002.170384188937,7093.057881958232,11903.44386141823,-187500.02235174447,-187500.02235174447,-187500.02235174447,-187500.02235174447
não,1646.6083105335606,-8034.82628283814,6648.526388231086,11939.40781824682,-187500.02235174447,-187500.02235174447,-187500.02235174447,-187500.02235174447
não,1521.7738177506708,-8102.350902837623,6266.4009650231565,11964.285309825578,-187500.02235174447,-187500.02235174447,-187500.02235174447,-187500.02235174447
não,1764.7372799798586,-8074.053594357204,6711.021865728124,11910.059977777002,-187500.02235174447,-187500.02235174447,-187500.02235174447,-187500.02235174447
não,1878.775880190835,-8012.496890127289,7066.861637456613,11878.074631461459,-187500.02235174447,-187500.02235174447,-187500.02235174447,-187500.02235174447
não,1685.5897528636162,-8029.215994979859,6751.679688892328,11941.88886188136,-187500.02235174447,-187500.02235174447,-187500.02235174447,-187500.02235174447
não,1519.605698538506,-8095.354806823112,6304.287171874902,11987.888751970382,-187500.02235174447,-187500.02235174447,-187500.02235174447,-187500.02235174447
não,1729.2874132737415,-8090.79505095423,6616.943373315737,11928.097835552435,-187500.02235174447,-187500.02235174447,-187500.02235174447,-187500.02235174447
não,1892.5445547753043,-8026.556137389677,7070.147343891543,11889.205800200201,-187500.02235174447,-187500.02235174447,-187500.02235174447,-187500.02235174447
não,1737.8257796556688,-8028.053704268183,6851.010841251713,11930.89180360935,-187500.02235174447,-187500.02235174447,-187500.02235174447,-187500.02235174447
não,1522.2879078731428,-8087.621103241576,6345.861416561773,11978.813943721527,-187500.02235174447,-187500.02235174447,-187500.02235174447,-187500.02235174447
não,1657.8959414834908,-8101.076853403671,6514.818252899439,11948.281460795577,-187500.02235174447,-187500.02235174447,-187500.02235174447,-187500.02235174447
não,1873.0538336102766,-8039.386038707023,7032.261137039797,11895.486640392142,-187500.02235174447,-187500.02235174447,-187500.02235174447,-187500.02235174447
não,1771.0181201717999,-8026.623192623043,6918.468406017829,11919.738283126151,-187500.02235174447,-187500.02235174447,-187500.02235174447,-187500.02235174447
não,1530.8039225106147,-8076.065251358182,6402.83601317835,11986.860571725438,-187500.02235174447,-187500.02235174447,-187500.02235174447,-187500.02235174447
não,1598.88733612148,-8102.663827259998,6420.963277931604,11969.783838961583,-187500.02235174447,-187500.02235174447,-187500.02235174447,-187500.02235174447
não,1845.1141530411428,-8043.901091086995,6963.462467606362,11904.69555910773,-187500.02235174447,-187500.02235174447,-187500.02235174447,-187500.02235174447
não,1784.719739522903,-8016.117872729048,6972.179647943932,11921.369960471387,-187500.02235174447,-187500.02235174447,-187500.02235174447,-187500.02235174447
não,1533.6649458008942,-8063.078887829649,6474.607464624341,11997.321188130521,-187500.02235174447,-187500.02235174447,-187500.02235174447,-187500.02235174447
não,1526.311221875098,-8102.775585982274,6336.004297256983,12001.61272306594,-187500.02235174447,-187500.02235174447,-187500.02235174447,-187500.02235174447
não,1796.208536172931,-8054.875797614551,6878.324672976098,11938.804321146526,-187500.02235174447,-187500.02235174447,-187500.02235174447,-187500.02235174447
não,1788.944219224956,-8013.256849438769,7017.643096166026,11953.489417253664,-187500.02235174447,-187500.02235174447,-187500.02235174447,-187500.02235174447
não,1551.6133965985057,-8042.761152119774,6555.766648741562,12013.749720305172,-187500.02235174447,-187500.02235174447,-187500.02235174447,-187500.02235174447
não,1459.5912646760064,-8092.471431788377,6272.078308114804,12015.157880205856,-187500.02235174447,-187500.02235174447,-187500.02235174447,-187500.02235174447
não,1700.632476882038,-8058.5861871941315,6762.38617448642,11950.382524774377,-187500.02235174447,-187500.02235174447,-187500.02235174447,-187500.02235174447
não,1755.5730647531827,-8010.664047081954,7018.090131055133,11941.754751414628,-187500.02235174447,-187500.02235174447,-187500.02235174447,-187500.02235174447
não,1538.1352946919556,-8030.557099647177,6636.009411336114,12002.797365522072,-187500.02235174447,-187500.02235174447,-187500.02235174447,-187500.02235174447
não,1401.029694203102,-8084.871838673573,6255.582720706788,12031.42995016932,-187500.02235174447,-187500.02235174447,-187500.02235174447,-187500.02235174447
não,1617.6851532083933,-8069.136210577037,6644.860702140415,11961.312527813021,-187500.02235174447,-187500.02235174447,-187500.02235174447,-187500.02235174447
não,1724.750009149314,-8010.664047081954,7003.5391454147275,11938.759617657617,-187500.02235174447,-187500.02235174447,-187500.02235174447,-187500.02235174447
não,1546.7183645627933,-8019.269468697246,6714.195813440778,11991.733252016695,-187500.02235174447,-187500.02235174447,-187500.02235174447,-187500.02235174447
não,1361.7129757062169,-8072.354861778601,6257.996709107961,12034.782711837615,-187500.02235174447,-187500.02235174447,-187500.02235174447,-187500.02235174447
não,1541.6892220603493,-8074.2547600573025,6531.224433329634,11975.79645822006,-187500.02235174447,-187500.02235174447,-187500.02235174447,-187500.02235174447
não,1717.6421544125265,-8017.548384374188,6992.877363309546,11932.545832699041,-187500.02235174447,-187500.02235174447,-187500.02235174447,-187500.02235174447
não,1571.1264695079888,-8014.039160494704,6798.9759801597575,11971.974309918203,-187500.02235174447,-187500.02235174447,-187500.02235174447,-187500.02235174447
não,1347.8995976328372,-8066.5657599646765,6297.671055516131,12020.142319219389,-187500.02235174447,-187500.02235174447,-187500.02235174447,-187500.02235174447
não,1474.4328229943303,-8085.207114840403,6439.89520548525,11990.2803886271,-187500.02235174447,-187500.02235174447,-187500.02235174447,-187500.02235174447
não,1695.111596001577,-8024.276259455235,6957.896883236991,11934.333972255467,-187500.02235174447,-187500.02235174447,-187500.02235174447,-187500.02235174447
não,1590.572487184106,-8004.539669101199,6867.975815293291,11952.416533519809,-187500.02235174447,-187500.02235174447,-187500.02235174447,-187500.02235174447
não,1349.4642197447085,-8050.852483612595,6355.226797488546,12009.771109792127,-187500.02235174447,-187500.02235174447,-187500.02235174447,-187500.02235174447
não,1403.1978134152669,-8082.994292139327,6333.67971583363,11988.671063026317,-187500.02235174447,-187500.02235174447,-187500.02235174447,-187500.02235174447
não,1650.2516448797758,-8030.914727558462,6879.777536365693,11919.760634870605,-187500.02235174447,-187500.02235174447,-187500.02235174447,-187500.02235174447
não,1612.119568839022,-8008.831204036618,6930.94067942389,11945.398085760842,-187500.02235174447,-187500.02235174447,-187500.02235174447,-187500.02235174447
não,1376.3310165799876,-8049.779599878741,6442.264490397512,12006.23953416819,-187500.02235174447,-187500.02235174447,-187500.02235174447,-187500.02235174447
não,1366.6974147197504,-8087.509344519299,6283.231828598003,12005.658388812351,-187500.02235174447,-187500.02235174447,-187500.02235174447,-187500.02235174447
não,1623.8095311891475,-8042.02354455275,6812.1188058994785,11929.103664052924,-187500.02235174447,-187500.02235174447,-187500.02235174447,-187500.02235174447
não,1634.2030923608652,-7996.649503308476,6976.270017179253,11936.099760067435,-187500.02235174447,-187500.02235174447,-187500.02235174447,-187500.02235174447
não,1404.7847872715936,-8028.478387412833,6533.236090330612,11993.61079855094,-187500.02235174447,-187500.02235174447,-187500.02235174447,-187500.02235174447
não,1310.1027977589129,-8080.692062460431,6234.7061913855305,12004.89842950087,-187500.02235174447,-187500.02235174447,-187500.02235174447,-187500.02235174447
não,1567.9078183064246,-8045.979803321338,6710.977162239214,11943.006449104125,-187500.02235174447,-187500.02235174447,-187500.02235174447,-187500.02235174447
não,1653.7161652703483,-7994.4366806074,7004.500270426306,11935.004524589125,-187500.02235174447,-187500.02235174447,-187500.02235174447,-187500.02235174447
não,1447.7001366257832,-8023.717465843853,6634.824768879983,11979.484496055185,-187500.02235174447,-187500.02235174447,-187500.02235174447,-187500.02235174447
não,1301.4079691657985,-8083.038995628238,6227.732447115475,12009.055853969558,-187500.02235174447,-187500.02235174447,-187500.02235174447,-187500.02235174447
não,1528.702858531816,-8065.694041930919,6607.890916811338,11950.337821285466,-187500.02235174447,-187500.02235174447,-187500.02235174447,-187500.02235174447
não,1678.3924911490074,-8010.664047081954,7002.175689002954,11922.733416883162,-187500.02235174447,-187500.02235174447,-187500.02235174447,-187500.02235174447
não,1507.0440181546235,-8016.274334940235,6724.499967634674,11977.808115221038,-187500.02235174447,-187500.02235174447,-187500.02235174447,-187500.02235174447
não,1306.0794837569576,-8074.4559257574,6240.718810644008,12000.450432354264,-187500.02235174447,-187500.02235174447,-187500.02235174447,-187500.02235174447
não,1479.9313521303359,-8076.735803691841,6489.471374687121,11949.197882318245,-187500.02235174447,-187500.02235174447,-187500.02235174447,-187500.02235174447
não,1686.7967470642027,-8008.138299958504,6981.209752703876,11918.821861603483,-187500.02235174447,-187500.02235174447,-187500.02235174447,-187500.02235174447
não,1556.1955042118436,-8003.310323156157,6816.142119901433,11955.36696378791,-187500.02235174447,-187500.02235174447,-187500.02235174447,-187500.02235174447
não,1324.4973211881306,-8061.246044784313,6307.639933543198,12011.022807481624,-187500.02235174447,-187500.02235174447,-187500.02235174447,-187500.02235174447
não,1435.9207672978364,-8078.054556614704,6413.788367961451,11994.147240417868,-187500.02235174447,-187500.02235174447,-187500.02235174447,-187500.02235174447
não,1666.5684183321498,-8012.25102093828,6952.755982012271,11938.804321146526,-187500.02235174447,-187500.02235174447,-187500.02235174447,-187500.02235174447
não,1574.3227689650976,-7990.994511961283,6896.206068540343,11965.067620881513,-187500.02235174447,-187500.02235174447,-187500.02235174447,-187500.02235174447
não,1325.0114113106026,-8044.59399516511,6376.7515273990075,12021.304609931065,-187500.02235174447,-187500.02235174447,-187500.02235174447,-187500.02235174447
$SILENCE,1357.5331994930746,-8078.792164181729,6321.274497660935,12004.205525422756,-187500.02235174447,-187500.02235174447,-187500.02235174447,-187500.02235174447
$SILENCE,1628.0340108912005,-8019.694151841897,6879.352853221042,11943.721704926695,-187500.02235174447,-187500.02235174447,-187500.02235174447,-187500.02235174447
$SILENCE,1607.045722847667,-7986.814735748141,6955.259377391265,11960.150237101345,-187500.02235174447,-187500.02235174447,-187500.02235174447,-187500.02235174447
$SILENCE,1362.3611762954208,-8027.919593801451,6467.387851165277,12011.559249348551,-187500.02235174447,-187500.02235174447,-187500.02235174447,-187500.02235174447
$SILENCE,1322.7538851206166,-8075.841733913629,6258.868427141718,12007.75945279115,-187500.02235174447,-187500.02235174447,-187500.02235174447,-187500.02235174447
$SILENCE,1597.7697488987149,-8028.947774046394,6789.923523655359,11943.922870626793,-187500.02235174447,-187500.02235174447,-187500.02235174447,-187500.02235174447
$SILENCE,1630.7385719702927,-7983.149049657471,6988.943456285412,11946.202748561234,-187500.02235174447,-187500.02235174447,-187500.02235174447,-187500.02235174447
$SILENCE,1397.2746011346105,-8017.2578116962695,6555.386669085821,12001.478612599209,-187500.02235174447,-187500.02235174447,-187500.02235174447,-187500.02235174447
$SILENCE,1292.78019580605,-8070.767887922274,6225.497272669944,12019.449415141275,-187500.02235174447,-187500.02235174447,-187500.02235174447,-187500.02235174447
$SILENCE,1546.7183645627933,-8036.055628783182,6695.75562426515,11960.440809779264,-187500.02235174447,-187500.02235174447,-187500.02235174447,-187500.02235174447
$SILENCE,1645.110743655055,-7980.891523467484,7017.173709532465,11944.638126449363,-187500.02235174447,-187500.02235174447,-187500.02235174447,-187500.02235174447
$SILENCE,1438.513569654652,-8000.829279521618,6656.997699379647,11994.951903218258,-187500.02235174447,-187500.02235174447,-187500.02235174447,-187500.02235174447
$SILENCE,1275.3011316419997,-8061.178989550947,6219.886984811662,12025.551441377575,-187500.02235174447,-187500.02235174447,-187500.02235174447,-187500.02235174447
$SILENCE,1494.7952621931151,-8046.605652166088,6584.175715944257,11975.572940775508,-187500.02235174447,-187500.02235174447,-187500.02235174447,-187500.02235174447
$SILENCE,1646.9659384448455,-7980.690357767387,7012.6363054080375,11945.576899716485,-187500.02235174447,-187500.02235174447,-187500.02235174447,-187500.02235174447
$SILENCE,1476.444479995308,-7989.921628227428,6750.159770269367,11985.251246124655,-187500.02235174447,-187500.02235174447,-187500.02235174447,-187500.02235174447
$SILENCE,1272.8871432408266,-8053.311175502679,6247.647851425154,12029.57475537953,-187500.02235174447,-187500.02235174447,-187500.02235174447,-187500.02235174447
$SILENCE,1434.8478835639817,-8055.322832503657,6469.444211655165,11979.395089077365,-187500.02235174447,-187500.02235174447,-187500.02235174447,-187500.02235174447
$SILENCE,1650.7433832577924,-7984.758375258252,6986.797688817703,11942.425303748287,-187500.02235174447,-187500.02235174447,-187500.02235174447,-187500.02235174447
$SILENCE,1527.6299747979613,-7974.275407108714,6840.125541701978,11981.65261526735,-187500.02235174447,-187500.02235174447,-187500.02235174447,-187500.02235174447
$SILENCE,1286.3652451473768,-8035.206262493881,6306.187070153603,12030.357066435465,-187500.02235174447,-187500.02235174447,-187500.02235174447,-187500.02235174447
$SILENCE,1383.0141881721245,-8058.07209707166,6378.338501255334,12002.909124244348,-187500.02235174447,-187500.02235174447,-187500.02235174447,-187500.02235174447
$SILENCE,1633.9348714274015,-7988.759337515752,6947.726839509826,11953.109437597925,-187500.02235174447,-187500.02235174447,-187500.02235174447,-187500.02235174447
$SILENCE,1560.442335658352,-7967.324014583113,6914.243926315776,11971.348461073454,-187500.02235174447,-187500.02235174447,-187500.02235174447,-187500.02235174447
$SILENCE,1311.3097919594995,-8024.097445499593,6381.3559867568,12022.958639020759,-187500.02235174447,-187500.02235174447,-187500.02235174447,-187500.02235174447
$SILENCE,1331.0240305690802,-8060.754306406297,6294.00536942546,12010.866345270437,-187500.02235174447,-187500.02235174447,-187500.02235174447,-187500.02235174447
$SILENCE,1605.8163769026253,-7998.214125420347,6869.78630659417,11953.400010275844,-187500.02235174447,-187500.02235174447,-187500.02235174447,-187500.02235174447
$SILENCE,1592.8523651185471,-7959.389145301479,6970.972653743345,11971.683737240284,-187500.02235174447,-187500.02235174447,-187500.02235174447,-187500.02235174447
$SILENCE,1350.872379645393,-8008.495927869789,6474.383947179788,12026.959601278259,-187500.02235174447,-187500.02235174447,-187500.02235174447,-187500.02235174447
$SILENCE,1306.2582977126,-8062.855370385096,6240.025906565894,12026.66902860034,-187500.02235174447,-187500.02235174447,-187500.02235174447,-187500.02235174447
$SILENCE,1574.6803968763825,-8009.2782389257245,6781.653378206895,11968.152161616346,-187500.02235174447,-187500.02235174447,-187500.02235174447,-187500.02235174447
$SILENCE,1622.7813509442033,-7954.918796410418,7010.602296662605,11969.292100583567,-187500.02235174447,-187500.02235174447,-187500.02235174447,-187500.02235174447
$SILENCE,1404.0695314490238,-7991.352139872568,6574.2738931505555,12015.47080462823,-187500.02235174447,-187500.02235174447,-187500.02235174447,-187500.02235174447
$SILENCE,1290.1426899603237,-8052.908844102484,6211.862708552207,12038.2919357171,-187500.02235174447,-187500.02235174447,-187500.02235174447,-187500.02235174447
$SILENCE,1539.2081784258103,-8020.521166386744,6679.237685112677,11989.520429315618,-187500.02235174447,-187500.02235174447,-187500.02235174447,-187500.02235174447
$SILENCE,1642.048554664678,-7956.773991200208,7032.194081806431,11976.489362298174,-187500.02235174447,-187500.02235174447,-187500.02235174447,-187500.02235174447
$SILENCE,1441.7769243451269,-7976.24236062078,6685.116193904423,12026.33375243351,-187500.02235174447,-187500.02235174447,-187500.02235174447,-187500.02235174447
$SILENCE,1273.6918060412177,-8042.202358508392,6225.027886036383,12054.876930102937,-187500.02235174447,-187500.02235174447,-187500.02235174447,-187500.02235174447
$SILENCE,1486.6815789558386,-8028.791311835207,6569.1106401813795,12005.211353923245,-187500.02235174447,-187500.02235174447,-187500.02235174447,-187500.02235174447
$SILENCE,1657.180685660921,-7958.539779012178,7026.986125348345,11979.573903033008,-187500.02235174447,-187500.02235174447,-187500.02235174447,-187500.02235174447
$SILENCE,1492.8059569365928,-7964.306529081647,6782.994482874213,12024.09857798798,-187500.02235174447,-187500.02235174447,-187500.02235174447,-187500.02235174447
$SILENCE,1273.7365095301282,-8029.3501054465905,6264.232845810991,12064.599938940995,-187500.02235174447,-187500.02235174447,-187500.02235174447,-187500.02235174447
$SILENCE,1424.700191581272,-8034.356896204579,6457.486028371576,12015.917839517337,-187500.02235174447,-187500.02235174447,-187500.02235174447,-187500.02235174447
$SILENCE,1650.7433832577924,-7962.451334291856,6989.815174319169,11972.041365151568,-187500.02235174447,-187500.02235174447,-187500.02235174447,-187500.02235174447
$SILENCE,1546.4277918848745,-7953.734153954287,6865.539475147662,12008.072377213524,-187500.02235174447,-187500.02235174447,-187500.02235174447,-187500.02235174447
$SILENCE,1305.4089314232983,-8016.3190384291465,6326.303640163379,12059.928424349837,-187500.02235174447,-187500.02235174447,-187500.02235174447,-187500.02235174447
$SILENCE,1382.4106910718313,-8043.0293730532385,6362.938149325628,12027.89837454538,-187500.02235174447,-187500.02235174447,-187500.02235174447,-187500.02235174447
$SILENCE,1642.2273686203205,-7974.454221064356,6945.357554597564,11980.490324555674,-187500.02235174447,-187500.02235174447,-187500.02235174447,-187500.02235174447
$SILENCE,1589.119623794511,-7946.626299217499,6946.810417987159,12008.653522569362,-187500.02235174447,-187500.02235174447,-187500.02235174447,-187500.02235174447
$SILENCE,1349.1959988112449,-7999.82345102113,6422.84082446585,12059.101409804989,-187500.02235174447,-187500.02235174447,-187500.02235174447,-187500.02235174447
$SILENCE,1353.5992924689403,-8040.145998018504,6299.81682298384,12049.91484283386,-187500.02235174447,-187500.02235174447,-187500.02235174447,-187500.02235174447
$SILENCE,1620.3003073096643,-7983.417270590934,6868.489905415762,11995.242475896177,-187500.02235174447,-187500.02235174447,-187500.02235174447,-187500.02235174447
$SILENCE,1623.0048683887564,-7945.016973616716,6993.6149708765715,11997.879981741904,-187500.02235174447,-187500.02235174447,-187500.02235174447,-187500.02235174447
$SILENCE,1393.5642115550295,-7986.591218303588,6512.985409854104,12043.298726475088,-187500.02235174447,-187500.02235174447,-187500.02235174447,-187500.02235174447
$SILENCE,1333.3039085035216,-8040.3918672075115,6249.078363070294,12049.28899398911,-187500.02235174447,-187500.02235174447,-187500.02235174447,-187500.02235174447
$SILENCE,1599.893164621969,-7998.705863798365,6770.8574856349815,11990.235685138188,-187500.02235174447,-187500.02235174447,-187500.02235174447,-187500.02235174447
$SILENCE,1651.793915247192,-7947.855645162541,7025.309744514197,11987.911103714838,-187500.02235174447,-187500.02235174447,-187500.02235174447,-187500.02235174447
$SILENCE,1429.6399271058951,-7975.214180375837,6612.830652335961,12038.537804906107,-187500.02235174447,-187500.02235174447,-187500.02235174447,-187500.02235174447
$SILENCE,1317.9482600627257,-8032.2334804813245,6232.873348340196,12056.285090003621,-187500.02235174447,-187500.02235174447,-187500.02235174447,-187500.02235174447
$SILENCE,1562.923379292891,-8009.68057032592,6670.118173374913,11996.024786952114,-187500.02235174447,-187500.02235174447,-187500.02235174447,-187500.02235174447
$SILENCE,1671.239932923309,-7951.3425172975685,7043.3923057785405,11982.345519345465,-187500.02235174447,-187500.02235174447,-187500.02235174447,-187500.02235174447
$SILENCE,1484.6922736993163,-7966.318186082624,6720.946040266281,12028.703037345773,-187500.02235174447,-187500.02235174447,-187500.02235174447,-187500.02235174447
$SILENCE,1337.0590015720131,-8026.869061812051,6255.828589895796,12055.636889414418,-187500.02235174447,-187500.02235174447,-187500.02235174447,-187500.02235174447
$SILENCE,1543.5220651056845,-8024.946811788895,6569.937654726226,12005.412519623342,-187500.02235174447,-187500.02235174447,-187500.02235174447,-187500.02235174447
$SILENCE,1712.4789014433507,-7956.036383633183,7055.283433828764,11961.983080146681,-187500.02235174447,-187500.02235174447,-187500.02235174447,-187500.02235174447
$SILENCE,1544.1702656948885,-7951.722496953309,6817.662038524394,12011.04515922608,-187500.02235174447,-187500.02235174447,-187500.02235174447,-187500.02235174447
$SILENCE,1333.0803910589684,-8012.675704082931,6308.131671921215,12063.012965084668,-187500.02235174447,-187500.02235174447,-187500.02235174447,-187500.02235174447
$SILENCE,1467.1014508129897,-8026.936117045417,6458.916540016716,12025.774958822127,-187500.02235174447,-187500.02235174447,-187500.02235174447,-187500.02235174447
$SILENCE,1690.3283226881413,-7965.4911715377775,6980.1145172255665,11979.998586177659,-187500.02235174447,-187500.02235174447,-187500.02235174447,-187500.02235174447
$SILENCE,1595.60162968655,-7949.107342852038,6892.920362105413,12008.877040013915,-187500.02235174447,-187500.02235174447,-187500.02235174447,-187500.02235174447
$SILENCE,1360.7965541835492,-8001.991570233295,6371.185943029635,12059.973127838746,-187500.02235174447,-187500.02235174447,-187500.02235174447,-187500.02235174447
$SILENCE,1425.4601508927526,-8032.904032814984,6378.494963466521,12039.09659851749,-187500.02235174447,-187500.02235174447,-187500.02235174447,-187500.02235174447
$SILENCE,1681.2088109503761,-7975.683567009398,6941.043667917689,11978.925702443803,-187500.02235174447,-187500.02235174447,-187500.02235174447,-187500.02235174447
$SILENCE,1636.1253423840217,-7947.855645162541,6963.462467606362,11994.99660670717,-187500.02235174447,-187500.02235174447,-187500.02235174447,-187500.02235174447
$SILENCE,1394.9723714557138,-7991.508602083755,6460.548217361953,12060.308404005576,-187500.02235174447,-187500.02235174447,-187500.02235174447,-187500.02235174447
$SILENCE,1391.3066853650434,-8034.8709863270515,6316.133596436214,12061.20247378379,-187500.02235174447,-187500.02235174447,-187500.02235174447,-187500.02235174447
$SILENCE,1658.4547350948735,-7987.015901448239,6865.628882125483,11994.0801851845,-187500.02235174447,-187500.02235174447,-187500.02235174447,-187500.02235174447
$SILENCE,1665.2273136648314,-7945.598118972554,7013.1056920415995,11995.80126950756,-187500.02235174447,-187500.02235174447,-187500.02235174447,-187500.02235174447
$SILENCE,1435.09375275299,-7978.745755999775,6556.01251793057,12052.798217868592,-187500.02235174447,-187500.02235174447,-187500.02235174447,-187500.02235174447
$SILENCE,1358.7848971825717,-8030.557099647177,6274.67111047162,12065.158732552378,-187500.02235174447,-187500.02235174447,-187500.02235174447,-187500.02235174447
$SILENCE,1618.1321880974995,-7999.510526598755,6763.2802442646325,11994.750737518161,-187500.02235174447,-187500.02235174447,-187500.02235174447,-187500.02235174447
$SILENCE,1694.9998372793004,-7947.453313762345,7036.6420789530375,11980.266807111122,-187500.02235174447,-187500.02235174447,-187500.02235174447,-187500.02235174447
$SILENCE,1484.7593289326824,-7968.866284950529,6659.098763358446,12035.09563625999,-187500.02235174447,-187500.02235174447,-187500.02235174447,-187500.02235174447
$SILENCE,1346.2008650542339,-8026.5337856452215,6269.9772441360055,12065.896340119403,-187500.02235174447,-187500.02235174447,-187500.02235174447,-187500.02235174447
$SILENCE,1583.8222603586032,-8012.027503493728,6669.961711163725,12004.920781245326,-187500.02235174447,-187500.02235174447,-187500.02235174447,-187500.02235174447
$SILENCE,1712.2330322543423,-7951.521331253211,7047.907358158513,11972.331937829487,-187500.02235174447,-187500.02235174447,-187500.02235174447,-187500.02235174447
$SILENCE,1529.2393003987434,-7959.769124957219,6755.904168594381,12021.773996564627,-187500.02235174447,-187500.02235174447,-187500.02235174447,-187500.02235174447
$SILENCE,1341.998737096636,-8018.39775066349,6290.987883923994,12064.53288370763,-187500.02235174447,-187500.02235174447,-187500.02235174447,-187500.02235174447
$SILENCE,1530.6474602994276,-8020.96820127585,6558.940596454215,12007.37947313541,-187500.02235174447,-187500.02235174447,-187500.02235174447,-187500.02235174447
$SILENCE,1724.5711951936717,-7960.57378775761,7035.904471386012,11966.475780782197,-187500.02235174447,-187500.02235174447,-187500.02235174447,-187500.02235174447
$SILENCE,1583.1070045360334,-7954.494113265767,6849.937957517857,12009.90522025886,-187500.02235174447,-187500.02235174447,-187500.02235174447,-187500.02235174447
$SILENCE,1356.3709087813984,-8008.540631358699,6337.367753668756,12061.962433095268,-187500.02235174447,-187500.02235174447,-187500.02235174447,-187500.02235174447
$SILENCE,1475.639817194917,-8027.919593801451,6459.363574905822,12022.980990765214,-187500.02235174447,-187500.02235174447,-187500.02235174447,-187500.02235174447
$SILENCE,1712.657715398993,-7967.994566916772,6997.191249989421,11969.56032151703,-187500.02235174447,-187500.02235174447,-187500.02235174447,-187500.02235174447
$SILENCE,1621.8649294215359,-7949.487322507778,6929.3984090564745,11998.751699775661,-187500.02235174447,-187500.02235174447,-187500.02235174447,-187500.02235174447
$SILENCE,1381.2036968712446,-7998.169421931437,6411.732007471563,12056.687421403816,-187500.02235174447,-187500.02235174447,-187500.02235174447,-187500.02235174447
$SILENCE,1429.1705404723336,-8032.904032814984,6379.187867544636,12036.548499649585,-187500.02235174447,-187500.02235174447,-187500.02235174447,-187500.02235174447
$SILENCE,1689.791880821214,-7976.644692020976,6935.567490526139,11974.231836108189,-187500.02235174447,-187500.02235174447,-187500.02235174447,-187500.02235174447
$SILENCE,1657.180685660921,-7943.787627671675,6990.575133630649,11990.012167693636,-187500.02235174447,-187500.02235174447,-187500.02235174447,-187500.02235174447
$SILENCE,1416.0724182215235,-7985.920665969928,6497.585057924397,12047.120874776945,-187500.02235174447,-187500.02235174447,-187500.02235174447,-187500.02235174447
$SILENCE,1392.7595487546384,-8032.099370014593,6319.329895893324,12046.763246865661,-187500.02235174447,-187500.02235174447,-187500.02235174447,-187500.02235174447
$SILENCE,1667.9765782328343,-7990.1451456719815,6858.565730877606,11980.400917577854,-187500.02235174447,-187500.02235174447,-187500.02235174447,-187500.02235174447
$SILENCE,1698.687875114426,-7946.849816662052,7037.312631286697,11980.870304211416,-187500.02235174447,-187500.02235174447,-187500.02235174447,-187500.02235174447
$SILENCE,1467.2355612797214,-7976.4658780653335,6595.508050383098,12036.794368838593,-187500.02235174447,-187500.02235174447,-187500.02235174447,-187500.02235174447
$SILENCE,1373.9617316677252,-8031.227651980836,6282.449517542067,12050.853616100982,-187500.02235174447,-187500.02235174447,-187500.02235174447,-187500.02235174447
$SILENCE,1630.336240570097,-8002.5280121002215,6757.401735472887,11985.854743224949,-187500.02235174447,-187500.02235174447,-187500.02235174447,-187500.02235174447
$SILENCE,1712.8365293546356,-7947.162741084426,7057.0715733851885,11971.929606429292,-187500.02235174447,-187500.02235174447,-187500.02235174447,-187500.02235174447
$SILENCE,1505.0994163870116,-7965.826447704608,6692.916952719325,12024.277391943622,-187500.02235174447,-187500.02235174447,-187500.02235174447,-187500.02235174447
$SILENCE,1358.449621015742,-8025.215032722358,6278.873238429218,12055.05574405858,-187500.02235174447,-187500.02235174447,-187500.02235174447,-187500.02235174447
$SILENCE,1584.0010743142457,-8012.832166294118,6655.567187734508,11996.22595265221,-187500.02235174447,-187500.02235174447,-187500.02235174447,-187500.02235174447
$SILENCE,1729.6003376961157,-7950.2249300748035,7062.972433921389,11966.22991159319,-187500.02235174447,-187500.02235174447,-187500.02235174447,-187500.02235174447
$SILENCE,1555.1002687335335,-7957.24337783377,6788.560067243585,12011.201621437267,-187500.02235174447,-187500.02235174447,-187500.02235174447,-187500.02235174447
$SILENCE,1354.6274727138846,-8017.2578116962695,6303.81778524134,12053.178197524334,-187500.02235174447,-187500.02235174447,-187500.02235174447,-187500.02235174447
$SILENCE,1530.9156812328913,-8022.689285598909,6551.564520783963,12009.569944092029,-187500.02235174447,-187500.02235174447,-187500.02235174447,-187500.02235174447
$SILENCE,1729.309765018197,-7957.601005745055,7045.806294179713,11967.436905793777,-187500.02235174447,-187500.02235174447,-187500.02235174447,-187500.02235174447
$SILENCE,1600.7201791668153,-7951.923662653407,6881.4986206887515,12002.797365522072,-187500.02235174447,-187500.02235174447,-187500.02235174447,-187500.02235174447
$SILENCE,1372.12888862239,-8008.0488929806825,6361.485285936033,12054.42989521383,-187500.02235174447,-187500.02235174447,-187500.02235174447,-187500.02235174447
$SILENCE,1475.6174654504616,-8028.836015324118,6448.299461400445,12018.264772685145,-187500.02235174447,-187500.02235174447,-187500.02235174447,-187500.02235174447
$SILENCE,1717.1280642900545,-7967.324014583113,6998.644113379016,11964.218254592211,-187500.02235174447,-187500.02235174447,-187500.02235174447,-187500.02235174447
$SILENCE,1640.8192087196362,-7946.603947473043,6955.885226236013,11990.123926415912,-187500.02235174447,-187500.02235174447,-187500.02235174447,-187500.02235174447
$SILENCE,1400.3144383805322,-7995.934247485906,6434.754304260529,12043.656354386372,-187500.02235174447,-187500.02235174447,-187500.02235174447,-187500.02235174447
$SILENCE,1431.8080463180597,-8034.043971782205,6368.190809272624,12027.943078034292,-187500.02235174447,-187500.02235174447,-187500.02235174447,-187500.02235174447
$SILENCE,1693.7034361008928,-7978.701052510864,6932.348839324575,11971.013184906626,-187500.02235174447,-187500.02235174447,-187500.02235174447,-187500.02235174447
$SILENCE,1673.6539213244823,-7943.452351504845,7016.972543832368,11986.011205436136,-187500.02235174447,-187500.02235174447,-187500.02235174447,-187500.02235174447
$SILENCE,1434.0655725080458,-7984.803078747163,6527.446988516687,12039.923613062336,-187500.02235174447,-187500.02235174447,-187500.02235174447,-187500.02235174447
$SILENCE,1390.7031882647502,-8032.859329326074,6308.109320176759,12037.040238027601,-187500.02235174447,-187500.02235174447,-187500.02235174447,-187500.02235174447
$SILENCE,1662.8356770081136,-7991.218029405836,6845.2887946711535,11972.242530851667,-187500.02235174447,-187500.02235174447,-187500.02235174447,-187500.02235174447
$SILENCE,1702.4429681829176,-7943.899386393951,7057.652718741027,11973.56128377453,-187500.02235174447,-187500.02235174447,-187500.02235174447,-187500.02235174447
$SILENCE,1473.8516776384924,-7974.38716583099,6625.9287745867705,12030.692342602295,-187500.02235174447,-187500.02235174447,-187500.02235174447,-187500.02235174447
$SILENCE,1367.3009118200437,-8031.2947072142015,6284.528229776411,12049.62427015594,-187500.02235174447,-187500.02235174447,-187500.02235174447,-187500.02235174447
$SILENCE,1617.0593043636447,-8000.069320210138,6747.186988256811,11985.2288943802,-187500.02235174447,-187500.02235174447,-187500.02235174447,-187500.02235174447
$SILENCE,1717.753913134803,-7942.267709048714,7074.774154993792,11968.330975571987,-187500.02235174447,-187500.02235174447,-187500.02235174447,-187500.02235174447
$SILENCE,1514.375390335964,-7961.490209280278,6720.633115843906,12020.209374452756,-187500.02235174447,-187500.02235174447,-187500.02235174447,-187500.02235174447
$SILENCE,1351.1629523233119,-8023.024561765738,6281.086061130293,12054.787523125116,-187500.02235174447,-187500.02235174447,-187500.02235174447,-187500.02235174447
$SILENCE,1570.7911933411592,-8013.368608161046,6635.070638068991,12000.964522476736,-187500.02235174447,-187500.02235174447,-187500.02235174447,-187500.02235174447
$SILENCE,1734.7412389208364,-7949.1743980854035,7076.003500938833,11975.930568686792,-187500.02235174447,-187500.02235174447,-187500.02235174447,-187500.02235174447
$SILENCE,1564.018614771201,-7953.041249876172,6821.238317637243,12018.018903496135,-187500.02235174447,-187500.02235174447,-187500.02235174447,-187500.02235174447
$SILENCE,1358.069641360002,-8015.514375628755,6315.351285380279,12057.62619467094,-187500.02235174447,-187500.02235174447,-187500.02235174447,-187500.02235174447
$SILENCE,1514.4647973137853,-8022.465768154356,6527.514043750053,12012.162746448845,-187500.02235174447,-187500.02235174447,-187500.02235174447,-187500.02235174447
$SILENCE,1723.5653666931828,-7954.918796410418,7047.259157569309,11971.057888395535,-187500.02235174447,-187500.02235174447,-187500.02235174447,-187500.02235174447
$SILENCE,1601.3236762671086,-7944.368773027512,6905.929077378402,12006.619513823929,-187500.02235174447,-187500.02235174447,-187500.02235174447,-187500.02235174447
$SILENCE,1372.0394816445687,-8004.293799912191,6375.276312264957,12059.079058060535,-187500.02235174447,-187500.02235174447,-187500.02235174447,-187500.02235174447
$SILENCE,1465.514476956663,-8030.266526969258,6434.061400182414,12031.027618769123,-187500.02235174447,-187500.02235174447,-187500.02235174447,-187500.02235174447
$SILENCE,1714.1552822774986,-7964.5300465262,6999.985218046334,11980.378565833398,-187500.02235174447,-187500.02235174447,-187500.02235174447,-187500.02235174447
$SILENCE,1639.791028474692,-7938.758485169231,6980.718014325859,12001.791537021583,-187500.02235174447,-187500.02235174447,-187500.02235174447,-187500.02235174447
$SILENCE,1396.0676069340238,-7990.72629102782,6455.317909159411,12055.659241158872,-187500.02235174447,-187500.02235174447,-187500.02235174447,-187500.02235174447
$SILENCE,1416.1841769438001,-8031.629983381032,6354.3997829437,12036.034409527114,-187500.02235174447,-187500.02235174447,-187500.02235174447,-187500.02235174447
$SILENCE,1693.9046018009903,-7975.460049564845,6932.639412002494,11980.199751877755,-187500.02235174447,-187500.02235174447,-187500.02235174447,-187500.02235174447
$SILENCE,1681.3876249060186,-7936.791531657163,7042.989974378344,11992.89554272837,-187500.02235174447,-187500.02235174447,-187500.02235174447,-187500.02235174447
$SILENCE,1435.8313603200152,-7978.164610643937,6549.843436460905,12043.52224391964,-187500.02235174447,-187500.02235174447,-187500.02235174447,-187500.02235174447
$SILENCE,1380.063757904024,-8030.154768246981,6301.157927651158,12044.081037531023,-187500.02235174447,-187500.02235174447,-187500.02235174447,-187500.02235174447
$SILENCE,1650.18458964641,-7987.1500119149705,6831.92245148688,11983.172533890312,-187500.02235174447,-187500.02235174447,-187500.02235174447,-187500.02235174447
$SILENCE,1703.3146862166748,-7937.015049101717,7070.504971802828,11980.22210362221,-187500.02235174447,-187500.02235174447,-187500.02235174447,-187500.02235174447
$SILENCE,1481.7194916867604,-7967.569883772121,6650.761562676616,12033.039275770101,-187500.02235174447,-187500.02235174447,-187500.02235174447,-187500.02235174447
$SILENCE,1359.4554495162308,-8027.070227512148,6284.550581520865,12053.468770202253,-187500.02235174447,-187500.02235174447,-187500.02235174447,-187500.02235174447
$SILENCE,1602.7541879122482,-7998.370587631534,6732.077209005023,11992.672025283817,-187500.02235174447,-187500.02235174447,-187500.02235174447,-187500.02235174447
$SILENCE,1717.0386573122332,-7936.679772934887,7090.912114490523,11975.975272175703,-187500.02235174447,-187500.02235174447,-187500.02235174447,-187500.02235174447
$SILENCE,1531.340364377542,-7957.601005745055,6757.446438961797,12025.506737888663,-187500.02235174447,-187500.02235174447,-187500.02235174447,-187500.02235174447
$SILENCE,1360.9753681391917,-8022.532823387722,6294.72062524803,12057.469732459753,-187500.02235174447,-187500.02235174447,-187500.02235174447,-187500.02235174447
$SILENCE,1559.7717833246927,-8012.5639453606545,6620.877280339871,12005.94896149027,-187500.02235174447,-187500.02235174447,-187500.02235174447,-187500.02235174447
$SILENCE,1729.622689440571,-7945.016973616716,7080.87618123009,11974.790629719571,-187500.02235174447,-187500.02235174447,-187500.02235174447,-187500.02235174447
$SILENCE,1568.600722384539,-7946.827464917596,6850.943786018346,12017.504813373664,-187500.02235174447,-187500.02235174447,-187500.02235174447,-187500.02235174447
$SILENCE,1353.3087197910213,-8009.68057032592,6332.562128610865,12055.301613247588,-187500.02235174447,-187500.02235174447,-187500.02235174447,-187500.02235174447
$SILENCE,1500.7184744737715,-8021.236422209314,6514.594735454886,12010.95575224826,-187500.02235174447,-187500.02235174447,-187500.02235174447,-187500.02235174447
$SILENCE,1716.3681049785741,-7952.571863242611,7044.375782534574,11963.838274936472,-187500.02235174447,-187500.02235174447,-187500.02235174447,-187500.02235174447
$SILENCE,1614.377095029008,-7941.552453226144,6930.18072011241,11993.856667739949,-187500.02235174447,-187500.02235174447,-187500.02235174447,-187500.02235174447
$SILENCE,1377.6721212473062,-7999.82345102113,6396.555172986409,12045.600956153985,-187500.02235174447,-187500.02235174447,-187500.02235174447,-187500.02235174447
$SILENCE,1440.1899504888,-8028.009000779271,6425.299516355934,12025.216165210744,-187500.02235174447,-187500.02235174447,-187500.02235174447,-187500.02235174447
$SILENCE,1702.7335408608367,-7965.759392471242,6992.363273187074,11971.661385495829,-187500.02235174447,-187500.02235174447,-187500.02235174447,-187500.02235174447
$SILENCE,1665.4061276204739,-7941.060714848128,7001.885116325036,11984.245417624166,-187500.02235174447,-187500.02235174447,-187500.02235174447,-187500.02235174447
$SILENCE,1435.7196015977386,-7990.234552649803,6488.264380486534,12036.257926971666,-187500.02235174447,-187500.02235174447,-187500.02235174447,-187500.02235174447
$SILENCE,1426.9800695157135,-8033.082846770627,6355.003280043993,12028.568926879041,-187500.02235174447,-187500.02235174447,-187500.02235174447,-187500.02235174447
$SILENCE,1702.9570583053899,-7980.690357767387,6912.791062926181,11966.900463926848,-187500.02235174447,-187500.02235174447,-187500.02235174447,-187500.02235174447
$SILENCE,1701.5265466602502,-7939.406685758435,7049.91901515949,11974.36594657492,-187500.02235174447,-187500.02235174447,-187500.02235174447,-187500.02235174447
$SILENCE,1464.285131011621,-7978.969273444328,6586.92498051226,12032.055799014068,-187500.02235174447,-187500.02235174447,-187500.02235174447,-187500.02235174447
$SILENCE,1393.1395284103785,-8030.691210113909,6315.9994859694825,12041.063552029556,-187500.02235174447,-187500.02235174447,-187500.02235174447,-187500.02235174447
$SILENCE,1649.3799268460189,-7991.82152650613,6819.137253658445,11976.355251831443,-187500.02235174447,-187500.02235174447,-187500.02235174447,-187500.02235174447
$SILENCE,1712.9929915658226,-7938.222043302303,7081.658492286026,11971.303757584545,-187500.02235174447,-187500.02235174447,-187500.02235174447,-187500.02235174447
$SILENCE,1490.4366720243302,-7961.154933113448,6685.809097982538,12028.14424373439,-187500.02235174447,-187500.02235174447,-187500.02235174447,-187500.02235174447
$SILENCE,1351.5876354679629,-8022.756340832275,6304.957724208561,12055.10044754749,-187500.02235174447,-187500.02235174447,-187500.02235174447,-187500.02235174447
$SILENCE,1575.440356187863,-8003.1762126894255,6720.9013367773705,11996.091842185479,-187500.02235174447,-187500.02235174447,-187500.02235174447,-187500.02235174447
$SILENCE,1712.7918258657248,-7943.161778826926,7091.090928446166,11967.79453370506,-187500.02235174447,-187500.02235174447,-187500.02235174447,-187500.02235174447
$SILENCE,1552.0827832320672,-7957.757467956241,6783.307407296587,12014.084996472002,-187500.02235174447,-187500.02235174447,-187500.02235174447,-187500.02235174447
$SILENCE,1367.3456153089542,-8017.883660541018,6321.408608127667,12057.089752804011,-187500.02235174447,-187500.02235174447,-187500.02235174447,-187500.02235174447
$SILENCE,1561.7387368367597,-8015.804948306674,6613.3670942028875,12003.154993433356,-187500.02235174447,-187500.02235174447,-187500.02235174447,-187500.02235174447
$SILENCE,1752.6673379739927,-7951.521331253211,7080.652663785537,11962.2736528246,-187500.02235174447,-187500.02235174447,-187500.02235174447,-187500.02235174447
$SILENCE,1604.8105484021364,-7949.107342852038,6875.374242707997,12001.165688176834,-187500.02235174447,-187500.02235174447,-187500.02235174447,-187500.02235174447
$SILENCE,1388.2444963746664,-8009.233535436814,6365.441544704622,12053.245252757699,-187500.02235174447,-187500.02235174447,-187500.02235174447,-187500.02235174447
$SILENCE,1512.0508089126122,-8025.237384466814,6512.158395309258,12016.52133661763,-187500.02235174447,-187500.02235174447,-187500.02235174447,-187500.02235174447
$SILENCE,1732.8413406421353,-7961.914892424928,7049.4943320148395,11972.019013407114,-187500.02235174447,-187500.02235174447,-187500.02235174447,-187500.02235174447
$SILENCE,1624.8600631785469,-7945.419305016912,6965.943511240901,12007.647694068874,-187500.02235174447,-187500.02235174447,-187500.02235174447,-187500.02235174447
$SILENCE,1389.0715109195128,-7997.029482964216,6436.877719983783,12056.463903959264,-187500.02235174447,-187500.02235174447,-187500.02235174447,-187500.02235174447
$SILENCE,1463.8157443780594,-8029.797140335696,6429.792216991451,12035.207394982266,-187500.02235174447,-187500.02235174447,-187500.02235174447,-187500.02235174447
$SILENCE,1696.5197559022613,-7971.213218118337,6987.445889406907,11980.266807111122,-187500.02235174447,-187500.02235174447,-187500.02235174447,-187500.02235174447
$SILENCE,1648.2846913677088,-7939.518444480711,7022.448721223917,11994.817792751526,-187500.02235174447,-187500.02235174447,-187500.02235174447,-187500.02235174447
não,1404.673028549317,-7982.00911069025,6524.273040804034,12056.061572559069,-187500.02235174447,-187500.02235174447,-187500.02235174447,-187500.02235174447
não,1392.1336999098899,-8029.439512424411,6357.976062056549,12046.316211976555,-187500.02235174447,-187500.02235174447,-187500.02235174447,-187500.02235174447
não,1698.687875114426,-7989.2063724048585,6895.043777828668,11970.02970815059,-187500.02235174447,-187500.02235174447,-187500.02235174447,-187500.02235174447
não,1746.2523873153195,-7946.827464917596,7062.838323454657,11973.673042496806,-187500.02235174447,-187500.02235174447,-187500.02235174447,-187500.02235174447
não,1488.7155877012715,-7975.10242165356,6616.161062259801,12037.688438616806,-187500.02235174447,-187500.02235174447,-187500.02235174447,-187500.02235174447
não,1383.0365399165798,-8027.427855423433,6318.413474370655,12055.48042720323,-187500.02235174447,-187500.02235174447,-187500.02235174447,-187500.02235174447
não,1651.9950809472898,-7997.029482964216,6807.380236074953,11996.829449752504,-187500.02235174447,-187500.02235174447,-187500.02235174447,-187500.02235174447
não,1722.8948143595237,-7941.328935781591,7095.918905248512,11989.162801404334,-187500.02235174447,-187500.02235174447,-187500.02235174447,-187500.02235174447
não,1501.8807651854474,-7960.819656946619,6719.582583854507,12043.455188686276,-187500.02235174447,-187500.02235174447,-187500.02235174447,-187500.02235174447
não,1358.1590483378232,-8020.521166386744,6313.406683612667,12069.562026210073,-187500.02235174447,-187500.02235174447,-187500.02235174447,-187500.02235174447
não,1598.3285425100973,-8008.25005868078,6704.450452858264,12012.252153426667,-187500.02235174447,-187500.02235174447,-187500.02235174447,-187500.02235174447
não,1749.7169077058923,-7948.302680051646,7102.780890796291,11988.201676392757,-187500.02235174447,-187500.02235174447,-187500.02235174447,-187500.02235174447
não,1571.9534840528352,-7955.946976655362,6817.617335035484,12035.453264171276,-187500.02235174447,-187500.02235174447,-187500.02235174447,-187500.02235174447
não,1357.6673099598063,-8012.943925016395,6338.373582169245,12080.134401337435,-187500.02235174447,-187500.02235174447,-187500.02235174447,-187500.02235174447
não,1512.5201955461737,-8014.910878528462,6596.2233062056675,12031.340543191498,-187500.02235174447,-187500.02235174447,-187500.02235174447,-187500.02235174447
não,1705.5051571732947,-7950.649613219454,7082.060823686222,11992.202638650257,-187500.02235174447,-187500.02235174447,-187500.02235174447,-187500.02235174447
não,1563.728042093282,-7944.681697449887,6899.044740086168,12036.213223482755,-187500.02235174447,-187500.02235174447,-187500.02235174447,-187500.02235174447
não,1376.50983053563,-8001.1198521995375,6376.997396588015,12078.323910036554,-187500.02235174447,-187500.02235174447,-187500.02235174447,-187500.02235174447
não,1529.1945969098326,-8023.583355377121,6498.277962002512,12039.85655782897,-187500.02235174447,-187500.02235174447,-187500.02235174447,-187500.02235174447
não,1736.4846749883504,-7963.300700581158,7039.704267943414,11990.950940960758,-187500.02235174447,-187500.02235174447,-187500.02235174447,-187500.02235174447
não,1637.46644705134,-7943.519406738211,6980.852124792591,12023.80800531006,-187500.02235174447,-187500.02235174447,-187500.02235174447,-187500.02235174447
não,1366.9879873976693,-7991.687416039398,6461.062307484425,12083.777735683649,-187500.02235174447,-187500.02235174447,-187500.02235174447,-187500.02235174447
não,1421.2356711906996,-8027.718428101352,6412.246097594035,12057.514435948664,-187500.02235174447,-187500.02235174447,-187500.02235174447,-187500.02235174447
não,1709.6849333864373,-7975.683567009398,6970.592674087606,11991.465031083231,-187500.02235174447,-187500.02235174447,-187500.02235174447,-187500.02235174447
não,1691.557668633183,-7938.624374702499,7043.1017331006215,12015.694322072784,-187500.02235174447,-187500.02235174447,-187500.02235174447,-187500.02235174447
não,1437.4630376652526,-7975.840029220585,6549.977546927637,12076.781639669138,-187500.02235174447,-187500.02235174447,-187500.02235174447,-187500.02235174447
não,1398.1686709128228,-8024.656239110976,6353.25984397648,12076.267549546666,-187500.02235174447,-187500.02235174447,-187500.02235174447,-187500.02235174447
não,1672.0892992126107,-7983.014939190739,6897.100138318556,12024.478557643719,-187500.02235174447,-187500.02235174447,-187500.02235174447,-187500.02235174447
não,1691.2000407218982,-7932.298831021647,7083.625445798093,12023.271563443133,-187500.02235174447,-187500.02235174447,-187500.02235174447,-187500.02235174447
não,1481.987712620224,-7965.848799449062,6651.946205132748,12069.62908144344,-187500.02235174447,-187500.02235174447,-187500.02235174447,-187500.02235174447
não,1353.8898651468594,-8024.678590855431,6327.689448319608,12087.91280840788,-187500.02235174447,-187500.02235174447,-187500.02235174447,-187500.02235174447
não,1609.4150077599297,-7993.564962573643,6794.550334757607,12027.227822211722,-187500.02235174447,-187500.02235174447,-187500.02235174447,-187500.02235174447
não,1743.2349018138532,-7935.718647923309,7114.224983957409,12017.370702906932,-187500.02235174447,-187500.02235174447,-187500.02235174447,-187500.02235174447
não,1497.3657128054754,-7957.24337783377,6749.28805223561,12065.605767441484,-187500.02235174447,-187500.02235174447,-187500.02235174447,-187500.02235174447
não,1320.0493240415244,-8018.710675085864,6320.045151715894,12097.814631201582,-187500.02235174447,-187500.02235174447,-187500.02235174447,-187500.02235174447
não,1576.9602748108239,-8002.907991755962,6689.340673606476,12039.789502595604,-187500.02235174447,-187500.02235174447,-187500.02235174447,-187500.02235174447
não,1760.8257247001798,-7941.708915437332,7116.750731080858,12014.532031361108,-187500.02235174447,-187500.02235174447,-187500.02235174447,-187500.02235174447
não,1583.151708024944,-7950.2249300748035,6849.200349950833,12057.939119093315,-187500.02235174447,-187500.02235174447,-187500.02235174447,-187500.02235174447
não,1379.5049642926413,-8010.3958261484895,6354.556245154888,12097.278189334655,-187500.02235174447,-187500.02235174447,-187500.02235174447,-187500.02235174447
não,1539.0517162146232,-8014.754416317274,6585.360358400388,12048.506682933174,-187500.02235174447,-187500.02235174447,-187500.02235174447,-187500.02235174447
não,1736.596433710627,-7951.834255675585,7088.207553411431,12002.864420755437,-187500.02235174447,-187500.02235174447,-187500.02235174447,-187500.02235174447
não,1616.8357869190918,-7945.307546294635,6935.232214359309,12040.974145051736,-187500.02235174447,-187500.02235174447,-187500.02235174447,-187500.02235174447
não,1375.5040020351414,-8001.1198521995375,6411.419083049189,12092.405509043398,-187500.02235174447,-187500.02235174447,-187500.02235174447,-187500.02235174447
não,1507.7592739771933,-8028.031352523727,6492.757081122051,12054.318136491554,-187500.02235174447,-187500.02235174447,-187500.02235174447,-187500.02235174447
não,1754.433125785962,-7969.268616350725,7050.947195404434,11999.891638742882,-187500.02235174447,-187500.02235174447,-187500.02235174447,-187500.02235174447
não,1669.9658834893567,-7946.961575384328,7018.24659326632,12024.85853729946,-187500.02235174447,-187500.02235174447,-187500.02235174447,-187500.02235174447
não,1430.6904590952945,-7997.901200997973,6495.506345690053,12077.899226891903,-187500.02235174447,-187500.02235174447,-187500.02235174447,-187500.02235174447
não,1475.6174654504616,-8037.039105539216,6415.330638328867,12057.223863270745,-187500.02235174447,-187500.02235174447,-187500.02235174447,-187500.02235174447
não,1742.8772739025683,-7982.746718257275,6975.577113101139,11994.147240417868,-187500.02235174447,-187500.02235174447,-187500.02235174447,-187500.02235174447
não,1738.8092564117023,-7946.983927128784,7068.82859096868,12004.1831736783,-187500.02235174447,-187500.02235174447,-187500.02235174447,-187500.02235174447
não,1508.1616053773887,-7987.641750292987,6582.991073488125,12061.20247378379,-187500.02235174447,-187500.02235174447,-187500.02235174447,-187500.02235174447
não,1447.186046503311,-8035.943870060906,6355.047983532904,12065.114029063467,-187500.02235174447,-187500.02235174447,-187500.02235174447,-187500.02235174447
não,1699.4254826814513,-7990.793346261185,6884.449050956852,12004.56315333404,-187500.02235174447,-187500.02235174447,-187500.02235174447,-187500.02235174447
não,1735.1882738099425,-7943.3629445270235,7103.429091385495,12006.083071957002,-187500.02235174447,-187500.02235174447,-187500.02235174447,-187500.02235174447
não,1525.2606898856986,-7971.660253007442,6675.326129832999,12059.05670631608,-187500.02235174447,-187500.02235174447,-187500.02235174447,-187500.02235174447
não,1412.3843803863979,-8027.11493100106,6320.268669160446,12074.725279179249,-187500.02235174447,-187500.02235174447,-187500.02235174447,-187500.02235174447
não,1659.3935083619963,-7996.381282375012,6776.4901252377185,12015.224935439222,-187500.02235174447,-187500.02235174447,-187500.02235174447,-187500.02235174447
não,1746.8782361600681,-7934.802226400641,7121.913984050034,12000.450432354264,-187500.02235174447,-187500.02235174447,-187500.02235174447,-187500.02235174447
não,1549.4899808752516,-7952.19188358687,6778.524133983152,12050.585395167518,-187500.02235174447,-187500.02235174447,-187500.02235174447,-187500.02235174447
não,1383.5953335279626,-8014.553250617177,6327.957669253072,12081.63196821594,-187500.02235174447,-187500.02235174447,-187500.02235174447,-187500.02235174447
não,1594.1934697858655,-8004.20439293437,6672.420403053809,12027.652505356373,-187500.02235174447,-187500.02235174447,-187500.02235174447,-187500.02235174447
não,1758.7023089769257,-7938.602022958044,7115.029646757799,11996.717691030228,-187500.02235174447,-187500.02235174447,-187500.02235174447,-187500.02235174447
não,1590.952466839846,-7943.80997941613,6863.684280357872,12032.033447269612,-187500.02235174447,-187500.02235174447,-187500.02235174447,-187500.02235174447
não,1384.6682172618173,-8005.165517945948,6347.738963096019,12070.143171565911,-187500.02235174447,-187500.02235174447,-187500.02235174447,-187500.02235174447
não,1545.8689982734918,-8012.698055827386,6550.826913216939,12032.771054836638,-187500.02235174447,-187500.02235174447,-187500.02235174447,-187500.02235174447
não,1757.9870531543559,-7939.987831114273,7076.4952393168505,11988.067565926023,-187500.02235174447,-187500.02235174447,-187500.02235174447,-187500.02235174447
não,1637.7570197292591,-7926.643839674454,6947.592729043095,12016.320170917532,-187500.02235174447,-187500.02235174447,-187500.02235174447,-187500.02235174447
não,1395.41940634482,-7989.184020660404,6401.807832933407,12065.270491274654,-187500.02235174447,-187500.02235174447,-187500.02235174447,-187500.02235174447
não,1474.9692648612577,-8014.888526784007,6437.3694583618,12031.876985058427,-187500.02235174447,-187500.02235174447,-187500.02235174447,-187500.02235174447
não,1744.10661984761,-7951.655441719943,7012.6363054080375,11983.731327501695,-187500.02235174447,-187500.02235174447,-187500.02235174447,-187500.02235174447
não,1693.5469738897054,-7926.509729207723,7020.571174689672,12015.359045905954,-187500.02235174447,-187500.02235174447,-187500.02235174447,-187500.02235174447
não,1441.1510755003783,-7973.828372219607,6491.572438665919,12063.080020318035,-187500.02235174447,-187500.02235174447,-187500.02235174447,-187500.02235174447
não,1455.255026251677,-8018.665971596954,6384.731100169552,12044.595127653496,-187500.02235174447,-187500.02235174447,-187500.02235174447,-187500.02235174447
não,1721.8666341145795,-7966.72051748282,6921.731760708304,11988.983987448692,-187500.02235174447,-187500.02235174447,-187500.02235174447,-187500.02235174447
não,1706.3768752070519,-7921.5699936831,7036.373858019574,11982.032594923092,-187500.02235174447,-187500.02235174447,-187500.02235174447,-187500.02235174447
não,1487.0168551226682,-7954.449409776857,6599.754881829605,12076.11108733548,-187500.02235174447,-187500.02235174447,-187500.02235174447,-187500.02235174447
não,1425.7283718262163,-8012.988628505305,6330.773989054441,12065.829284886036,-187500.02235174447,-187500.02235174447,-187500.02235174447,-187500.02235174447
não,1679.3536161605855,-7981.204447889859,6808.25195410871,11973.270711096611,-187500.02235174447,-187500.02235174447,-187500.02235174447,-187500.02235174447
não,1751.7732681957805,-7917.479624447778,7071.73431774787,11983.75367924615,-187500.02235174447,-187500.02235174447,-187500.02235174447,-187500.02235174447
não,1533.6872975453493,-7941.61950845951,6674.432060054786,12035.319153704544,-187500.02235174447,-187500.02235174447,-187500.02235174447,-187500.02235174447
não,1401.029694203102,-7992.5367823287,6279.9014186741615,12046.047991043091,-187500.02235174447,-187500.02235174447,-187500.02235174447,-187500.02235174447
não,1641.1544848864658,-7976.711747254342,6728.52328163663,12019.605877352462,-187500.02235174447,-187500.02235174447,-187500.02235174447,-187500.02235174447
não,1722.9618695928896,-7948.5261974961995,7056.289262329253,11965.872283681903,-187500.02235174447,-187500.02235174447,-187500.02235174447,-187500.02235174447
não,1536.503617346718,-7969.000395417261,6743.767171355149,12061.224825528245,-187500.02235174447,-187500.02235174447,-187500.02235174447,-187500.02235174447
não,1369.6031414989402,-7998.214125420347,6301.694369518086,12088.471602019263,-187500.02235174447,-187500.02235174447,-187500.02235174447,-187500.02235174447
não,1568.7795363401815,-7987.708805526353,6588.646064835319,12035.542671149096,-187500.02235174447,-187500.02235174447,-187500.02235174447,-187500.02235174447
não,1722.492482959328,-7941.507749737233,7032.551709717716,11988.76047000414,-187500.02235174447,-187500.02235174447,-187500.02235174447,-187500.02235174447
não,1575.4180044434077,-7947.363906784524,6816.030361179157,12022.735121576205,-187500.02235174447,-187500.02235174447,-187500.02235174447,-187500.02235174447
não,1364.7528129521386,-8000.784576032708,6316.245355158491,12101.010930658691,-187500.02235174447,-187500.02235174447,-187500.02235174447,-187500.02235174447
não,1493.2082883367884,-8018.420102407945,6469.891246544272,12035.967354293747,-187500.02235174447,-187500.02235174447,-187500.02235174447,-187500.02235174447
não,1716.7033811454037,-7957.802171445152,6994.754909843792,11986.70410951425,-187500.02235174447,-187500.02235174447,-187500.02235174447,-187500.02235174447
não,1629.2410050917872,-7922.128787294482,6925.866833432536,12039.945964806791,-187500.02235174447,-187500.02235174447,-187500.02235174447,-187500.02235174447
não,1385.8528597179486,-7987.753509015264,6407.641638236241,12086.661110718383,-187500.02235174447,-187500.02235174447,-187500.02235174447,-187500.02235174447
não,1434.4902556526968,-8025.170329233448,6382.607684446298,12049.646621900394,-187500.02235174447,-187500.02235174447,-187500.02235174447,-187500.02235174447
não,1716.725732889859,-7963.680680236898,6946.676307520427,12018.443586640786,-187500.02235174447,-187500.02235174447,-187500.02235174447,-187500.02235174447
não,1642.048554664678,-7949.777895185697,6943.122380152033,11973.516580285619,-187500.02235174447,-187500.02235174447,-187500.02235174447,-187500.02235174447
não,1404.963601227236,-7976.801154232163,6472.908732045738,12043.388133452909,-187500.02235174447,-187500.02235174447,-187500.02235174447,-187500.02235174447
não,1405.6565053053505,-8007.601858091576,6351.181131742136,12073.160657067378,-187500.02235174447,-187500.02235174447,-187500.02235174447,-187500.02235174447
não,1647.6811942674153,-7972.219046618825,6866.969986792802,11977.674004754306,-187500.02235174447,-187500.02235174447,-187500.02235174447,-187500.02235174447
não,1645.2001506328763,-7952.437752775879,7020.414712478485,11990.258036882644,-187500.02235174447,-187500.02235174447,-187500.02235174447,-187500.02235174447
não,1432.4562469072637,-7977.047023421172,6560.43816333272,12054.899281847393,-187500.02235174447,-187500.02235174447,-187500.02235174447,-187500.02235174447
não,1354.6945279472504,-8030.668858369453,6266.937406890083,12048.350220721988,-187500.02235174447,-187500.02235174447,-187500.02235174447,-187500.02235174447
não,1618.1768915864102,-7981.226799634314,6783.039186363124,11992.962597961736,-187500.02235174447,-187500.02235174447,-187500.02235174447,-187500.02235174447
não,1701.5041949157949,-7927.8061303861305,7060.267872842297,11997.2317811527,-187500.02235174447,-187500.02235174447,-187500.02235174447,-187500.02235174447
não,1467.2579130241768,-7974.4095175754455,6644.078391084479,12013.928534260815,-187500.02235174447,-187500.02235174447,-187500.02235174447,-187500.02235174447
não,1338.9588998507143,-8033.865157826563,6265.730412689497,12065.315194763565,-187500.02235174447,-187500.02235174447,-187500.02235174447,-187500.02235174447
não,1589.3207894946088,-8003.019750478238,6692.425214341309,12017.2365924402,-187500.02235174447,-187500.02235174447,-187500.02235174447,-187500.02235174447
não,1706.019247295767,-7940.792493914663,7065.140553133554,11966.006394148637,-187500.02235174447,-187500.02235174447,-187500.02235174447,-187500.02235174447
não,1509.2568408556988,-7960.842008691074,6753.870159848948,12000.875115498915,-187500.02235174447,-187500.02235174447,-187500.02235174447,-187500.02235174447
não,1338.4448097282423,-8017.704846585375,6298.475718316522,12067.326851764543,-187500.02235174447,-187500.02235174447,-187500.02235174447,-187500.02235174447
não,1524.0760474295673,-8013.659180838965,6581.895838009816,12017.147185462378,-187500.02235174447,-187500.02235174447,-187500.02235174447,-187500.02235174447
não,1712.210680509887,-7948.9955841297615,7062.368936821096,11979.618606521917,-187500.02235174447,-187500.02235174447,-187500.02235174447,-187500.02235174447
não,1576.7144056218156,-7949.9343573968845,6872.133239761978,12019.628229096917,-187500.02235174447,-187500.02235174447,-187500.02235174447,-187500.02235174447
não,1357.8237721709934,-8008.607686592065,6353.952748054594,12063.86233137397,-187500.02235174447,-187500.02235174447,-187500.02235174447,-187500.02235174447
não,1490.4366720243302,-8026.109102500571,6484.218714740124,12024.009171010157,-187500.02235174447,-187500.02235174447,-187500.02235174447,-187500.02235174447
não,1720.6149364250823,-7964.731212226297,7026.226166036865,11969.649728494851,-187500.02235174447,-187500.02235174447,-187500.02235174447,-187500.02235174447
não,1619.115664853533,-7945.955746883839,6948.285633121209,11985.005376935647,-187500.02235174447,-187500.02235174447,-187500.02235174447,-187500.02235174447
não,1385.383473084387,-8001.455128366367,6439.291708384956,12044.058685786567,-187500.02235174447,-187500.02235174447,-187500.02235174447,-187500.02235174447
não,1431.7409910846939,-8039.698963129397,6408.267487080991,12030.245307713189,-187500.02235174447,-187500.02235174447,-187500.02235174447,-187500.02235174447
não,1687.0649679976664,-7982.254979879258,6961.741383283304,11967.861588938427,-187500.02235174447,-187500.02235174447,-187500.02235174447,-187500.02235174447
não,1655.7725257602365,-7953.488284765278,7012.546898430217,11980.736193744684,-187500.02235174447,-187500.02235174447,-187500.02235174447,-187500.02235174447
não,1414.060761220546,-7997.096538197582,6518.640401201296,12037.129645005423,-187500.02235174447,-187500.02235174447,-187500.02235174447,-187500.02235174447
não,1386.098728906957,-8040.123646274048,6340.92168103715,12030.960563535758,-187500.02235174447,-187500.02235174447,-187500.02235174447,-187500.02235174447
não,1647.5247320562282,-7992.4920788397885,6880.962178821824,11966.408725548832,-187500.02235174447,-187500.02235174447,-187500.02235174447,-187500.02235174447
não,1673.0057207352784,-7948.794418429664,7059.8878931865565,11967.07927788249,-187500.02235174447,-187500.02235174447,-187500.02235174447,-187500.02235174447
não,1449.6894418823056,-7982.634959534998,6628.253356010122,12025.484386144208,-187500.02235174447,-187500.02235174447,-187500.02235174447,-187500.02235174447
não,1367.1668013533117,-8036.25679448328,6348.230701474035,12038.00136303918,-187500.02235174447,-187500.02235174447,-187500.02235174447,-187500.02235174447
não,1603.3800367569968,-8008.071244725138,6782.525096240652,11979.015109421625,-187500.02235174447,-187500.02235174447,-187500.02235174447,-187500.02235174447
não,1707.494462429817,-7949.979060885795,7117.913021792534,11973.673042496806,-187500.02235174447,-187500.02235174447,-187500.02235174447,-187500.02235174447
não,1480.668959697361,-7972.95665418585,6711.46890061723,12032.838110070004,-187500.02235174447,-187500.02235174447,-187500.02235174447,-187500.02235174447
não,1325.614908410896,-8038.223747995347,6290.987883923994,12054.273433002643,-187500.02235174447,-187500.02235174447,-187500.02235174447,-187500.02235174447
não,1554.9438065223464,-8021.616401865054,6677.047214156058,11997.097670685967,-187500.02235174447,-187500.02235174447,-187500.02235174447,-187500.02235174447
não,1702.3535612050964,-7956.550473755655,7091.2920941462635,11969.269748839111,-187500.02235174447,-187500.02235174447,-187500.02235174447,-187500.02235174447
não,1525.573614308073,-7961.5572645136435,6813.281096611154,12011.648656326373,-187500.02235174447,-187500.02235174447,-187500.02235174447,-187500.02235174447
não,1333.4156672257982,-8021.571698376143,6330.416361143156,12053.692287646805,-187500.02235174447,-187500.02235174447,-187500.02235174447,-187500.02235174447
não,1507.021666410168,-8024.544480388699,6574.855038506394,12006.41834812383,-187500.02235174447,-187500.02235174447,-187500.02235174447,-187500.02235174447
não,1701.817119338169,-7958.852703434552,7068.202742123931,11968.487437783175,-187500.02235174447,-187500.02235174447,-187500.02235174447,-187500.02235174447
não,1574.121603265,-7950.33668879708,6903.000998854756,12003.914952744837,-187500.02235174447,-187500.02235174447,-187500.02235174447,-187500.02235174447
não,1344.9715191091918,-8005.590201090598,6384.060547835893,12055.815703370059,-187500.02235174447,-187500.02235174447,-187500.02235174447,-187500.02235174447
não,1456.0149855631573,-8027.427855423433,6484.732804862596,12028.09954024548,-187500.02235174447,-187500.02235174447,-187500.02235174447,-187500.02235174447
não,1693.010532022778,-7965.804095960152,7031.7693986617805,11975.438830308776,-187500.02235174447,-187500.02235174447,-187500.02235174447,-187500.02235174447
não,1612.3207345391197,-7948.034459118183,6978.862819536069,11988.827525237504,-187500.02235174447,-187500.02235174447,-187500.02235174447,-187500.02235174447
não,1370.899542677348,-7996.046006208183,6454.110914958825,12044.013982297658,-187500.02235174447,-187500.02235174447,-187500.02235174447,-187500.02235174447
não,1408.1599006843448,-8032.9934397928055,6395.906972397205,12033.95569729277,-187500.02235174447,-187500.02235174447,-187500.02235174447,-187500.02235174447
não,1671.9328370014236,-7975.013014675738,6954.655880290971,11975.08120239749,-187500.02235174447,-187500.02235174447,-187500.02235174447,-187500.02235174447
não,1644.2837291102087,-7939.920775880907,7032.037619595244,11984.021900179614,-187500.02235174447,-187500.02235174447,-187500.02235174447,-187500.02235174447
não,1410.7527030411607,-7985.026596191717,6548.703497493684,12047.500854432685,-187500.02235174447,-187500.02235174447,-187500.02235174447,-187500.02235174447
não,1374.7887462125716,-8030.534747902721,6339.49116939201,12056.977994081735,-187500.02235174447,-187500.02235174447,-187500.02235174447,-187500.02235174447
não,1635.6783074949155,-7985.25011363627,6864.399536180442,11984.647749024361,-187500.02235174447,-187500.02235174447,-187500.02235174447,-187500.02235174447
não,1669.049461966689,-7934.154025811437,7065.140553133554,11977.718708243217,-187500.02235174447,-187500.02235174447,-187500.02235174447,-187500.02235174447
não,1442.2686627231435,-7962.9654244143285,6638.110475314913,12038.582508395019,-187500.02235174447,-187500.02235174447,-187500.02235174447,-187500.02235174447
não,1335.1367515488569,-8023.449244910389,6300.733244506508,12053.938156835815,-187500.02235174447,-187500.02235174447,-187500.02235174447,-187500.02235174447
não,1591.6453709179607,-7995.375453874523,6765.62717743244,11992.22499039471,-187500.02235174447,-187500.02235174447,-187500.02235174447,-187500.02235174447
não,1696.855032069091,-7934.511653722722,7093.571972080705,11981.384394333887,-187500.02235174447,-187500.02235174447,-187500.02235174447,-187500.02235174447
não,1494.3705790484644,-7953.778857443197,6740.123837008934,12037.531976405618,-187500.02235174447,-187500.02235174447,-187500.02235174447,-187500.02235174447
não,1331.35930673591,-8009.747625559286,6304.957724208561,12071.417220999863,-187500.02235174447,-187500.02235174447,-187500.02235174447,-187500.02235174447
não,1544.505541861718,-7998.080014953615,6653.242606311155,12013.503851116164,-187500.02235174447,-187500.02235174447,-187500.02235174447,-187500.02235174447
não,1693.6810843564374,-7940.948956125851,7079.713890518415,11978.255150110144,-187500.02235174447,-187500.02235174447,-187500.02235174447,-187500.02235174447
não,1527.54056782014,-7950.604909730543,6830.246070652732,12021.505775631163,-187500.02235174447,-187500.02235174447,-187500.02235174447,-187500.02235174447
não,1341.2834812740662,-8000.717520799341,6361.887617336228,12071.640738444417,-187500.02235174447,-187500.02235174447,-187500.02235174447,-187500.02235174447
não,1488.2685528121654,-8008.96531450335,6551.408058572777,12031.251136213677,-187500.02235174447,-187500.02235174447,-187500.02235174447,-187500.02235174447
não,1701.0348082822334,-7950.2249300748035,7057.093925129643,11984.893618213371,-187500.02235174447,-187500.02235174447,-187500.02235174447,-187500.02235174447
não,1582.637617902472,-7937.99852585775,6921.4188362859295,12023.875060543425,-187500.02235174447,-187500.02235174447,-187500.02235174447,-187500.02235174447
não,1346.6926034322505,-7991.441546850389,6393.917667140683,12069.517322721164,-187500.02235174447,-187500.02235174447,-187500.02235174447,-187500.02235174447
não,1438.0888865100012,-8017.928364029928,6456.211978937624,12035.922650804836,-187500.02235174447,-187500.02235174447,-187500.02235174447,-187500.02235174447
não,1682.95224701789,-7958.428020289901,7011.362255974085,11985.340653102476,-187500.02235174447,-187500.02235174447,-187500.02235174447,-187500.02235174447
não,1615.829958418603,-7935.919813623406,6990.91040979748,12005.434871367797,-187500.02235174447,-187500.02235174447,-187500.02235174447,-187500.02235174447
não,1371.0113013996247,-7980.735061256298,6469.8465430553615,12060.129590049934,-187500.02235174447,-187500.02235174447,-187500.02235174447,-187500.02235174447
não,1390.9043539648478,-8022.085788498615,6371.275350007457,12045.533900920618,-187500.02235174447,-187500.02235174447,-187500.02235174447,-187500.02235174447
não,1659.7511362732812,-7965.9605581713395,6933.734647480804,11986.413536836331,-187500.02235174447,-187500.02235174447,-187500.02235174447,-187500.02235174447
não,1649.983423946312,-7926.509729207723,7042.654698211515,12004.071414956024,-187500.02235174447,-187500.02235174447,-187500.02235174447,-187500.02235174447
não,1407.8916797508812,-7967.86045645004,6561.600454044396,12057.402677226386,-187500.02235174447,-187500.02235174447,-187500.02235174447,-187500.02235174447
não,1354.2027895692338,-8014.575602361632,6321.542718594399,12059.280223760632,-187500.02235174447,-187500.02235174447,-187500.02235174447,-187500.02235174447
não,1621.9096329104464,-7978.075203666116,6845.981698749269,11995.242475896177,-187500.02235174447,-187500.02235174447,-187500.02235174447,-187500.02235174447
não,1671.374043390041,-7926.286211763169,7079.468021329406,11994.348406117966,-187500.02235174447,-187500.02235174447,-187500.02235174447,-187500.02235174447
não,1448.638909892906,-7951.208406830837,6663.546760505053,12052.619403912951,-187500.02235174447,-187500.02235174447,-187500.02235174447,-187500.02235174447
não,1323.3126787319993,-8013.6815325834195,6298.408663083156,12076.91575013587,-187500.02235174447,-187500.02235174447,-187500.02235174447,-187500.02235174447
não,1568.0419287731563,-7989.005206704761,6738.022773030135,12014.912011016848,-187500.02235174447,-187500.02235174447,-187500.02235174447,-187500.02235174447
não,1680.0465202387002,-7922.642877416954,7080.3173876187075,11991.286217127588,-187500.02235174447,-187500.02235174447,-187500.02235174447,-187500.02235174447
não,1487.8215179230592,-7939.540796225167,6752.886683092915,12041.801159596582,-187500.02235174447,-187500.02235174447,-187500.02235174447,-187500.02235174447
não,1319.3787717078653,-7991.977988717317,6302.811956740851,12074.501761734697,-187500.02235174447,-187500.02235174447,-187500.02235174447,-187500.02235174447
não,1528.859320743003,-7942.960613126828,6632.611946178908,12015.984894750703,-187500.02235174447,-187500.02235174447,-187500.02235174447,-187500.02235174447
não,1700.1854419929318,-7904.046226030139,7085.882971988079,11989.878057226904,-187500.02235174447,-187500.02235174447,-187500.02235174447,-187500.02235174447
não,1544.7514110507263,-7947.140389339971,6853.089553486056,12044.52807242013,-187500.02235174447,-187500.02235174447,-187500.02235174447,-187500.02235174447
não,1336.746077149639,-8008.384169147512,6345.97317528405,12103.134346381945,-187500.02235174447,-187500.02235174447,-187500.02235174447,-187500.02235174447
não,1476.5785904620398,-8014.083863983616,6521.054389602469,12059.86136911647,-187500.02235174447,-187500.02235174447,-187500.02235174447,-187500.02235174447
não,1695.3574651905853,-7947.1180375955155,7041.090076099644,12000.271618398621,-187500.02235174447,-187500.02235174447,-187500.02235174447,-187500.02235174447
não,1578.569600411606,-7928.85666237553,6921.016504885734,12027.47369140073,-187500.02235174447,-187500.02235174447,-187500.02235174447,-187500.02235174447
não,1351.230007556678,-7976.398822831968,6403.730082956563,12086.683462462839,-187500.02235174447,-187500.02235174447,-187500.02235174447,-187500.02235174447
não,1432.031563762613,-8005.187869690403,6433.167330404202,12058.162636537867,-187500.02235174447,-187500.02235174447,-187500.02235174447,-187500.02235174447
não,1684.5392208742169,-7943.80997941613,6995.894848811013,12010.911048759348,-187500.02235174447,-187500.02235174447,-187500.02235174447,-187500.02235174447
não,1630.8056272036586,-7915.445615702345,7004.612029148582,12033.95569729277,-187500.02235174447,-187500.02235174447,-187500.02235174447,-187500.02235174447
não,1385.8305079734932,-7965.4911715377775,6494.813441611939,12092.87489567696,-187500.02235174447,-187500.02235174447,-187500.02235174447,-187500.02235174447
não,1383.41651957232,-8008.875907525529,6365.374489471256,12091.377328798453,-187500.02235174447,-187500.02235174447,-187500.02235174447,-187500.02235174447
não,1657.7841827612142,-7956.818694689119,6925.330391565609,12021.461072142252,-187500.02235174447,-187500.02235174447,-187500.02235174447,-187500.02235174447
não,1665.920217742946,-7915.177394768882,7057.093925129643,12023.09274948749,-187500.02235174447,-187500.02235174447,-187500.02235174447,-187500.02235174447
não,1429.8187410615376,-7951.722496953309,6588.802527046505,12076.669880946862,-187500.02235174447,-187500.02235174447,-187500.02235174447,-187500.02235174447
não,1356.9744058816918,-8003.846765023085,6316.20065166958,12081.430802515843,-187500.02235174447,-187500.02235174447,-187500.02235174447,-187500.02235174447
não,1620.1438450984772,-7964.351232570557,6822.44531183783,12017.728330818216,-187500.02235174447,-187500.02235174447,-187500.02235174447,-187500.02235174447
não,1687.9590377758789,-7912.606944156521,7084.675977787492,12013.816775538538,-187500.02235174447,-187500.02235174447,-187500.02235174447,-187500.02235174447
não,1469.6942531698053,-7938.266746791214,6684.467993315219,12070.813723899571,-187500.02235174447,-187500.02235174447,-187500.02235174447,-187500.02235174447
não,1335.5390829490523,-7997.700035297876,6298.8556979722625,12097.568762012574,-187500.02235174447,-187500.02235174447,-187500.02235174447,-187500.02235174447
não,1575.1050800210335,-7976.577636787611,6717.99560999818,12037.174348494334,-187500.02235174447,-187500.02235174447,-187500.02235174447,-187500.02235174447
não,1699.4925379148171,-7916.451444202834,7092.767309280313,12014.04029298309,-187500.02235174447,-187500.02235174447,-187500.02235174447,-187500.02235174447
não,1513.280154857654,-7928.85666237553,6783.553276485596,12061.515398206164,-187500.02235174447,-187500.02235174447,-187500.02235174447,-187500.02235174447
não,1329.906443346315,-7989.653407293965,6315.910078991661,12098.686349235339,-187500.02235174447,-187500.02235174447,-187500.02235174447,-187500.02235174447
não,1526.4006288529192,-7986.166535158937,6611.109568012902,12046.159749765367,-187500.02235174447,-187500.02235174447,-187500.02235174447,-187500.02235174447
não,1708.7461601193143,-7920.2288890157815,7082.73137601988,12010.70988305925,-187500.02235174447,-187500.02235174447,-187500.02235174447,-187500.02235174447
não,1561.7163850923046,-7919.04424655965,6873.809620596126,12049.244290500199,-187500.02235174447,-187500.02235174447,-187500.02235174447,-187500.02235174447
não,1339.74121090665,-7978.276369366214,6357.998413801005,12094.998311400213,-187500.02235174447,-187500.02235174447,-187500.02235174447,-187500.02235174447
$SILENCE,1466.9226368573472,-7993.006168962261,6503.172994038224,12053.71463939126,-187500.02235174447,-187500.02235174447,-187500.02235174447,-187500.02235174447
$SILENCE,1696.0056657797893,-7927.314392008114,7041.827683666669,12005.323112645521,-187500.02235174447,-187500.02235174447,-187500.02235174447,-187500.02235174447
$SILENCE,1603.2682780347202,-7911.735226122764,6958.478028592829,12036.839072327504,-187500.02235174447,-187500.02235174447,-187500.02235174447,-187500.02235174447
$SILENCE,1359.902484405337,-7964.507694781744,6429.792216991451,12089.455078775298,-187500.02235174447,-187500.02235174447,-187500.02235174447,-187500.02235174447
$SILENCE,1420.0733804790236,-7995.643674807987,6418.705751741619,12067.013927342168,-187500.02235174447,-187500.02235174447,-187500.02235174447,-187500.02235174447
$SILENCE,1680.3594446610743,-7936.657421190432,6983.534334127228,12009.99462723668,-187500.02235174447,-187500.02235174447,-187500.02235174447,-187500.02235174447
$SILENCE,1639.2545866077646,-7907.868374331996,7020.280602011753,12028.278354201122,-187500.02235174447,-187500.02235174447,-187500.02235174447,-187500.02235174447
$SILENCE,1395.709979022739,-7953.264767320725,6515.801729655473,12084.62710197295,-187500.02235174447,-187500.02235174447,-187500.02235174447,-187500.02235174447
$SILENCE,1384.8917347063702,-7998.169421931437,6354.511541665976,12077.116915835968,-187500.02235174447,-187500.02235174447,-187500.02235174447,-187500.02235174447
$SILENCE,1658.5664938171499,-7949.66613646342,6905.124414578011,12015.180231950311,-187500.02235174447,-187500.02235174447,-187500.02235174447,-187500.02235174447
$SILENCE,1674.2127149358648,-7905.052054530627,7070.773192736291,12024.52326113263,-187500.02235174447,-187500.02235174447,-187500.02235174447,-187500.02235174447
$SILENCE,1443.766229601649,-7939.630203202988,6618.30682972751,12082.213113571777,-187500.02235174447,-187500.02235174447,-187500.02235174447,-187500.02235174447
$SILENCE,1361.4000512838427,-7995.397805618979,6319.978096482528,12091.042052631623,-187500.02235174447,-187500.02235174447,-187500.02235174447,-187500.02235174447
$SILENCE,1620.70263870986,-7961.847837191563,6810.151852387411,12023.182156465311,-187500.02235174447,-187500.02235174447,-187500.02235174447,-187500.02235174447
$SILENCE,1695.8268518241468,-7906.795490598141,7094.421338370006,12012.408615637853,-187500.02235174447,-187500.02235174447,-187500.02235174447,-187500.02235174447
$SILENCE,1488.1120906009783,-7929.549566453644,6716.56509835304,12067.639776186918,-187500.02235174447,-187500.02235174447,-187500.02235174447,-187500.02235174447
$SILENCE,1342.0881440744572,-7989.072261938127,6311.305619633868,12094.953607911302,-187500.02235174447,-187500.02235174447,-187500.02235174447,-187500.02235174447
$SILENCE,1573.4063474424302,-7972.889598952484,6707.266772659633,12035.766188593649,-187500.02235174447,-187500.02235174447,-187500.02235174447,-187500.02235174447
$SILENCE,1713.7976543662137,-7911.064673789106,7104.010236741333,12008.720577802727,-187500.02235174447,-187500.02235174447,-187500.02235174447,-187500.02235174447
$SILENCE,1536.995355724735,-7921.257069260725,6814.599849534017,12053.71463939126,-187500.02235174447,-187500.02235174447,-187500.02235174447,-187500.02235174447
$SILENCE,1341.5069987186193,-7980.846819978574,6334.193805956103,12094.01483464418,-187500.02235174447,-187500.02235174447,-187500.02235174447,-187500.02235174447
$SILENCE,1522.1314456619557,-7982.143221156982,6595.4633468941865,12043.09756077499,-187500.02235174447,-187500.02235174447,-187500.02235174447,-187500.02235174447
$SILENCE,1715.4740352003616,-7917.61373491451,7079.043338184755,12002.216220166234,-187500.02235174447,-187500.02235174447,-187500.02235174447,-187500.02235174447
$SILENCE,1579.955408567835,-7914.037455801661,6902.3975017544635,12042.963450308258,-187500.02235174447,-187500.02235174447,-187500.02235174447,-187500.02235174447
$SILENCE,1354.0910308469572,-7974.141296641982,6386.519239725976,12092.15963985439,-187500.02235174447,-187500.02235174447,-187500.02235174447,-187500.02235174447
$SILENCE,1474.6339886944281,-7993.341445129091,6501.697778904174,12053.20054926879,-187500.02235174447,-187500.02235174447,-187500.02235174447,-187500.02235174447
$SILENCE,1709.2378984973311,-7927.962592597318,7042.788808678247,11999.779880020606,-187500.02235174447,-187500.02235174447,-187500.02235174447,-187500.02235174447
$SILENCE,1627.7881417021922,-7907.980133054273,6980.136868970021,12027.987781523203,-187500.02235174447,-187500.02235174447,-187500.02235174447,-187500.02235174447
$SILENCE,1387.1716126408116,-7958.986813901283,6457.530731860487,12080.022642615157,-187500.02235174447,-187500.02235174447,-187500.02235174447,-187500.02235174447
$SILENCE,1425.7283718262163,-7993.542610829189,6412.760187716507,12061.761267395172,-187500.02235174447,-187500.02235174447,-187500.02235174447,-187500.02235174447
$SILENCE,1695.5139274017724,-7938.087932835571,6980.203924203387,12004.361987633943,-187500.02235174447,-187500.02235174447,-187500.02235174447,-187500.02235174447
$SILENCE,1670.2788079117308,-7906.191993497849,7047.460323269406,12019.225897696722,-187500.02235174447,-187500.02235174447,-187500.02235174447,-187500.02235174447
$SILENCE,1429.1481887278783,-7949.442619018868,6553.911453951771,12073.562988467573,-187500.02235174447,-187500.02235174447,-187500.02235174447,-187500.02235174447
$SILENCE,1398.481595335197,-7996.96242773085,6359.83125684634,12073.071250089557,-187500.02235174447,-187500.02235174447,-187500.02235174447,-187500.02235174447
$SILENCE,1666.501363098784,-7951.0519446196495,6896.541344707173,12007.446528368775,-187500.02235174447,-187500.02235174447,-187500.02235174447,-187500.02235174447
$SILENCE,1700.207793737387,-7905.387330697457,7088.095794689155,12004.920781245326,-187500.02235174447,-187500.02235174447,-187500.02235174447,-187500.02235174447
$SILENCE,1475.0810235835343,-7938.199691557848,6648.951071375736,12058.296747004599,-187500.02235174447,-187500.02235174447,-187500.02235174447,-187500.02235174447
$SILENCE,1372.575923511496,-7993.363796873546,6325.118997707248,12076.602825713495,-187500.02235174447,-187500.02235174447,-187500.02235174447,-187500.02235174447
$SILENCE,1628.9951359027787,-7963.881845936996,6797.947799914814,12015.157880205856,-187500.02235174447,-187500.02235174447,-187500.02235174447,-187500.02235174447
$SILENCE,1727.365163250585,-7910.103548777527,7112.0121612563335,12000.741005032183,-187500.02235174447,-187500.02235174447,-187500.02235174447,-187500.02235174447
$SILENCE,1529.6192800544836,-7931.494168221256,6756.351203483487,12053.178197524334,-187500.02235174447,-187500.02235174447,-187500.02235174447,-187500.02235174447
$SILENCE,1368.4408507872643,-7991.240381150292,6329.544643109399,12085.208247328788,-187500.02235174447,-187500.02235174447,-187500.02235174447,-187500.02235174447
$SILENCE,1584.9398475813684,-7976.734098998797,6694.570981809018,12025.14910997738,-187500.02235174447,-187500.02235174447,-187500.02235174447,-187500.02235174447
$SILENCE,1739.8150849121912,-7913.94804882384,7113.643838601571,11993.811964251037,-187500.02235174447,-187500.02235174447,-187500.02235174447,-187500.02235174447
$SILENCE,1574.1886584983658,-7921.100607049538,6848.26157668371,12038.00136303918,-187500.02235174447,-187500.02235174447,-187500.02235174447,-187500.02235174447
$SILENCE,1368.7984786985492,-7980.95857870085,6353.9750997990495,12076.982805369236,-187500.02235174447,-187500.02235174447,-187500.02235174447,-187500.02235174447
$SILENCE,1538.3811638809639,-7989.049910193671,6585.11448921138,12028.680685601317,-187500.02235174447,-187500.02235174447,-187500.02235174447,-187500.02235174447
$SILENCE,1748.1075821051102,-7925.973287340795,7092.789661024769,11986.391185091876,-187500.02235174447,-187500.02235174447,-187500.02235174447,-187500.02235174447
$SILENCE,1620.9708596433236,-7916.630258158477,6941.021316173234,12023.293915187587,-187500.02235174447,-187500.02235174447,-187500.02235174447,-187500.02235174447
$SILENCE,1391.3066853650434,-7973.873075708518,6414.682437739663,12072.870084389458,-187500.02235174447,-187500.02235174447,-187500.02235174447,-187500.02235174447
$SILENCE,1493.8564889259922,-7997.498869597777,6490.52190667652,12041.175310751834,-187500.02235174447,-187500.02235174447,-187500.02235174447,-187500.02235174447
$SILENCE,1740.4409337569398,-7935.003392100739,7043.72758194537,11986.100612413957,-187500.02235174447,-187500.02235174447,-187500.02235174447,-187500.02235174447
$SILENCE,1668.8035927776807,-7913.277496490181,7010.870517596069,12009.838165025492,-187500.02235174447,-187500.02235174447,-187500.02235174447,-187500.02235174447
$SILENCE,1428.6788020943168,-7964.105363381549,6494.433461956199,12067.595072698006,-187500.02235174447,-187500.02235174447,-187500.02235174447,-187500.02235174447
$SILENCE,1451.768154116649,-8002.885640011506,6412.067283638392,12051.680630645827,-187500.02235174447,-187500.02235174447,-187500.02235174447,-187500.02235174447
$SILENCE,1723.0512765707108,-7949.733191696787,6974.839505534113,11991.688548527783,-187500.02235174447,-187500.02235174447,-187500.02235174447,-187500.02235174447
$SILENCE,1708.634401397038,-7914.819766857597,7072.15900089252,12004.85372601196,-187500.02235174447,-187500.02235174447,-187500.02235174447,-187500.02235174447
$SILENCE,1469.6271979364394,-7956.438715033379,6588.422547390765,12060.598976683495,-187500.02235174447,-187500.02235174447,-187500.02235174447,-187500.02235174447
$SILENCE,1423.7837700586047,-8006.886602269006,6361.708803380586,12063.080020318035,-187500.02235174447,-187500.02235174447,-187500.02235174447,-187500.02235174447
$SILENCE,1686.1932499639095,-7961.423154046912,6884.963141079324,11999.04227245358,-187500.02235174447,-187500.02235174447,-187500.02235174447,-187500.02235174447
$SILENCE,1725.4205614829734,-7909.94708656634,7105.2619344308305,12001.165688176834,-187500.02235174447,-187500.02235174447,-187500.02235174447,-187500.02235174447
$SILENCE,1498.416244794875,-7939.272575291703,6680.578789779996,12059.280223760632,-187500.02235174447,-187500.02235174447,-187500.02235174447,-187500.02235174447
$SILENCE,1388.3339033524876,-7996.873020753029,6326.236584930013,12081.408450771387,-187500.02235174447,-187500.02235174447,-187500.02235174447,-187500.02235174447
$SILENCE,1634.046630149678,-7967.905159938951,6776.62423570445,12021.863403542447,-187500.02235174447,-187500.02235174447,-187500.02235174447,-187500.02235174447
$SILENCE,1740.2844715457527,-7909.812976099608,7117.108358992143,12005.345464389977,-187500.02235174447,-187500.02235174447,-187500.02235174447,-187500.02235174447
$SILENCE,1545.9137017624023,-7928.789607142164,6778.591189216518,12050.920671334348,-187500.02235174447,-187500.02235174447,-187500.02235174447,-187500.02235174447
$SILENCE,1379.124984636901,-7990.346311372079,6332.360962910768,12084.113011850479,-187500.02235174447,-187500.02235174447,-187500.02235174447,-187500.02235174447
$SILENCE,1586.8844493489803,-7982.903180468462,6668.84412394096,12028.457168156763,-187500.02235174447,-187500.02235174447,-187500.02235174447,-187500.02235174447
$SILENCE,1755.9306926644676,-7920.720627393798,7114.515556635328,11993.968426462225,-187500.02235174447,-187500.02235174447,-187500.02235174447,-187500.02235174447
$SILENCE,1595.6239814310052,-7925.012162329217,6872.1108880175225,12035.52031940464,-187500.02235174447,-187500.02235174447,-187500.02235174447,-187500.02235174447
$SILENCE,1390.971409198214,-7986.591218303588,6370.73890814053,12079.016814114668,-187500.02235174447,-187500.02235174447,-187500.02235174447,-187500.02235174447
$SILENCE,1540.281062159665,-7994.615494563043,6570.451744848699,12037.107293260968,-187500.02235174447,-187500.02235174447,-187500.02235174447,-187500.02235174447
$SILENCE,1753.851980430124,-7928.253165275236,7084.698329531948,11993.320225873022,-187500.02235174447,-187500.02235174447,-187500.02235174447,-187500.02235174447
$SILENCE,1638.6510895074714,-7918.3513424815355,6953.2924238791975,12025.57379312203,-187500.02235174447,-187500.02235174447,-187500.02235174447,-187500.02235174447
$SILENCE,1410.864461763437,-7975.929436198407,6429.903975713727,12078.14509608091,-187500.02235174447,-187500.02235174447,-187500.02235174447,-187500.02235174447
$SILENCE,1496.181070349344,-8002.326846400124,6474.205133224146,12047.43379919932,-187500.02235174447,-187500.02235174447,-187500.02235174447,-187500.02235174447
$SILENCE,1738.6527942005152,-7939.183168313882,7030.808273650203,11990.727423516206,-187500.02235174447,-187500.02235174447,-187500.02235174447,-187500.02235174447
$SILENCE,1678.8171742936581,-7914.3056767351245,7029.623631194071,12019.605877352462,-187500.02235174447,-187500.02235174447,-187500.02235174447,-187500.02235174447
$SILENCE,1440.3017092110765,-7964.641805248476,6510.616124941841,12070.165523310367,-187500.02235174447,-187500.02235174447,-187500.02235174447,-187500.02235174447
$SILENCE,1448.3036337260764,-8006.05958772416,6395.795213674929,12053.357011479977,-187500.02235174447,-187500.02235174447,-187500.02235174447,-187500.02235174447
$SILENCE,1716.4575119563954,-7952.013069631228,6957.718069281348,11993.074356684012,-187500.02235174447,-187500.02235174447,-187500.02235174447,-187500.02235174447
$SILENCE,1714.5129101887835,-7913.880993590474,7080.965588207911,12003.870249255926,-187500.02235174447,-187500.02235174447,-187500.02235174447,-187500.02235174447
$SILENCE,1474.9022096278918,-7953.421229531912,6607.2650679665885,12057.156808037378,-187500.02235174447,-187500.02235174447,-187500.02235174447,-187500.02235174447
$SILENCE,1414.6642583208393,-8006.037235979705,6352.723402109552,12065.650470930395,-187500.02235174447,-187500.02235174447,-187500.02235174447,-187500.02235174447
$SILENCE,1681.2535144392866,-7966.362889571535,6868.400498437942,12006.194830679278,-187500.02235174447,-187500.02235174447,-187500.02235174447,-187500.02235174447
$SILENCE,1740.5079889903056,-7914.797415113141,7115.342571180174,12001.61272306594,-187500.02235174447,-187500.02235174447,-187500.02235174447,-187500.02235174447
$SILENCE,1519.53864330514,-7941.66421194842,6709.971333738725,12052.1947207683,-187500.02235174447,-187500.02235174447,-187500.02235174447,-187500.02235174447
$SILENCE,1394.5253365666076,-7999.845802765585,6336.853663546284,12072.423049500352,-187500.02235174447,-187500.02235174447,-187500.02235174447,-187500.02235174447
$SILENCE,1632.8396359490916,-7975.2365321202915,6763.615520431462,12011.603952837462,-187500.02235174447,-187500.02235174447,-187500.02235174447,-187500.02235174447
$SILENCE,1748.398154783029,-7914.752711624231,7128.284231219796,11994.437813095787,-187500.02235174447,-187500.02235174447,-187500.02235174447,-187500.02235174447
$SILENCE,1554.2956059331425,-7926.956764096829,6806.374407574464,12043.477540430731,-187500.02235174447,-187500.02235174447,-187500.02235174447,-187500.02235174447
$SILENCE,1378.7897084700714,-7989.474593338323,6349.035364274427,12080.380270526442,-187500.02235174447,-187500.02235174447,-187500.02235174447,-187500.02235174447
$SILENCE,1583.2411150027651,-7986.881790981507,6658.495266258153,12024.81383381055,-187500.02235174447,-187500.02235174447,-187500.02235174447,-187500.02235174447
$SILENCE,1764.4243555574842,-7925.481548962778,7119.12001599312,11985.631225780395,-187500.02235174447,-187500.02235174447,-187500.02235174447,-187500.02235174447
$SILENCE,1613.2595078062425,-7926.017990829706,6904.2750482887095,12023.89741228788,-187500.02235174447,-187500.02235174447,-187500.02235174447,-187500.02235174447
$SILENCE,1409.2327844181998,-7988.513468326744,6393.805908418407,12067.460962231275,-187500.02235174447,-187500.02235174447,-187500.02235174447,-187500.02235174447
$SILENCE,1562.8339723150698,-8004.450262123378,6554.716116752162,12025.596144866484,-187500.02235174447,-187500.02235174447,-187500.02235174447,-187500.02235174447
$SILENCE,1790.3300273811851,-7940.278403792192,7085.145364421054,11978.635129765884,-187500.02235174447,-187500.02235174447,-187500.02235174447,-187500.02235174447
$SILENCE,1685.5674011191609,-7925.638011173965,6989.0999184965995,12015.04612148358,-187500.02235174447,-187500.02235174447,-187500.02235174447,-187500.02235174447
$SILENCE,1446.4931424251965,-7979.840991478085,6462.246949940557,12072.1995320558,-187500.02235174447,-187500.02235174447,-187500.02235174447,-187500.02235174447
$SILENCE,1508.3627710774865,-8010.77580580423,6464.996214508559,12046.316211976555,-187500.02235174447,-187500.02235174447,-187500.02235174447,-187500.02235174447
$SILENCE,1758.5011432768279,-7947.855645162541,7028.81896839368,11988.648711281861,-187500.02235174447,-187500.02235174447,-187500.02235174447,-187500.02235174447
$SILENCE,1706.980372307345,-7916.965534325306,7050.857788426613,12002.66325505534,-187500.02235174447,-187500.02235174447,-187500.02235174447,-187500.02235174447
$SILENCE,1464.285131011621,-7962.831313947597,6542.087381134914,12058.944947593804,-187500.02235174447,-187500.02235174447,-187500.02235174447,-187500.02235174447
$SILENCE,1456.9090553413696,-8006.73014005782,6397.561001486898,12051.948851579291,-187500.02235174447,-187500.02235174447,-187500.02235174447,-187500.02235174447
$SILENCE,1723.1183318040767,-7956.416363288923,6951.459580833863,11990.570961305018,-187500.02235174447,-187500.02235174447,-187500.02235174447,-187500.02235174447
$SILENCE,1731.1202563190766,-7913.813938357108,7096.611809326627,11993.454336339753,-187500.02235174447,-187500.02235174447,-187500.02235174447,-187500.02235174447
$SILENCE,1497.991561650224,-7949.397915529957,6636.724667158684,12048.037296299613,-187500.02235174447,-187500.02235174447,-187500.02235174447,-187500.02235174447
$SILENCE,1423.7614183141493,-8006.216049935348,6356.523198666954,12059.235520271723,-187500.02235174447,-187500.02235174447,-187500.02235174447,-187500.02235174447
$SILENCE,1689.590715121116,-7972.666081507931,6855.369431420498,11993.543743317574,-187500.02235174447,-187500.02235174447,-187500.02235174447,-187500.02235174447
$SILENCE,1758.0988118766322,-7919.871261104497,7124.9314695515,11979.685661755284,-187500.02235174447,-187500.02235174447,-187500.02235174447,-187500.02235174447
$SILENCE,1547.1653994518995,-7944.726400938797,6735.80995032906,12031.854633313971,-187500.02235174447,-187500.02235174447,-187500.02235174447,-187500.02235174447
$SILENCE,1409.0092669736466,-8004.003227234272,6343.358021182778,12061.314232506065,-187500.02235174447,-187500.02235174447,-187500.02235174447,-187500.02235174447
$SILENCE,1645.8930547109908,-7985.227761891814,6748.304575479577,12001.18803992129,-187500.02235174447,-187500.02235174447,-187500.02235174447,-187500.02235174447
$SILENCE,1780.5176115653053,-7925.660362918421,7135.2579754898525,11979.484496055185,-187500.02235174447,-187500.02235174447,-187500.02235174447,-187500.02235174447
$SILENCE,1596.6521616759494,-7935.0257438451945,6836.057524211112,12027.853671056471,-187500.02235174447,-187500.02235174447,-187500.02235174447,-187500.02235174447
$SILENCE,1404.3377523824875,-7993.788480018196,6357.506675422987,12061.560101695073,-187500.02235174447,-187500.02235174447,-187500.02235174447,-187500.02235174447
$SILENCE,1587.4879464492735,-7992.067395695138,6634.400085735332,12008.854688269459,-187500.02235174447,-187500.02235174447,-187500.02235174447,-187500.02235174447
$SILENCE,1774.5720475401936,-7928.18611004187,7114.068521746221,11973.516580285619,-187500.02235174447,-187500.02235174447,-187500.02235174447,-187500.02235174447
$SILENCE,1633.241967349287,-7924.788644884664,6923.452845031363,12015.180231950311,-187500.02235174447,-187500.02235174447,-187500.02235174447,-187500.02235174447
$SILENCE,1415.580679843507,-7984.400747346967,6410.994399904537,12066.231616286233,-187500.02235174447,-187500.02235174447,-187500.02235174447,-187500.02235174447
$SILENCE,1539.92343424838,-8001.969218488839,6537.974660155137,12027.04900825608,-187500.02235174447,-187500.02235174447,-187500.02235174447,-187500.02235174447
$SILENCE,1771.9121899500121,-7938.602022958044,7074.170657893498,11974.522408786108,-187500.02235174447,-187500.02235174447,-187500.02235174447,-187500.02235174447
$SILENCE,1682.2593429397755,-7920.273592504692,6997.817098834169,12003.46791785573,-187500.02235174447,-187500.02235174447,-187500.02235174447,-187500.02235174447
$SILENCE,1442.9168633123475,-7971.324976840613,6474.763926835529,12059.794313883105,-187500.02235174447,-187500.02235174447,-187500.02235174447,-187500.02235174447
$SILENCE,1494.3929307929195,-8003.913820256451,6444.767885776507,12035.274450215633,-187500.02235174447,-187500.02235174447,-187500.02235174447,-187500.02235174447
$SILENCE,1757.2941490762412,-7946.849816662052,7011.138738529532,11977.539894287574,-187500.02235174447,-187500.02235174447,-187500.02235174447,-187500.02235174447
$SILENCE,1717.8656718570796,-7916.943182580851,7064.157076377521,11996.13654567439,-187500.02235174447,-187500.02235174447,-187500.02235174447,-187500.02235174447
$SILENCE,1471.8400206375147,-7958.472723778811,6562.874503478349,12053.893453346904,-187500.02235174447,-187500.02235174447,-187500.02235174447,-187500.02235174447
$SILENCE,1450.4941046826966,-8003.623247578532,6382.0935943238255,12053.312307991066,-187500.02235174447,-187500.02235174447,-187500.02235174447,-187500.02235174447
$SILENCE,1719.698514902415,-7955.768162699719,6925.665667732438,11994.884847984893,-187500.02235174447,-187500.02235174447,-187500.02235174447,-187500.02235174447
$SILENCE,1740.6644512014927,-7910.751749366731,7104.233754185886,12000.383377120897,-187500.02235174447,-187500.02235174447,-187500.02235174447,-187500.02235174447
$SILENCE,1509.6591722558944,-7944.18995907187,6656.595367979452,12054.541653936107,-187500.02235174447,-187500.02235174447,-187500.02235174447,-187500.02235174447
$SILENCE,1416.8547292774595,-7998.616456820543,6343.268614204957,12066.991575597713,-187500.02235174447,-187500.02235174447,-187500.02235174447,-187500.02235174447
$SILENCE,1669.6306073225269,-7965.066488393127,6824.658134538906,12001.702130043761,-187500.02235174447,-187500.02235174447,-187500.02235174447,-187500.02235174447
$SILENCE,1751.2144745843977,-7909.410644699413,7126.160815496542,11992.962597961736,-187500.02235174447,-187500.02235174447,-187500.02235174447,-187500.02235174447
$SILENCE,1543.2761959166762,-7931.337706010068,6753.154904026378,12044.438665442309,-187500.02235174447,-187500.02235174447,-187500.02235174447,-187500.02235174447
$SILENCE,1397.967505212725,-7991.86622999504,6337.524215879944,12074.010023356679,-187500.02235174447,-187500.02235174447,-187500.02235174447,-187500.02235174447
$SILENCE,1626.6705544794268,-7977.941093199384,6719.157900709856,12017.258944184656,-187500.02235174447,-187500.02235174447,-187500.02235174447,-187500.02235174447
$SILENCE,1769.4758498043836,-7915.356208724525,7126.540795152283,11989.498077571163,-187500.02235174447,-187500.02235174447,-187500.02235174447,-187500.02235174447
$SILENCE,1593.634676174483,-7921.61469717201,6849.647384839939,12033.709828103762,-187500.02235174447,-187500.02235174447,-187500.02235174447,-187500.02235174447
$SILENCE,1394.257115633144,-7980.042157178183,6364.301605737402,12077.765116425171,-187500.02235174447,-187500.02235174447,-187500.02235174447,-187500.02235174447
$SILENCE,1569.1818677403771,-7984.087822924594,6609.947277301226,12029.2394792127,-187500.02235174447,-187500.02235174447,-187500.02235174447,-187500.02235174447
$SILENCE,1765.5195910357943,-7918.753673881731,7102.400911140551,11987.75464150365,-187500.02235174447,-187500.02235174447,-187500.02235174447,-187500.02235174447
