WORD,Channel_1,Channel_2,Channel_3,Channel_4,Channel_5,Channel_6,Channel_7,Channel_8
$SILENCE,35147.492307125605,-6641.17266430529,16791.45744937151,13117.054178363584,-187500.02235174447,-187500.02235174447,-187500.02235174447,-187500.02235174447
$SILENCE,35161.73036834364,-6631.516710700597,16773.419591596077,13171.123048200972,-187500.02235174447,-187500.02235174447,-187500.02235174447,-187500.02235174447
$SILENCE,34995.43338959615,-6629.16977753279,16453.700238907368,13231.316296019113,-187500.02235174447,-187500.02235174447,-187500.02235174447,-187500.02235174447
$SILENCE,34978.937802188135,-6609.299076712022,16458.05882907615,13211.84792659854,-187500.02235174447,-187500.02235174447,-187500.02235174447,-187500.02235174447
$SILENCE,35145.190077446714,-6618.083312282957,16782.494399844934,13129.951134914296,-187500.02235174447,-187500.02235174447,-187500.02235174447,-187500.02235174447
$SILENCE,35151.51562112756,-6665.647824483851,16799.749946564432,13131.292239581615,-187500.02235174447,-187500.02235174447,-187500.02235174447,-187500.02235174447
$SILENCE,35016.77930555097,-6638.624565437385,16523.61649556357,13225.393083738458,-187500.02235174447,-187500.02235174447,-187500.02235174447,-187500.02235174447
$SILENCE,34941.38687150322,-6639.608042193418,16384.543941562646,13196.559333391111,-187500.02235174447,-187500.02235174447,-187500.02235174447,-187500.02235174447
$SILENCE,35102.58765251489,-6637.685792170262,16709.091271053705,13124.117329611461,-187500.02235174447,-187500.02235174447,-187500.02235174447,-187500.02235174447
$SILENCE,35204.466903742185,-6614.931716314759,16847.58267969879,13155.432123593346,-187500.02235174447,-187500.02235174447,-187500.02235174447,-187500.02235174447
$SILENCE,35076.86079464684,-6603.219402220178,16570.599862408624,13232.120958819505,-187500.02235174447,-187500.02235174447,-187500.02235174447,-187500.02235174447
$SILENCE,34925.98651957351,-6632.410780478809,16359.912319172898,13206.170583506893,-187500.02235174447,-187500.02235174447,-187500.02235174447,-187500.02235174447
$SILENCE,35045.59070415386,-6661.289234315066,16640.650229531555,13114.662541706866,-187500.02235174447,-187500.02235174447,-187500.02235174447,-187500.02235174447
$SILENCE,35170.715769614675,-6655.567187734508,16833.56813592531,13125.346675556502,-187500.02235174447,-187500.02235174447,-187500.02235174447,-187500.02235174447
$SILENCE,35093.244623332575,-6619.290306483545,16628.20030786995,13216.340627234058,-187500.02235174447,-187500.02235174447,-187500.02235174447,-187500.02235174447
$SILENCE,34965.794976448415,-6602.235925464145,16402.62650282699,13249.980002639295,-187500.02235174447,-187500.02235174447,-187500.02235174447,-187500.02235174447
$SILENCE,35063.15917529573,-6625.995829820136,16659.69391580748,13157.756705016698,-187500.02235174447,-187500.02235174447,-187500.02235174447,-187500.02235174447
$SILENCE,35161.17157473225,-6654.606062722929,16830.08126379028,13100.647997933389,-187500.02235174447,-187500.02235174447,-187500.02235174447,-187500.02235174447
$SILENCE,35080.34766678187,-6643.251376539633,16630.569592782213,13172.374745890469,-187500.02235174447,-187500.02235174447,-187500.02235174447,-187500.02235174447
$SILENCE,34923.57253117234,-6648.280519042078,16346.61303122199,13207.288170729658,-187500.02235174447,-187500.02235174447,-187500.02235174447,-187500.02235174447
$SILENCE,35001.44600885463,-6647.609966708418,16529.405597377492,13154.739219515232,-187500.02235174447,-187500.02235174447,-187500.02235174447,-187500.02235174447
$SILENCE,35171.72159811516,-6645.8888823853595,16832.294086491358,13113.455547506279,-187500.02235174447,-187500.02235174447,-187500.02235174447,-187500.02235174447
$SILENCE,35139.71390005516,-6633.88599561286,16731.934753887028,13178.02973723766,-187500.02235174447,-187500.02235174447,-187500.02235174447,-187500.02235174447
$SILENCE,34976.30029634241,-6615.088178525946,16426.811090327632,13249.33180205009,-187500.02235174447,-187500.02235174447,-187500.02235174447,-187500.02235174447
$SILENCE,34992.84058723934,-6617.412759949299,16496.347367328093,13189.093850743038,-187500.02235174447,-187500.02235174447,-187500.02235174447,-187500.02235174447
$SILENCE,35161.23862996562,-6636.188225291757,16814.591504882756,13121.859803421476,-187500.02235174447,-187500.02235174447,-187500.02235174447,-187500.02235174447
$SILENCE,35164.5019846561,-6636.970536347692,16783.254359156414,13163.03171670815,-187500.02235174447,-187500.02235174447,-187500.02235174447,-187500.02235174447
$SILENCE,34995.8133692519,-6633.9754025906805,16462.462122733847,13220.699217402842,-187500.02235174447,-187500.02235174447,-187500.02235174447,-187500.02235174447
$SILENCE,34984.10105515731,-6616.988076804648,16464.674945434923,13211.378539964979,-187500.02235174447,-187500.02235174447,-187500.02235174447,-187500.02235174447
$SILENCE,35126.01228070406,-6641.798513150038,16777.442905598033,13119.289352809115,-187500.02235174447,-187500.02235174447,-187500.02235174447,-187500.02235174447
$SILENCE,35178.6506388963,-6637.350516003432,16817.69839736204,13150.425332835357,-187500.02235174447,-187500.02235174447,-187500.02235174447,-187500.02235174447
$SILENCE,35030.01153826851,-6615.266992481589,16510.47366982385,13227.672961672899,-187500.02235174447,-187500.02235174447,-187500.02235174447,-187500.02235174447
$SILENCE,34955.75904318798,-6601.051283008013,16415.791680311166,13219.581630180077,-187500.02235174447,-187500.02235174447,-187500.02235174447,-187500.02235174447
$SILENCE,35107.303870594966,-6619.156196016812,16736.002771377895,13132.298068082104,-187500.02235174447,-187500.02235174447,-187500.02235174447,-187500.02235174447
$SILENCE,35161.66331311027,-6647.7664289196055,16811.842240314752,13121.21160283227,-187500.02235174447,-187500.02235174447,-187500.02235174447,-187500.02235174447
$SILENCE,35026.189389966654,-6674.476763543697,16529.964390988873,13179.326138416069,-187500.02235174447,-187500.02235174447,-187500.02235174447,-187500.02235174447
$SILENCE,34920.62210090424,-6652.907330144326,16356.648964482423,13203.130746260971,-187500.02235174447,-187500.02235174447,-187500.02235174447,-187500.02235174447
$SILENCE,35051.64802690125,-6647.0064696081245,16650.06031394724,13133.661524493877,-187500.02235174447,-187500.02235174447,-187500.02235174447,-187500.02235174447
$SILENCE,35185.244403510624,-6637.059943325513,16856.255156547446,13134.846166950008,-187500.02235174447,-187500.02235174447,-187500.02235174447,-187500.02235174447
$SILENCE,35109.65080376277,-6615.110530270402,16654.262441904837,13222.733226148275,-187500.02235174447,-187500.02235174447,-187500.02235174447,-187500.02235174447
$SILENCE,34941.76685115896,-6616.921021571282,16383.605168295524,13236.90423213294,-187500.02235174447,-187500.02235174447,-187500.02235174447,-187500.02235174447
$SILENCE,35044.69663437565,-6613.948239558726,16644.606488300145,13167.4573621103,-187500.02235174447,-187500.02235174447,-187500.02235174447,-187500.02235174447
$SILENCE,35178.33771447393,-6636.054114825024,16857.551557725856,13117.657675463877,-187500.02235174447,-187500.02235174447,-187500.02235174447,-187500.02235174447
$SILENCE,35082.627544716306,-6645.374792262887,16635.129348651095,13158.069629439073,-187500.02235174447,-187500.02235174447,-187500.02235174447,-187500.02235174447
$SILENCE,34943.01854884846,-6619.335009972455,16364.628537252967,13229.595211696054,-187500.02235174447,-187500.02235174447,-187500.02235174447,-187500.02235174447
$SILENCE,35001.40130536572,-6634.802417135527,16527.50569909879,13160.863597495985,-187500.02235174447,-187500.02235174447,-187500.02235174447,-187500.02235174447
$SILENCE,35154.46605139566,-6653.309661544521,16823.375740453692,13112.673236450344,-187500.02235174447,-187500.02235174447,-187500.02235174447,-187500.02235174447
$SILENCE,35130.14735342829,-6651.141542332357,16734.013466121374,13166.183312676349,-187500.02235174447,-187500.02235174447,-187500.02235174447,-187500.02235174447
$SILENCE,34970.622953250764,-6630.063847311002,16414.763500066223,13225.035455827172,-187500.02235174447,-187500.02235174447,-187500.02235174447,-187500.02235174447
$SILENCE,34957.971865889056,-6627.068713553991,16467.558320469656,13170.832475523053,-187500.02235174447,-187500.02235174447,-187500.02235174447,-187500.02235174447
$SILENCE,35162.71384509967,-6621.369018717888,16827.354350966736,13125.681951723333,-187500.02235174447,-187500.02235174447,-187500.02235174447,-187500.02235174447
$SILENCE,35202.25408104111,-6597.832631806449,16820.09003401876,13196.112298502005,-187500.02235174447,-187500.02235174447,-187500.02235174447,-187500.02235174447
$SILENCE,34995.723962274074,-6619.200899505723,16472.96744262784,13236.792473410664,-187500.02235174447,-187500.02235174447,-187500.02235174447,-187500.02235174447
$SILENCE,34909.26741472095,-6678.0530426565465,16400.614845826014,13160.349507373514,-187500.02235174447,-187500.02235174447,-187500.02235174447,-187500.02235174447
$SILENCE,35105.18045487171,-6667.614777995918,16737.07565511175,13090.701471650777,-187500.02235174447,-187500.02235174447,-187500.02235174447,-187500.02235174447
$SILENCE,35172.77213010456,-6632.723704901184,16806.299007689835,13137.729541984743,-187500.02235174447,-187500.02235174447,-187500.02235174447,-187500.02235174447
$SILENCE,35034.12425924829,-6604.0911202539355,16521.202507162394,13235.09374083206,-187500.02235174447,-187500.02235174447,-187500.02235174447,-187500.02235174447
$SILENCE,34927.72995564103,-6638.825731137483,16377.05610717012,13190.390251921446,-187500.02235174447,-187500.02235174447,-187500.02235174447,-187500.02235174447
$SILENCE,35086.49439650708,-6648.928719631282,16706.185544274515,13101.11738456695,-187500.02235174447,-187500.02235174447,-187500.02235174447,-187500.02235174447
$SILENCE,35206.05387759851,-6606.750977844117,16870.515569509935,13151.364106102481,-187500.02235174447,-187500.02235174447,-187500.02235174447,-187500.02235174447
$SILENCE,35067.383654997786,-6611.377788946365,16575.740763633345,13216.89942084544,-187500.02235174447,-187500.02235174447,-187500.02235174447,-187500.02235174447
$SILENCE,34923.10314453878,-6638.423399737287,16361.164016862396,13204.605961395022,-187500.02235174447,-187500.02235174447,-187500.02235174447,-187500.02235174447
$SILENCE,35071.295210277465,-6643.474893984187,16680.05635500626,13133.169786115861,-187500.02235174447,-187500.02235174447,-187500.02235174447,-187500.02235174447
$SILENCE,35198.610746694896,-6649.129885331379,16865.79935142986,13126.821890690553,-187500.02235174447,-187500.02235174447,-187500.02235174447,-187500.02235174447
$SILENCE,35067.98715209808,-6651.387411521365,16596.77375516579,13182.74595531773,-187500.02235174447,-187500.02235174447,-187500.02235174447,-187500.02235174447
$SILENCE,34923.41606896115,-6628.990963577147,16347.462397511292,13213.926638832885,-187500.02235174447,-187500.02235174447,-187500.02235174447,-187500.02235174447
$SILENCE,35036.046509271444,-6632.299021756533,16603.792202924753,13144.591527532522,-187500.02235174447,-187500.02235174447,-187500.02235174447,-187500.02235174447
$SILENCE,35202.05291534101,-6614.037646536547,16867.878063664208,13127.69360872431,-187500.02235174447,-187500.02235174447,-187500.02235174447,-187500.02235174447
$SILENCE,35114.09880090938,-6628.052190310024,16676.457724148957,13172.620615079477,-187500.02235174447,-187500.02235174447,-187500.02235174447,-187500.02235174447
$SILENCE,34966.577287504355,-6620.877280339871,16402.984130738274,13232.81386289762,-187500.02235174447,-187500.02235174447,-187500.02235174447,-187500.02235174447
$SILENCE,35003.748238533524,-6642.334955016966,16551.198548221415,13155.186254404338,-187500.02235174447,-187500.02235174447,-187500.02235174447,-187500.02235174447
$SILENCE,35165.66427536777,-6661.333937803976,16827.779034111387,13095.574151942033,-187500.02235174447,-187500.02235174447,-187500.02235174447,-187500.02235174447
$SILENCE,35144.832449535425,-6641.619699194396,16727.50910848488,13159.83541725104,-187500.02235174447,-187500.02235174447,-187500.02235174447,-187500.02235174447
$SILENCE,34980.32361034436,-6622.196033262734,16409.130860463483,13226.778891894686,-187500.02235174447,-187500.02235174447,-187500.02235174447,-187500.02235174447
$SILENCE,34974.93683993064,-6630.667344411296,16474.420306017437,13170.854827267507,-187500.02235174447,-187500.02235174447,-187500.02235174447,-187500.02235174447
$SILENCE,35181.71282788668,-6606.549812144019,16847.873252376707,13131.113425625972,-187500.02235174447,-187500.02235174447,-187500.02235174447,-187500.02235174447
$SILENCE,35209.89837764482,-6593.339931170933,16853.170615812614,13190.099679243527,-187500.02235174447,-187500.02235174447,-187500.02235174447,-187500.02235174447
$SILENCE,34960.72113045706,-6667.435964040275,16433.136634008486,13182.544789617634,-187500.02235174447,-187500.02235174447,-187500.02235174447,-187500.02235174447
$SILENCE,34925.673595151144,-6656.08127785698,16386.823819497087,13159.053106195106,-187500.02235174447,-187500.02235174447,-187500.02235174447,-187500.02235174447
$SILENCE,35118.36798410034,-6644.659536440317,16758.3545158332,13101.78793690061,-187500.02235174447,-187500.02235174447,-187500.02235174447,-187500.02235174447
$SILENCE,35204.399848508816,-6610.908402312804,16868.23569157549,13167.524417343668,-187500.02235174447,-187500.02235174447,-187500.02235174447,-187500.02235174447
$SILENCE,35042.349701207844,-6617.837443093949,16558.37345819157,13224.946048849351,-187500.02235174447,-187500.02235174447,-187500.02235174447,-187500.02235174447
$SILENCE,34950.26051405198,-6612.115396513391,16388.72371777579,13199.398004936935,-187500.02235174447,-187500.02235174447,-187500.02235174447,-187500.02235174447
$SILENCE,35068.635352687284,-6661.870379670904,16670.556863612757,13077.5362941666,-187500.02235174447,-187500.02235174447,-187500.02235174447,-187500.02235174447
$SILENCE,35188.86538611238,-6653.264958055611,16846.353333753745,13114.237858562215,-187500.02235174447,-187500.02235174447,-187500.02235174447,-187500.02235174447
$SILENCE,35060.23109677209,-6636.478797969676,16576.6124816671,13197.609865380511,-187500.02235174447,-187500.02235174447,-187500.02235174447,-187500.02235174447
$SILENCE,34927.37232772975,-6624.744132130639,16354.100865614519,13201.454365426824,-187500.02235174447,-187500.02235174447,-187500.02235174447,-187500.02235174447
$SILENCE,35072.32339052241,-6633.88599561286,16663.359601898148,13123.223259833248,-187500.02235174447,-187500.02235174447,-187500.02235174447,-187500.02235174447
$SILENCE,35227.48920053115,-6603.085291753447,16900.35514835777,13149.106579912494,-187500.02235174447,-187500.02235174447,-187500.02235174447,-187500.02235174447
$SILENCE,35119.463219578654,-6594.099890482413,16657.928127995507,13211.467946942801,-187500.02235174447,-187500.02235174447,-187500.02235174447,-187500.02235174447
$SILENCE,34900.170254727636,-6661.490400015164,16322.875478610455,13174.65462382491,-187500.02235174447,-187500.02235174447,-187500.02235174447,-187500.02235174447
$SILENCE,35014.92411076118,-6656.036574368069,16577.439496211948,13111.712111438765,-187500.02235174447,-187500.02235174447,-187500.02235174447,-187500.02235174447
$SILENCE,35187.77015063407,-6639.272766026588,16865.776999685408,13108.761681170665,-187500.02235174447,-187500.02235174447,-187500.02235174447,-187500.02235174447
$SILENCE,35126.749888271086,-6618.9997338056255,16716.26618102386,13187.059841997605,-187500.02235174447,-187500.02235174447,-187500.02235174447,-187500.02235174447
$SILENCE,34972.232278851545,-6606.058073766002,16432.39902644146,13246.537833993178,-187500.02235174447,-187500.02235174447,-187500.02235174447,-187500.02235174447
$SILENCE,35002.228319910566,-6633.573071190485,16537.74279805932,13152.705210769798,-187500.02235174447,-187500.02235174447,-187500.02235174447,-187500.02235174447
$SILENCE,35178.0024383071,-6630.466178711197,16832.204679513536,13104.850125890986,-187500.02235174447,-187500.02235174447,-187500.02235174447,-187500.02235174447
$SILENCE,35164.01024627808,-6619.782044861561,16749.771445962364,13166.965623732285,-187500.02235174447,-187500.02235174447,-187500.02235174447,-187500.02235174447
$SILENCE,34990.04661918242,-6606.97449528867,16425.29117170467,13227.516499461712,-187500.02235174447,-187500.02235174447,-187500.02235174447,-187500.02235174447
$SILENCE,34980.971810933566,-6611.891879068838,16485.998509645284,13173.626443579966,-187500.02235174447,-187500.02235174447,-187500.02235174447,-187500.02235174447
$SILENCE,35134.416536619254,-6651.74503943265,16818.167783995603,13087.974558827229,-187500.02235174447,-187500.02235174447,-187500.02235174447,-187500.02235174447
$SILENCE,35169.26290622508,-6639.965670104703,16810.098804247238,13144.725637999254,-187500.02235174447,-187500.02235174447,-187500.02235174447,-187500.02235174447
$SILENCE,34978.311953343386,-6643.117266072902,16428.465119417324,13193.430089167368,-187500.02235174447,-187500.02235174447,-187500.02235174447,-187500.02235174447
$SILENCE,34933.228484777035,-6639.78685614906,16393.10465968903,13161.869425996474,-187500.02235174447,-187500.02235174447,-187500.02235174447,-187500.02235174447
$SILENCE,35125.47583883713,-6641.0162020941025,16769.55273980531,13098.88221012142,-187500.02235174447,-187500.02235174447,-187500.02235174447,-187500.02235174447
$SILENCE,35214.815761424994,-6595.642160849829,16860.077304849303,13166.563292332088,-187500.02235174447,-187500.02235174447,-187500.02235174447,-187500.02235174447
$SILENCE,35070.870527132814,-6581.225285676156,16549.03042900925,13242.983906624784,-187500.02235174447,-187500.02235174447,-187500.02235174447,-187500.02235174447
$SILENCE,34888.0332574884,-6662.473876771197,16343.282621298149,13154.023963692662,-187500.02235174447,-187500.02235174447,-187500.02235174447,-187500.02235174447
$SILENCE,35068.85887013184,-6645.486550985164,16708.15249778658,13100.603294444478,-187500.02235174447,-187500.02235174447,-187500.02235174447,-187500.02235174447
$SILENCE,35182.36102847588,-6637.238757281156,16868.14628459767,13125.950172656796,-187500.02235174447,-187500.02235174447,-187500.02235174447,-187500.02235174447
$SILENCE,35074.49150973457,-6607.443881922231,16592.795144652744,13209.500993430735,-187500.02235174447,-187500.02235174447,-187500.02235174447,-187500.02235174447
$SILENCE,34935.10603131128,-6619.625582650374,16356.872481926977,13202.348435205036,-187500.02235174447,-187500.02235174447,-187500.02235174447,-187500.02235174447
$SILENCE,35060.36520723882,-6641.865568383404,16643.466549332923,13113.701416695289,-187500.02235174447,-187500.02235174447,-187500.02235174447,-187500.02235174447
$SILENCE,35201.047086840525,-6636.724667158684,16866.693421208074,13113.723768439742,-187500.02235174447,-187500.02235174447,-187500.02235174447,-187500.02235174447
$SILENCE,35101.87239669233,-6615.825786092972,16644.181805155495,13191.75370833322,-187500.02235174447,-187500.02235174447,-187500.02235174447,-187500.02235174447
$SILENCE,34949.47820299604,-6605.745149343628,16371.065839656096,13221.056845314128,-187500.02235174447,-187500.02235174447,-187500.02235174447,-187500.02235174447
$SILENCE,35059.44878571615,-6592.579971859453,16626.121595635606,13167.256196410204,-187500.02235174447,-187500.02235174447,-187500.02235174447,-187500.02235174447
$SILENCE,35211.462999756695,-6606.303942955011,16914.97318923154,13133.92974542734,-187500.02235174447,-187500.02235174447,-187500.02235174447,-187500.02235174447
$SILENCE,35113.18237938671,-6648.615795208907,16684.236131219404,13150.738257257732,-187500.02235174447,-187500.02235174447,-187500.02235174447,-187500.02235174447
$SILENCE,34920.644452648696,-6655.701298201239,16329.75981590269,13186.255179197215,-187500.02235174447,-187500.02235174447,-187500.02235174447,-187500.02235174447
$SILENCE,34986.135063902744,-6649.956899876225,16504.21518137636,13136.299030339604,-187500.02235174447,-187500.02235174447,-187500.02235174447,-187500.02235174447
$SILENCE,35173.576792904954,-6642.625527694885,16845.682781420088,13104.35838751297,-187500.02235174447,-187500.02235174447,-187500.02235174447,-187500.02235174447
$SILENCE,35163.27263871105,-6616.272820982078,16764.233024624948,13163.858731252996,-187500.02235174447,-187500.02235174447,-187500.02235174447,-187500.02235174447
$SILENCE,35005.49167460104,-6588.489602624131,16451.174491783917,13237.686543188876,-187500.02235174447,-187500.02235174447,-187500.02235174447,-187500.02235174447
$SILENCE,34985.26334586899,-6608.2038412337115,16478.98006188632,13168.284376655147,-187500.02235174447,-187500.02235174447,-187500.02235174447,-187500.02235174447
$SILENCE,35130.035594706016,-6657.467086013208,16786.89769350263,13068.640299873388,-187500.02235174447,-187500.02235174447,-187500.02235174447,-187500.02235174447
$SILENCE,35147.20173444769,-6644.883053884871,16773.218425895982,13135.31555358357,-187500.02235174447,-187500.02235174447,-187500.02235174447,-187500.02235174447
$SILENCE,34988.32553485937,-6622.397198962832,16442.926698079908,13211.691464387353,-187500.02235174447,-187500.02235174447,-187500.02235174447,-187500.02235174447
$SILENCE,34949.61231346277,-6625.213518764201,16414.85290704404,13175.883969769951,-187500.02235174447,-187500.02235174447,-187500.02235174447,-187500.02235174447
$SILENCE,35136.40584187578,-6637.104646814424,16791.36804239369,13101.609122944967,-187500.02235174447,-187500.02235174447,-187500.02235174447,-187500.02235174447
$SILENCE,35201.672935685274,-6623.470082696686,16858.311517037335,13143.339829843026,-187500.02235174447,-187500.02235174447,-187500.02235174447,-187500.02235174447
$SILENCE,35048.20585825513,-6597.027969006058,16524.823489764152,13214.641894655455,-187500.02235174447,-187500.02235174447,-187500.02235174447,-187500.02235174447
$SILENCE,34959.67059846766,-6577.626654818851,16398.714947547312,13208.338702719058,-187500.02235174447,-187500.02235174447,-187500.02235174447,-187500.02235174447
$SILENCE,35098.072600134925,-6619.9385070727485,16734.147576588104,13115.69072195181,-187500.02235174447,-187500.02235174447,-187500.02235174447,-187500.02235174447
$SILENCE,35197.02377283857,-6648.83931265346,16877.221092846525,13118.93172489783,-187500.02235174447,-187500.02235174447,-187500.02235174447,-187500.02235174447
$SILENCE,35083.879242405805,-6613.344742458433,16593.689214430953,13209.746862619742,-187500.02235174447,-187500.02235174447,-187500.02235174447,-187500.02235174447
$SILENCE,34920.4432869486,-6637.819902636994,16341.114502085986,13192.714833344799,-187500.02235174447,-187500.02235174447,-187500.02235174447,-187500.02235174447
$SILENCE,35068.210669542634,-6643.78781840656,16652.49665409287,13110.371006771447,-187500.02235174447,-187500.02235174447,-187500.02235174447,-187500.02235174447
$SILENCE,35213.899339902324,-6623.581841418963,16883.211360360547,13113.634361461922,-187500.02235174447,-187500.02235174447,-187500.02235174447,-187500.02235174447
$SILENCE,35104.84517870488,-6605.253410965612,16646.573441812212,13190.971397277284,-187500.02235174447,-187500.02235174447,-187500.02235174447,-187500.02235174447
$SILENCE,34920.01860380395,-6620.519652428586,16347.350638789016,13195.218228723792,-187500.02235174447,-187500.02235174447,-187500.02235174447,-187500.02235174447
$SILENCE,35041.74620410755,-6609.097911011924,16613.135232107074,13145.93263219984,-187500.02235174447,-187500.02235174447,-187500.02235174447,-187500.02235174447
$SILENCE,35211.77592417907,-6620.094969283935,16907.15007867218,13117.635323719422,-187500.02235174447,-187500.02235174447,-187500.02235174447,-187500.02235174447
$SILENCE,35118.479742822616,-6642.2455480391445,16691.187523745004,13148.41367583438,-187500.02235174447,-187500.02235174447,-187500.02235174447,-187500.02235174447
$SILENCE,34949.2993890404,-6621.614887906896,16355.173749348372,13209.053958541628,-187500.02235174447,-187500.02235174447,-187500.02235174447,-187500.02235174447
$SILENCE,34983.11757840128,-6630.1532542888235,16495.27448359424,13136.880175695442,-187500.02235174447,-187500.02235174447,-187500.02235174447,-187500.02235174447
$SILENCE,35181.17638601975,-6629.460350210709,16846.75566515394,13098.16695429885,-187500.02235174447,-187500.02235174447,-187500.02235174447,-187500.02235174447
$SILENCE,35179.81292960798,-6598.324370184466,16779.767487021385,13170.31838540058,-187500.02235174447,-187500.02235174447,-187500.02235174447,-187500.02235174447
$SILENCE,34986.73856100304,-6605.543983643531,16421.401968169448,13220.609810425021,-187500.02235174447,-187500.02235174447,-187500.02235174447,-187500.02235174447
$SILENCE,34966.554935759894,-6622.061922796002,16450.861567361542,13157.667298038878,-187500.02235174447,-187500.02235174447,-187500.02235174447,-187500.02235174447
$SILENCE,35140.69737681119,-6648.79460916455,16790.764545293398,13084.152410525372,-187500.02235174447,-187500.02235174447,-187500.02235174447,-187500.02235174447
$SILENCE,35180.77405461956,-6630.712047900206,16797.5147721189,13143.138664142927,-187500.02235174447,-187500.02235174447,-187500.02235174447,-187500.02235174447
$SILENCE,35041.07565177389,-6592.848192792916,16490.893541680998,13238.33474377808,-187500.02235174447,-187500.02235174447,-187500.02235174447,-187500.02235174447
$SILENCE,35027.28462544497,-6550.871616705849,16503.768146487255,13241.486339746278,-187500.02235174447,-187500.02235174447,-187500.02235174447,-187500.02235174447
$SILENCE,35161.1492229878,-6615.915193070793,16789.13286794816,13104.939532868808,-187500.02235174447,-187500.02235174447,-187500.02235174447,-187500.02235174447
$SILENCE,35137.52342909854,-6698.840164999982,16755.426437309558,13055.25160494466,-187500.02235174447,-187500.02235174447,-187500.02235174447,-187500.02235174447
$SILENCE,35022.05431724242,-6633.483664212664,16481.4387537764,13187.261007697703,-187500.02235174447,-187500.02235174447,-187500.02235174447,-187500.02235174447
$SILENCE,34935.77658364494,-6623.2242135076785,16353.832644681055,13181.404850650413,-187500.02235174447,-187500.02235174447,-187500.02235174447,-187500.02235174447
$SILENCE,35118.680908522714,-6619.69263788374,16720.91534387056,13117.970599886252,-187500.02235174447,-187500.02235174447,-187500.02235174447,-187500.02235174447
$SILENCE,35250.77971825358,-6597.475003895164,16918.88474451122,13159.343678873025,-187500.02235174447,-187500.02235174447,-187500.02235174447,-187500.02235174447
$SILENCE,35062.689788662174,-6646.380620763376,16562.061496026694,13171.815952279087,-187500.02235174447,-187500.02235174447,-187500.02235174447,-187500.02235174447
$SILENCE,34935.41895573366,-6633.707181657217,16329.513946713681,13188.780926320664,-187500.02235174447,-187500.02235174447,-187500.02235174447,-187500.02235174447
$SILENCE,35066.400178241754,-6634.64595492434,16628.535584036777,13106.146527069393,-187500.02235174447,-187500.02235174447,-187500.02235174447,-187500.02235174447
$SILENCE,35218.392040537845,-6620.184376261756,16870.046182876373,13115.35544578498,-187500.02235174447,-187500.02235174447,-187500.02235174447,-187500.02235174447
$SILENCE,35136.33878664241,-6595.418643405276,16656.96700298393,13201.387310193457,-187500.02235174447,-187500.02235174447,-187500.02235174447,-187500.02235174447
$SILENCE,34973.39456956322,-6606.348646443921,16367.578967521069,13219.067540057606,-187500.02235174447,-187500.02235174447,-187500.02235174447,-187500.02235174447
$SILENCE,35035.06303251541,-6642.4243619947865,16569.41521995249,13121.390416787914,-187500.02235174447,-187500.02235174447,-187500.02235174447,-187500.02235174447
$SILENCE,35204.55631072001,-6637.618736936896,16858.982069370995,13100.759756655665,-187500.02235174447,-187500.02235174447,-187500.02235174447,-187500.02235174447
$SILENCE,35155.78480431853,-6620.966687317692,16707.012558819362,13168.127914443961,-187500.02235174447,-187500.02235174447,-187500.02235174447,-187500.02235174447
$SILENCE,34984.99512493552,-6603.912306298293,16398.491430102757,13227.203575039337,-187500.02235174447,-187500.02235174447,-187500.02235174447,-187500.02235174447
$SILENCE,35043.51199191952,-6594.189297460234,16550.237423209837,13177.336833159547,-187500.02235174447,-187500.02235174447,-187500.02235174447,-187500.02235174447
$SILENCE,35190.564118690985,-6652.683812699773,16835.75860688193,13078.676233133821,-187500.02235174447,-187500.02235174447,-187500.02235174447,-187500.02235174447
$SILENCE,35175.56609816147,-6640.435056738264,16763.02603042436,13139.383571074435,-187500.02235174447,-187500.02235174447,-187500.02235174447,-187500.02235174447
$SILENCE,35002.13891293274,-6612.45067268022,16428.532174650692,13219.983961580272,-187500.02235174447,-187500.02235174447,-187500.02235174447,-187500.02235174447
$SILENCE,34995.522796573976,-6610.059036023502,16459.89167212149,13176.88979827044,-187500.02235174447,-187500.02235174447,-187500.02235174447,-187500.02235174447
$SILENCE,35185.736141888636,-6601.453614408209,16810.545839136343,13110.818041660554,-187500.02235174447,-187500.02235174447,-187500.02235174447,-187500.02235174447
$SILENCE,35201.941156618734,-6611.288381968544,16809.070624002296,13137.327210584548,-187500.02235174447,-187500.02235174447,-187500.02235174447,-187500.02235174447
$SILENCE,34983.81048247939,-6660.663385470318,16412.930657020886,13163.456399852801,-187500.02235174447,-187500.02235174447,-187500.02235174447,-187500.02235174447
$SILENCE,34936.91652261216,-6647.274690541589,16365.991993664742,13156.303841627103,-187500.02235174447,-187500.02235174447,-187500.02235174447,-187500.02235174447
$SILENCE,35142.61962683435,-6636.299984014033,16759.65091701161,13099.530410710622,-187500.02235174447,-187500.02235174447,-187500.02235174447,-187500.02235174447
$SILENCE,35251.13734616487,-6591.68590208124,16895.68363376661,13169.22314992227,-187500.02235174447,-187500.02235174447,-187500.02235174447,-187500.02235174447
$SILENCE,35070.13291956579,-6606.393349932832,16532.26662066777,13211.244429498247,-187500.02235174447,-187500.02235174447,-187500.02235174447,-187500.02235174447
$SILENCE,34914.073039778836,-6659.255225569633,16312.839545350022,13146.022039177662,-187500.02235174447,-187500.02235174447,-187500.02235174447,-187500.02235174447
$SILENCE,35088.95308839716,-6647.386449263865,16675.854227048665,13081.604311657467,-187500.02235174447,-187500.02235174447,-187500.02235174447,-187500.02235174447
$SILENCE,35212.35706953491,-6635.2047485357225,16843.358199996735,13103.754890412676,-187500.02235174447,-187500.02235174447,-187500.02235174447,-187500.02235174447
$SILENCE,35107.12505663932,-6601.341855685932,16596.013795854305,13206.103528273527,-187500.02235174447,-187500.02235174447,-187500.02235174447,-187500.02235174447
$SILENCE,35002.45183735512,-6557.532436553531,16402.805316782633,13253.109246863038,-187500.02235174447,-187500.02235174447,-187500.02235174447,-187500.02235174447
$SILENCE,35054.06201530242,-6654.516655745108,16612.554086751235,13095.842372875497,-187500.02235174447,-187500.02235174447,-187500.02235174447,-187500.02235174447
$SILENCE,35189.82651112396,-6671.638091997874,16836.80913887133,13073.334166209002,-187500.02235174447,-187500.02235174447,-187500.02235174447,-187500.02235174447
$SILENCE,35124.53706557001,-6632.589594434452,16630.90486894904,13165.848036509518,-187500.02235174447,-187500.02235174447,-187500.02235174447,-187500.02235174447
$SILENCE,34953.74738618701,-6623.984172819159,16346.769493433178,13211.490298687257,-187500.02235174447,-187500.02235174447,-187500.02235174447,-187500.02235174447
$SILENCE,35040.98624479607,-6629.952088588726,16568.767019363288,13134.734408227732,-187500.02235174447,-187500.02235174447,-187500.02235174447,-187500.02235174447
$SILENCE,35231.601921510926,-6615.2446407371335,16877.265796335436,13114.573134729044,-187500.02235174447,-187500.02235174447,-187500.02235174447,-187500.02235174447
$SILENCE,35157.081205496936,-6628.253356010122,16719.171907803047,13164.79750452012,-187500.02235174447,-187500.02235174447,-187500.02235174447,-187500.02235174447
$SILENCE,34979.18367137715,-6618.552698916519,16385.214493896307,13212.071444043095,-187500.02235174447,-187500.02235174447,-187500.02235174447,-187500.02235174447
$SILENCE,35017.40515439572,-6623.760655374605,16503.365815087058,13142.088132153527,-187500.02235174447,-187500.02235174447,-187500.02235174447,-187500.02235174447
$SILENCE,35214.36872653589,-6611.511899413097,16857.842130403773,13114.863707406963,-187500.02235174447,-187500.02235174447,-187500.02235174447,-187500.02235174447
$SILENCE,35177.01896155107,-6635.696486913739,16740.339009802225,13136.254326850692,-187500.02235174447,-187500.02235174447,-187500.02235174447,-187500.02235174447
$SILENCE,34993.86876748428,-6627.672210654285,16388.991938709252,13199.219190981292,-187500.02235174447,-187500.02235174447,-187500.02235174447,-187500.02235174447
$SILENCE,34972.7016654851,-6635.808245636016,16430.63323862949,13146.290260111125,-187500.02235174447,-187500.02235174447,-187500.02235174447,-187500.02235174447
$SILENCE,35177.845976095916,-6632.142559545346,16815.977313038984,13098.189306043305,-187500.02235174447,-187500.02235174447,-187500.02235174447,-187500.02235174447
$SILENCE,35180.1035022859,-6644.525425973586,16780.54979807732,13113.813175417565,-187500.02235174447,-187500.02235174447,-187500.02235174447,-187500.02235174447
$SILENCE,35049.770480367006,-6604.672265609774,16477.840122919097,13216.787662123164,-187500.02235174447,-187500.02235174447,-187500.02235174447,-187500.02235174447
$SILENCE,34973.19340386312,-6617.055132038014,16394.177543422884,13163.74697253072,-187500.02235174447,-187500.02235174447,-187500.02235174447,-187500.02235174447
$SILENCE,35122.36894635784,-6656.3942022793535,16727.196184062504,13073.222407486726,-187500.02235174447,-187500.02235174447,-187500.02235174447,-187500.02235174447
$SILENCE,35195.2579850266,-6639.384524748865,16805.092013489248,13110.616875960455,-187500.02235174447,-187500.02235174447,-187500.02235174447,-187500.02235174447
$SILENCE,35063.13682355128,-6615.266992481589,16504.70691975438,13196.782850835663,-187500.02235174447,-187500.02235174447,-187500.02235174447,-187500.02235174447
$SILENCE,34963.76096770298,-6617.591573904941,16363.28743258565,13191.641949610943,-187500.02235174447,-187500.02235174447,-187500.02235174447,-187500.02235174447
$SILENCE,35126.3922603598,-6629.728571144173,16713.53926820031,13108.471108492746,-187500.02235174447,-187500.02235174447,-187500.02235174447,-187500.02235174447
$SILENCE,35225.656357485816,-6632.611946178908,16853.818816401817,13106.235934047216,-187500.02235174447,-187500.02235174447,-187500.02235174447,-187500.02235174447
talvez,35118.99383294509,-6593.921076526771,16593.510400475312,13208.04813004114,-187500.02235174447,-187500.02235174447,-187500.02235174447,-187500.02235174447
talvez,34943.286769781924,-6627.515748443097,16329.37983624695,13185.092888485538,-187500.02235174447,-187500.02235174447,-187500.02235174447,-187500.02235174447
talvez,35054.53140193599,-6651.141542332357,16607.65905471552,13092.042576318096,-187500.02235174447,-187500.02235174447,-187500.02235174447,-187500.02235174447
talvez,35223.46588652919,-6624.9900013196475,16880.283281836902,13106.258285791671,-187500.02235174447,-187500.02235174447,-187500.02235174447,-187500.02235174447
talvez,35152.76731881706,-6597.54205912853,16681.375107929125,13192.267798455692,-187500.02235174447,-187500.02235174447,-187500.02235174447,-187500.02235174447
talvez,34950.93106638564,-6616.853966337916,16328.798690891112,13191.843115311041,-187500.02235174447,-187500.02235174447,-187500.02235174447,-187500.02235174447
talvez,35008.48680835805,-6647.498207986142,16516.016902448762,13095.574151942033,-187500.02235174447,-187500.02235174447,-187500.02235174447,-187500.02235174447
talvez,35191.10056055791,-6662.250359326645,16823.934534065073,13063.67821260431,-187500.02235174447,-187500.02235174447,-187500.02235174447,-187500.02235174447
talvez,35147.38054840333,-6632.9695740901925,16688.572369643734,13146.245556622214,-187500.02235174447,-187500.02235174447,-187500.02235174447,-187500.02235174447
talvez,34993.3099738729,-6600.268971952078,16385.43801134086,13219.805147624631,-187500.02235174447,-187500.02235174447,-187500.02235174447,-187500.02235174447
talvez,35032.80550632543,-6596.513878883587,16520.75547227329,13159.723658528765,-187500.02235174447,-187500.02235174447,-187500.02235174447,-187500.02235174447
talvez,35174.73908361662,-6655.500132501142,16810.61289436971,13060.481913147201,-187500.02235174447,-187500.02235174447,-187500.02235174447,-187500.02235174447
talvez,35164.43492942273,-6648.168760319801,16741.993038891917,13118.64115221991,-187500.02235174447,-187500.02235174447,-187500.02235174447,-187500.02235174447
talvez,34995.96983146308,-6619.491472183642,16404.59345633906,13202.683711371865,-187500.02235174447,-187500.02235174447,-187500.02235174447,-187500.02235174447
talvez,34975.652095753205,-6615.915193070793,16436.511747421235,13156.393248604923,-187500.02235174447,-187500.02235174447,-187500.02235174447,-187500.02235174447
talvez,35169.26290622508,-6629.16977753279,16798.18532445256,13082.945416324785,-187500.02235174447,-187500.02235174447,-187500.02235174447,-187500.02235174447
talvez,35206.858540398905,-6625.1688152752895,16791.725670304975,13119.557573742579,-187500.02235174447,-187500.02235174447,-187500.02235174447,-187500.02235174447
talvez,35021.69668933114,-6639.719800915695,16431.9296398079,13168.954928988807,-187500.02235174447,-187500.02235174447,-187500.02235174447,-187500.02235174447
talvez,34948.87470589575,-6640.524463716086,16364.159150619407,13149.486559568235,-187500.02235174447,-187500.02235174447,-187500.02235174447,-187500.02235174447
talvez,35132.82956276293,-6630.533233944564,16732.046512609304,13085.068832048039,-187500.02235174447,-187500.02235174447,-187500.02235174447,-187500.02235174447
talvez,35229.076174387475,-6601.386559174844,16833.724598136498,13124.921992411852,-187500.02235174447,-187500.02235174447,-187500.02235174447,-187500.02235174447
talvez,35048.04939604395,-6622.061922796002,16495.65446324998,13169.759591789198,-187500.02235174447,-187500.02235174447,-187500.02235174447,-187500.02235174447
talvez,34934.30136851089,-6639.876263126882,16334.699551427311,13161.690612040831,-187500.02235174447,-187500.02235174447,-187500.02235174447,-187500.02235174447
talvez,35096.84325418988,-6648.504036486631,16675.29543343728,13084.890018092397,-187500.02235174447,-187500.02235174447,-187500.02235174447,-187500.02235174447
talvez,35219.219055082685,-6627.448693209732,16855.852825147253,13101.273846778136,-187500.02235174447,-187500.02235174447,-187500.02235174447,-187500.02235174447
talvez,35132.4942865961,-6576.240846662623,16610.00598788333,13209.255124241725,-187500.02235174447,-187500.02235174447,-187500.02235174447,-187500.02235174447
talvez,34975.42857830865,-6583.572218843963,16358.995897650231,13206.394100951446,-187500.02235174447,-187500.02235174447,-187500.02235174447,-187500.02235174447
talvez,35058.8229368714,-6649.107533586924,16603.255761057826,13080.643186645888,-187500.02235174447,-187500.02235174447,-187500.02235174447,-187500.02235174447
talvez,35192.508720458594,-6663.837333182971,16828.13666202267,13061.688907347789,-187500.02235174447,-187500.02235174447,-187500.02235174447,-187500.02235174447
talvez,35128.985062716616,-6628.678039154773,16629.72022649291,13151.453513080301,-187500.02235174447,-187500.02235174447,-187500.02235174447,-187500.02235174447
talvez,34998.5626338199,-6592.959951515192,16359.308822072606,13212.764348121209,-187500.02235174447,-187500.02235174447,-187500.02235174447,-187500.02235174447
talvez,35031.6208638693,-6648.12405683089,16523.102405441095,13103.330207268025,-187500.02235174447,-187500.02235174447,-187500.02235174447,-187500.02235174447
talvez,35200.421237995775,-6654.091972600458,16823.442795687057,13072.574206897523,-187500.02235174447,-187500.02235174447,-187500.02235174447,-187500.02235174447
talvez,35156.25419095209,-6622.061922796002,16696.373128458636,13149.285393868136,-187500.02235174447,-187500.02235174447,-187500.02235174447,-187500.02235174447
talvez,34996.75214251901,-6602.012408019592,16399.20668592533,13212.674941143387,-187500.02235174447,-187500.02235174447,-187500.02235174447,-187500.02235174447
talvez,34997.13212217476,-6632.991925834647,16460.07048607713,13118.819966175553,-187500.02235174447,-187500.02235174447,-187500.02235174447,-187500.02235174447
talvez,35202.18702580775,-6623.626544907874,16806.299007689835,13078.363308711447,-187500.02235174447,-187500.02235174447,-187500.02235174447,-187500.02235174447
talvez,35201.06943858498,-6609.612001134396,16749.27970758435,13143.004553676195,-187500.02235174447,-187500.02235174447,-187500.02235174447,-187500.02235174447
talvez,35004.84347401184,-6629.415646721798,16384.834514240567,13189.317368187592,-187500.02235174447,-187500.02235174447,-187500.02235174447,-187500.02235174447
talvez,34978.78133997695,-6645.106571329424,16407.767404051712,13128.431216291336,-187500.02235174447,-187500.02235174447,-187500.02235174447,-187500.02235174447
talvez,35167.2512492241,-6646.201806807734,16783.209655667502,13069.377907440414,-187500.02235174447,-187500.02235174447,-187500.02235174447,-187500.02235174447
talvez,35206.74678167663,-6631.40495197832,16782.069716700284,13114.796652173598,-187500.02235174447,-187500.02235174447,-187500.02235174447,-187500.02235174447
talvez,35059.71700664962,-6607.622695877873,16450.548642939168,13195.106470001516,-187500.02235174447,-187500.02235174447,-187500.02235174447,-187500.02235174447
talvez,34981.77647373396,-6612.517727913586,16372.04931641213,13165.803333020609,-187500.02235174447,-187500.02235174447,-187500.02235174447,-187500.02235174447
talvez,35108.197940373175,-6664.485533772175,16694.696747624486,13056.860930545441,-187500.02235174447,-187500.02235174447,-187500.02235174447,-187500.02235174447
talvez,35212.42412476827,-6642.8937486283485,16813.675083360085,13098.92691361033,-187500.02235174447,-187500.02235174447,-187500.02235174447,-187500.02235174447
talvez,35072.52455622251,-6616.742207615639,16507.5455913002,13183.572969862578,-187500.02235174447,-187500.02235174447,-187500.02235174447,-187500.02235174447
talvez,34973.79690096342,-6613.143576758334,16358.973545905776,13187.216304208792,-187500.02235174447,-187500.02235174447,-187500.02235174447,-187500.02235174447
talvez,35126.54872257099,-6630.734399644662,16699.72589012693,13097.697567665287,-187500.02235174447,-187500.02235174447,-187500.02235174447,-187500.02235174447
talvez,35232.987729667155,-6625.705257142217,16845.079284319792,13102.68200667882,-187500.02235174447,-187500.02235174447,-187500.02235174447,-187500.02235174447
talvez,35151.537972872015,-6570.496448337609,16598.159563322017,13206.37174920699,-187500.02235174447,-187500.02235174447,-187500.02235174447,-187500.02235174447
talvez,34906.1381704972,-6667.346557062454,16266.79495177209,13135.36025707248,-187500.02235174447,-187500.02235174447,-187500.02235174447,-187500.02235174447
talvez,35045.277779731485,-6678.768298479116,16562.7096966159,13064.751096338165,-187500.02235174447,-187500.02235174447,-187500.02235174447,-187500.02235174447
talvez,35213.899339902324,-6654.293138300555,16837.770263882907,13071.367212696936,-187500.02235174447,-187500.02235174447,-187500.02235174447,-187500.02235174447
talvez,35147.31349316997,-6611.0201610350805,16660.073895463218,13157.5555393166,-187500.02235174447,-187500.02235174447,-187500.02235174447,-187500.02235174447
talvez,34984.324572601865,-6607.332123199955,16341.338019530538,13200.5155921597,-187500.02235174447,-187500.02235174447,-187500.02235174447,-187500.02235174447
talvez,35024.02127075449,-6657.623548224396,16502.717614497855,13095.507096708669,-187500.02235174447,-187500.02235174447,-187500.02235174447,-187500.02235174447
talvez,35227.623310997886,-6627.895728098837,16849.884909377684,13089.382718727913,-187500.02235174447,-187500.02235174447,-187500.02235174447,-187500.02235174447
talvez,35180.05879879699,-6622.665419896295,16693.668567379544,13135.36025707248,-187500.02235174447,-187500.02235174447,-187500.02235174447,-187500.02235174447
talvez,34974.24393585252,-6647.0064696081245,16335.057179338597,13172.486504612745,-187500.02235174447,-187500.02235174447,-187500.02235174447,-187500.02235174447
talvez,35024.2671399435,-6621.078446039969,16481.416402031948,13136.634306506432,-187500.02235174447,-187500.02235174447,-187500.02235174447,-187500.02235174447
talvez,35204.399848508816,-6630.108550799912,16808.33301643527,13079.436192445302,-187500.02235174447,-187500.02235174447,-187500.02235174447,-187500.02235174447
talvez,35185.57967967745,-6633.863643868404,16718.389596747114,13113.83552716202,-187500.02235174447,-187500.02235174447,-187500.02235174447,-187500.02235174447
talvez,34975.31681958638,-6664.060850627524,16340.37689451896,13147.139626400427,-187500.02235174447,-187500.02235174447,-187500.02235174447,-187500.02235174447
talvez,34974.08747364134,-6653.3990685223425,16390.601264310037,13131.180480859337,-187500.02235174447,-187500.02235174447,-187500.02235174447,-187500.02235174447
talvez,35168.54765040251,-6648.660498697817,16783.79080102334,13072.261282475149,-187500.02235174447,-187500.02235174447,-187500.02235174447,-187500.02235174447
talvez,35212.848807912924,-6630.220309522189,16793.536161605854,13116.942419641307,-187500.02235174447,-187500.02235174447,-187500.02235174447,-187500.02235174447
talvez,35063.047416573456,-6598.950219029215,16455.35426799706,13205.522382917688,-187500.02235174447,-187500.02235174447,-187500.02235174447,-187500.02235174447
talvez,34967.605467749294,-6628.387466476855,16371.334060589561,13154.180425903849,-187500.02235174447,-187500.02235174447,-187500.02235174447,-187500.02235174447
talvez,35166.62540037935,-6626.800492620528,16753.325373330757,13093.048404818584,-187500.02235174447,-187500.02235174447,-187500.02235174447,-187500.02235174447
talvez,35204.80217990901,-6661.400993037342,16780.214521910493,13086.186419270805,-187500.02235174447,-187500.02235174447,-187500.02235174447,-187500.02235174447
talvez,35056.25248625904,-6658.048231369046,16467.40185825847,13150.447684579813,-187500.02235174447,-187500.02235174447,-187500.02235174447,-187500.02235174447
talvez,34954.23912456502,-6642.960803861714,16323.344865244017,13166.742106287731,-187500.02235174447,-187500.02235174447,-187500.02235174447,-187500.02235174447
talvez,35103.92875718221,-6645.777123663083,16659.760971040843,13087.68398614931,-187500.02235174447,-187500.02235174447,-187500.02235174447,-187500.02235174447
talvez,35231.043127899546,-6632.634297923362,16841.279487762393,13097.675215920832,-187500.02235174447,-187500.02235174447,-187500.02235174447,-187500.02235174447
talvez,35111.215425874645,-6630.488530455653,16563.782580349754,13161.154170173904,-187500.02235174447,-187500.02235174447,-187500.02235174447,-187500.02235174447
talvez,34957.68129321114,-6634.60125143543,16311.409033704882,13174.98989999174,-187500.02235174447,-187500.02235174447,-187500.02235174447,-187500.02235174447
talvez,35072.30103877796,-6646.470027741198,16587.72129866139,13089.941512339296,-187500.02235174447,-187500.02235174447,-187500.02235174447,-187500.02235174447
talvez,35238.48625880316,-6639.630393937874,16852.164787312126,13083.414802958347,-187500.02235174447,-187500.02235174447,-187500.02235174447,-187500.02235174447
talvez,35171.56513590398,-6617.055132038014,16657.25757566185,13164.573987075566,-187500.02235174447,-187500.02235174447,-187500.02235174447,-187500.02235174447
talvez,34976.36735157578,-6627.269879254089,16341.427426508359,13183.818839051586,-187500.02235174447,-187500.02235174447,-187500.02235174447,-187500.02235174447
talvez,35027.664605100705,-6655.142504589857,16522.54361182971,13091.059099562062,-187500.02235174447,-187500.02235174447,-187500.02235174447,-187500.02235174447
talvez,35236.9663401802,-6627.761617632105,16835.400978970647,13093.227218774227,-187500.02235174447,-187500.02235174447,-187500.02235174447,-187500.02235174447
talvez,35195.794426893524,-6616.317524470988,16717.45082347999,13162.584681819044,-187500.02235174447,-187500.02235174447,-187500.02235174447,-187500.02235174447
talvez,34980.6588865112,-6644.324260273488,16349.943441145831,13171.100696456517,-187500.02235174447,-187500.02235174447,-187500.02235174447,-187500.02235174447
talvez,34989.19725289312,-6652.773219677594,16439.9315643229,13099.709224666265,-187500.02235174447,-187500.02235174447,-187500.02235174447,-187500.02235174447
talvez,35215.4639620142,-6630.846158366938,16846.15216805365,13090.366195483946,-187500.02235174447,-187500.02235174447,-187500.02235174447,-187500.02235174447
talvez,35166.8489178239,-6664.239664583167,16691.366337700645,13095.238875775203,-187500.02235174447,-187500.02235174447,-187500.02235174447,-187500.02235174447
talvez,35001.89304374374,-6651.36505977691,16337.918202628876,13160.394210862425,-187500.02235174447,-187500.02235174447,-187500.02235174447,-187500.02235174447
talvez,34986.24682262502,-6643.273728284089,16372.295185601139,13133.013323904674,-187500.02235174447,-187500.02235174447,-187500.02235174447,-187500.02235174447
talvez,35165.5525166455,-6654.9860423786695,16738.081483612237,13050.647145586867,-187500.02235174447,-187500.02235174447,-187500.02235174447,-187500.02235174447
talvez,35233.52417153408,-6627.873376354382,16795.212542440004,13119.892849909407,-187500.02235174447,-187500.02235174447,-187500.02235174447,-187500.02235174447
talvez,35057.54888743745,-6628.499225199131,16456.941241853387,13181.360147161502,-187500.02235174447,-187500.02235174447,-187500.02235174447,-187500.02235174447
talvez,34958.664769967174,-6659.434039525276,16338.856975895998,13138.042466407118,-187500.02235174447,-187500.02235174447,-187500.02235174447,-187500.02235174447
talvez,35153.661388595276,-6640.882091627371,16705.246771007394,13082.20780875776,-187500.02235174447,-187500.02235174447,-187500.02235174447,-187500.02235174447
talvez,35261.41914861431,-6605.92396329927,16843.514662207923,13128.565326758067,-187500.02235174447,-187500.02235174447,-187500.02235174447,-187500.02235174447
talvez,35070.736416666085,-6652.661460955318,16514.161707658972,13152.995783447717,-187500.02235174447,-187500.02235174447,-187500.02235174447,-187500.02235174447
talvez,34941.4986302255,-6664.753754705639,16304.211771990273,13148.145454900916,-187500.02235174447,-187500.02235174447,-187500.02235174447,-187500.02235174447
talvez,35109.31552759594,-6663.926740160792,16621.695950233454,13076.642224388388,-187500.02235174447,-187500.02235174447,-187500.02235174447,-187500.02235174447
talvez,35249.25979963062,-6651.722687688195,16822.012284041917,13081.49255293519,-187500.02235174447,-187500.02235174447,-187500.02235174447,-187500.02235174447
talvez,35142.37375764534,-6621.860757095905,16577.215978767395,13171.681841812355,-187500.02235174447,-187500.02235174447,-187500.02235174447,-187500.02235174447
talvez,34994.91929947368,-6610.8413470794385,16335.012475849686,13191.530190888667,-187500.02235174447,-187500.02235174447,-187500.02235174447,-187500.02235174447
talvez,35093.311678565944,-6640.613870693907,16592.012833596807,13101.832640389519,-187500.02235174447,-187500.02235174447,-187500.02235174447,-187500.02235174447
talvez,35238.88859020336,-6663.636167482873,16838.32905749429,13065.667517860833,-187500.02235174447,-187500.02235174447,-187500.02235174447,-187500.02235174447
talvez,35144.698339068695,-6664.3737750498985,16615.459813530422,13117.188288830315,-187500.02235174447,-187500.02235174447,-187500.02235174447,-187500.02235174447
talvez,35000.97662222107,-6632.187263034256,16351.95509814681,13195.106470001516,-187500.02235174447,-187500.02235174447,-187500.02235174447,-187500.02235174447
talvez,35059.53819269397,-6650.672155698795,16500.281274352226,13104.559553213066,-187500.02235174447,-187500.02235174447,-187500.02235174447,-187500.02235174447
talvez,35248.45513683023,-6652.616757466407,16822.392263697657,13077.513942422145,-187500.02235174447,-187500.02235174447,-187500.02235174447,-187500.02235174447
talvez,35251.249104887145,-6589.026044491058,16774.246606140925,13195.218228723792,-187500.02235174447,-187500.02235174447,-187500.02235174447,-187500.02235174447
talvez,35074.96089636814,-6569.647082048307,16415.25523844424,13244.123845592005,-187500.02235174447,-187500.02235174447,-187500.02235174447,-187500.02235174447
talvez,34984.59279353533,-6680.1764583798,16367.198987865328,13067.768581839631,-187500.02235174447,-187500.02235174447,-187500.02235174447,-187500.02235174447
talvez,35182.0034005646,-6681.495211302664,16725.899782884095,13006.725967732189,-187500.02235174447,-187500.02235174447,-187500.02235174447,-187500.02235174447
talvez,35217.341508548445,-6647.0064696081245,16720.758881659374,13090.321491995037,-187500.02235174447,-187500.02235174447,-187500.02235174447,-187500.02235174447
talvez,35065.148480552256,-6646.894710885848,16412.170697709407,13183.304748929115,-187500.02235174447,-187500.02235174447,-187500.02235174447,-187500.02235174447
talvez,35047.08827103237,-6638.713972415206,16462.998564600774,13164.484580097745,-187500.02235174447,-187500.02235174447,-187500.02235174447,-187500.02235174447
talvez,35246.19761064024,-6627.292230998544,16797.581827352267,13092.668425162843,-187500.02235174447,-187500.02235174447,-187500.02235174447,-187500.02235174447
talvez,35271.74565455266,-6621.033742551058,16776.057097441804,13116.540088241112,-187500.02235174447,-187500.02235174447,-187500.02235174447,-187500.02235174447
talvez,35113.942338698194,-6613.098873269424,16448.15700628245,13185.115240229994,-187500.02235174447,-187500.02235174447,-187500.02235174447,-187500.02235174447
talvez,34966.24201133752,-6686.010263682636,16287.872646793443,13091.819058873542,-187500.02235174447,-187500.02235174447,-187500.02235174447,-187500.02235174447
talvez,35206.25504329861,-6653.242606311155,16723.038759593815,13084.73355588121,-187500.02235174447,-187500.02235174447,-187500.02235174447,-187500.02235174447
talvez,35283.30150643605,-6657.690603457761,16840.34071449527,13094.613026930456,-187500.02235174447,-187500.02235174447,-187500.02235174447,-187500.02235174447
talvez,35148.744004815104,-6640.300946271533,16523.929419985943,13163.41169636389,-187500.02235174447,-187500.02235174447,-187500.02235174447,-187500.02235174447
talvez,34998.60733730881,-6651.789742921561,16299.696719610301,13133.303896582593,-187500.02235174447,-187500.02235174447,-187500.02235174447,-187500.02235174447
talvez,35161.08216775444,-6652.661460955318,16649.76974126932,13076.753983110666,-187500.02235174447,-187500.02235174447,-187500.02235174447,-187500.02235174447
talvez,35303.7310008682,-6660.775144192594,16833.81400511432,13067.567416139535,-187500.02235174447,-187500.02235174447,-187500.02235174447,-187500.02235174447
talvez,35196.46497922719,-6643.251376539633,16582.20041778093,13156.46030383829,-187500.02235174447,-187500.02235174447,-187500.02235174447,-187500.02235174447
talvez,35034.54894239294,-6638.937489859759,16335.526565972159,13193.65360661192,-187500.02235174447,-187500.02235174447,-187500.02235174447,-187500.02235174447
talvez,35133.924798241234,-6648.951071375736,16587.542484705744,13083.615968658445,-187500.02235174447,-187500.02235174447,-187500.02235174447,-187500.02235174447
talvez,35284.374390169905,-6649.800437665038,16840.76539763992,13056.793875312076,-187500.02235174447,-187500.02235174447,-187500.02235174447,-187500.02235174447
talvez,35226.68453773076,-6644.346612017944,16659.716267551932,13147.921937456364,-187500.02235174447,-187500.02235174447,-187500.02235174447,-187500.02235174447
talvez,35055.425471714196,-6638.333992759466,16346.90360389991,13177.381536648458,-187500.02235174447,-187500.02235174447,-187500.02235174447,-187500.02235174447
talvez,35106.722725239124,-6648.101705086435,16534.211222435384,13114.416672517858,-187500.02235174447,-187500.02235174447,-187500.02235174447,-187500.02235174447
talvez,35278.04884648906,-6655.701298201239,16843.268793018913,13073.803552842564,-187500.02235174447,-187500.02235174447,-187500.02235174447,-187500.02235174447
talvez,35249.438613586266,-6645.665364940806,16724.513974727866,13136.969582673262,-187500.02235174447,-187500.02235174447,-187500.02235174447,-187500.02235174447
talvez,35075.832614401894,-6639.563338704507,16380.118296160495,13195.642911868443,-187500.02235174447,-187500.02235174447,-187500.02235174447,-187500.02235174447
talvez,35079.90063189276,-6651.36505977691,16463.132675067507,13132.700399482299,-187500.02235174447,-187500.02235174447,-187500.02235174447,-187500.02235174447
talvez,35262.60379107044,-6663.613815738418,16825.029769543384,13077.133962766406,-187500.02235174447,-187500.02235174447,-187500.02235174447,-187500.02235174447
talvez,35275.65720983234,-6647.051173097036,16787.344728391734,13143.675106009854,-187500.02235174447,-187500.02235174447,-187500.02235174447,-187500.02235174447
talvez,35111.46129506365,-6636.2552805251225,16458.908195365453,13229.841080885064,-187500.02235174447,-187500.02235174447,-187500.02235174447,-187500.02235174447
talvez,35029.45274465713,-6679.818830468515,16411.5224971202,13144.45741706579,-187500.02235174447,-187500.02235174447,-187500.02235174447,-187500.02235174447
talvez,35183.74683663212,-6686.74787124966,16732.739416687422,13044.053380972551,-187500.02235174447,-187500.02235174447,-187500.02235174447,-187500.02235174447
talvez,35255.74180552266,-6666.385432050876,16793.536161605854,13101.944399111797,-187500.02235174447,-187500.02235174447,-187500.02235174447,-187500.02235174447
talvez,35114.72464975413,-6625.302925742022,16497.12967838403,13176.554522103612,-187500.02235174447,-187500.02235174447,-187500.02235174447,-187500.02235174447
talvez,35010.185540936654,-6657.847065668949,16366.57313902058,13132.02984714864,-187500.02235174447,-187500.02235174447,-187500.02235174447,-187500.02235174447
talvez,35166.96067654618,-6699.667179544828,16735.06399811077,13039.426569870302,-187500.02235174447,-187500.02235174447,-187500.02235174447,-187500.02235174447
talvez,35325.27808252312,-6637.104646814424,16934.329799929834,13158.404905605901,-187500.02235174447,-187500.02235174447,-187500.02235174447,-187500.02235174447
talvez,35109.404934573766,-6707.80321452656,16557.90407155801,13179.28143492716,-187500.02235174447,-187500.02235174447,-187500.02235174447,-187500.02235174447
talvez,34976.30029634241,-6691.575848052007,16317.980446574742,13128.364161057969,-187500.02235174447,-187500.02235174447,-187500.02235174447,-187500.02235174447
talvez,35084.81801567293,-6688.223086383711,16605.870915159096,12986.788211678055,-187500.02235174447,-187500.02235174447,-187500.02235174447,-187500.02235174447
talvez,35282.474491891204,-6614.685847125751,16892.91201745415,13049.507206619646,-187500.02235174447,-187500.02235174447,-187500.02235174447,-187500.02235174447
talvez,35170.983990548135,-6657.109458101923,16653.144854682072,13139.629440263443,-187500.02235174447,-187500.02235174447,-187500.02235174447,-187500.02235174447
talvez,34934.05549932188,-6722.220089700233,16298.981463787732,13042.756979794143,-187500.02235174447,-187500.02235174447,-187500.02235174447,-187500.02235174447
talvez,35041.88031457428,-6712.295915162077,16575.04785955523,12984.798906421533,-187500.02235174447,-187500.02235174447,-187500.02235174447,-187500.02235174447
talvez,35218.07911611547,-6695.263885887133,16853.5282437239,13007.351816576936,-187500.02235174447,-187500.02235174447,-187500.02235174447,-187500.02235174447
talvez,35135.891751753305,-6686.479650316197,16652.787226770786,13076.932797066307,-187500.02235174447,-187500.02235174447,-187500.02235174447,-187500.02235174447
talvez,34956.519002499466,-6678.410670567831,16329.08926356903,13093.473087963235,-187500.02235174447,-187500.02235174447,-187500.02235174447,-187500.02235174447
talvez,34997.15447391921,-6706.618572070429,16507.523239555747,12966.649289923822,-187500.02235174447,-187500.02235174447,-187500.02235174447,-187500.02235174447
talvez,35185.89260409983,-6688.759528250638,16881.49027603749,12958.021516564075,-187500.02235174447,-187500.02235174447,-187500.02235174447,-187500.02235174447
talvez,35130.81790576195,-6728.1880054698,16720.289495025812,12982.988415120652,-187500.02235174447,-187500.02235174447,-187500.02235174447,-187500.02235174447
talvez,34964.29740956991,-6715.067531474535,16325.691798411823,13097.11642230945,-187500.02235174447,-187500.02235174447,-187500.02235174447,-187500.02235174447
talvez,34991.14185466073,-6718.397941398375,16452.24737551777,13077.066907533039,-187500.02235174447,-187500.02235174447,-187500.02235174447,-187500.02235174447
talvez,35151.761490316574,-6732.323078194032,16803.035652999362,12907.707739795178,-187500.02235174447,-187500.02235174447,-187500.02235174447,-187500.02235174447
talvez,35133.90244649678,-6699.711883033739,16690.271102222338,12906.32193163895,-187500.02235174447,-187500.02235174447,-187500.02235174447,-187500.02235174447
talvez,34952.96507513107,-6711.200679683767,16323.836603622032,12994.38780479286,-187500.02235174447,-187500.02235174447,-187500.02235174447,-187500.02235174447
talvez,34911.99432754449,-6711.088920961491,16335.392455505427,12943.671696623767,-187500.02235174447,-187500.02235174447,-187500.02235174447,-187500.02235174447
talvez,35099.10078037987,-6718.867328031937,16714.187468789514,12910.278190407538,-187500.02235174447,-187500.02235174447,-187500.02235174447,-187500.02235174447
talvez,35171.07339752596,-6725.639906601895,16780.03570795485,12951.025420549562,-187500.02235174447,-187500.02235174447,-187500.02235174447,-187500.02235174447
talvez,34984.01164817949,-6768.130572811434,16413.087119232074,12963.028307322063,-187500.02235174447,-187500.02235174447,-187500.02235174447,-187500.02235174447
talvez,34951.84748790831,-6693.699263775261,16348.781150434155,13037.951354736251,-187500.02235174447,-187500.02235174447,-187500.02235174447,-187500.02235174447
talvez,35073.48568123409,-6720.186080954801,16640.493767320368,12877.465829547147,-187500.02235174447,-187500.02235174447,-187500.02235174447,-187500.02235174447
talvez,35132.404879618276,-6749.757438869172,16729.96780037496,12859.159750838251,-187500.02235174447,-187500.02235174447,-187500.02235174447,-187500.02235174447
talvez,34994.87459598477,-6698.840164999982,16416.05990124463,12985.290644799548,-187500.02235174447,-187500.02235174447,-187500.02235174447,-187500.02235174447
talvez,34883.00411498596,-6715.760435552649,16207.674587687801,12960.122580542873,-187500.02235174447,-187500.02235174447,-187500.02235174447,-187500.02235174447
talvez,35036.761765094016,-6772.176238557844,16588.74947890633,12890.541600053502,-187500.02235174447,-187500.02235174447,-187500.02235174447,-187500.02235174447
talvez,35169.933458558735,-6745.912938822858,16793.84908602823,12904.46673684916,-187500.02235174447,-187500.02235174447,-187500.02235174447,-187500.02235174447
talvez,35085.37680928431,-6692.224048641211,16507.903219211486,12987.324653544982,-187500.02235174447,-187500.02235174447,-187500.02235174447,-187500.02235174447
talvez,34925.62889166223,-6700.874173745415,16245.180814883808,12986.631749466867,-187500.02235174447,-187500.02235174447,-187500.02235174447,-187500.02235174447
talvez,34979.854223710805,-6767.2141512887665,16473.414477516948,12833.611706925834,-187500.02235174447,-187500.02235174447,-187500.02235174447,-187500.02235174447
talvez,35148.92281877075,-6774.411413003375,16739.46729176847,12843.804102397455,-187500.02235174447,-187500.02235174447,-187500.02235174447,-187500.02235174447
talvez,35093.35638205485,-6747.410505701364,16559.200472736415,12923.421016147258,-187500.02235174447,-187500.02235174447,-187500.02235174447,-187500.02235174447
talvez,34891.989516256996,-6713.368798895932,16178.438505940261,12952.23241475015,-187500.02235174447,-187500.02235174447,-187500.02235174447,-187500.02235174447
talvez,34944.09143258231,-6729.372647925931,16351.083380113052,12897.895323979297,-187500.02235174447,-187500.02235174447,-187500.02235174447,-187500.02235174447
talvez,35139.69154831071,-6745.510607422663,16706.72198614144,12841.032486084996,-187500.02235174447,-187500.02235174447,-187500.02235174447,-187500.02235174447
talvez,35137.18815293171,-6735.161749739856,16632.11186314963,12952.590042661435,-187500.02235174447,-187500.02235174447,-187500.02235174447,-187500.02235174447
talvez,34930.993310331505,-6748.461037690764,16269.164236684352,13000.6686449848,-187500.02235174447,-187500.02235174447,-187500.02235174447,-187500.02235174447
talvez,34931.79797313189,-6759.681613407328,16337.13589157294,12915.12851895434,-187500.02235174447,-187500.02235174447,-187500.02235174447,-187500.02235174447
talvez,35122.413649846756,-6761.000366330191,16731.21949806446,12856.902224648265,-187500.02235174447,-187500.02235174447,-187500.02235174447,-187500.02235174447
talvez,35156.47770839664,-6703.332865635499,16666.10886646615,12917.229582933138,-187500.02235174447,-187500.02235174447,-187500.02235174447,-187500.02235174447
talvez,34964.99031364803,-6718.777921054116,16244.040875916586,13000.467479284702,-187500.02235174447,-187500.02235174447,-187500.02235174447,-187500.02235174447
talvez,34900.88551055021,-6749.2433487467,16227.768805953123,12941.682391367245,-187500.02235174447,-187500.02235174447,-187500.02235174447,-187500.02235174447
talvez,35102.81116995945,-6746.225863245233,16631.24014511587,12872.369631811338,-187500.02235174447,-187500.02235174447,-187500.02235174447,-187500.02235174447
talvez,35149.9957025046,-6741.733162609717,16656.54231983928,12894.095527421896,-187500.02235174447,-187500.02235174447,-187500.02235174447,-187500.02235174447
talvez,34979.34013358833,-6755.501837194185,16292.611216617968,12963.408286977803,-187500.02235174447,-187500.02235174447,-187500.02235174447,-187500.02235174447
talvez,34917.40344970267,-6733.1724444833335,16242.431550315805,12990.498601257636,-187500.02235174447,-187500.02235174447,-187500.02235174447,-187500.02235174447
talvez,35159.07051075346,-6654.8072284230275,16727.26323929587,12977.556941218012,-187500.02235174447,-187500.02235174447,-187500.02235174447,-187500.02235174447
talvez,35142.57492334544,-6780.871067150959,16758.198053622014,12882.472620305136,-187500.02235174447,-187500.02235174447,-187500.02235174447,-187500.02235174447
talvez,35036.65000637174,-6742.828398088026,16440.19978525636,13002.85911594142,-187500.02235174447,-187500.02235174447,-187500.02235174447,-187500.02235174447
talvez,34910.45205717708,-6723.09180773399,16213.374282523906,13018.013598682119,-187500.02235174447,-187500.02235174447,-187500.02235174447,-187500.02235174447
talvez,35053.23500075758,-6717.034484986602,16515.055777437185,12935.781530831044,-187500.02235174447,-187500.02235174447,-187500.02235174447,-187500.02235174447
talvez,35262.44732885925,-6676.153144377845,16940.387122677224,13006.502450287635,-187500.02235174447,-187500.02235174447,-187500.02235174447,-187500.02235174447
talvez,35168.748816102605,-6640.524463716086,16638.14683415256,13087.30400649357,-187500.02235174447,-187500.02235174447,-187500.02235174447,-187500.02235174447
talvez,34879.874870762214,-6755.524188938641,16192.006014824632,13003.484964786168,-187500.02235174447,-187500.02235174447,-187500.02235174447,-187500.02235174447
talvez,34948.69589194011,-6797.925448170358,16386.220322396795,12884.640739517301,-187500.02235174447,-187500.02235174447,-187500.02235174447,-187500.02235174447
talvez,35145.3465396579,-6739.028601530624,16577.685365400954,12915.329684654438,-187500.02235174447,-187500.02235174447,-187500.02235174447,-187500.02235174447
talvez,35131.846086006895,-6680.467031057719,16538.458053881892,13046.19914844026,-187500.02235174447,-187500.02235174447,-187500.02235174447,-187500.02235174447
talvez,34944.91844712716,-6709.121967449423,16302.177763244841,13065.91338704984,-187500.02235174447,-187500.02235174447,-187500.02235174447,-187500.02235174447
talvez,35026.85994230032,-6683.1045369034455,16467.580672214113,13044.388657139381,-187500.02235174447,-187500.02235174447,-187500.02235174447,-187500.02235174447
talvez,35249.86329673092,-6625.146463530835,16782.092068444737,13044.500415861658,-187500.02235174447,-187500.02235174447,-187500.02235174447,-187500.02235174447
talvez,35110.52252179653,-6735.921709051337,16551.31030694369,12981.200275564228,-187500.02235174447,-187500.02235174447,-187500.02235174447,-187500.02235174447
talvez,34985.12923540226,-6688.379548594899,16304.234123734728,13106.30298928058,-187500.02235174447,-187500.02235174447,-187500.02235174447,-187500.02235174447
talvez,34996.21570065209,-6681.450507813753,16389.036642198163,13088.600407671978,-187500.02235174447,-187500.02235174447,-187500.02235174447,-187500.02235174447
$SILENCE,35211.97708987917,-6661.758620948627,16772.838446240243,13050.11070371994,-187500.02235174447,-187500.02235174447,-187500.02235174447,-187500.02235174447
$SILENCE,35203.081095585956,-6693.363987608432,16739.84727142421,13058.313793935036,-187500.02235174447,-187500.02235174447,-187500.02235174447,-187500.02235174447
$SILENCE,35016.332270661864,-6689.385377095387,16387.38261310847,13124.229088333737,-187500.02235174447,-187500.02235174447,-187500.02235174447,-187500.02235174447
$SILENCE,34948.248857051,-6683.305702603544,16266.303213394072,13076.575169155023,-187500.02235174447,-187500.02235174447,-187500.02235174447,-187500.02235174447
$SILENCE,35178.0024383071,-6670.922836175303,16721.764710159863,13046.53442460709,-187500.02235174447,-187500.02235174447,-187500.02235174447,-187500.02235174447
$SILENCE,35255.562991567014,-6649.152237075835,16789.736365048455,13094.948303097284,-187500.02235174447,-187500.02235174447,-187500.02235174447,-187500.02235174447
$SILENCE,35094.161044855246,-6647.498207986142,16445.87712834801,13166.630347565455,-187500.02235174447,-187500.02235174447,-187500.02235174447,-187500.02235174447
$SILENCE,34986.693857514125,-6679.327092090499,16335.191289805329,13135.27085009466,-187500.02235174447,-187500.02235174447,-187500.02235174447,-187500.02235174447
$SILENCE,35187.81485412298,-6667.435964040275,16760.32146934527,13105.855954391474,-187500.02235174447,-187500.02235174447,-187500.02235174447,-187500.02235174447
$SILENCE,35295.617317630924,-6650.247472554144,16917.945971244095,13132.32041982656,-187500.02235174447,-187500.02235174447,-187500.02235174447,-187500.02235174447
$SILENCE,35173.91206907178,-6606.773329588572,16606.85439191513,13212.406720209923,-187500.02235174447,-187500.02235174447,-187500.02235174447,-187500.02235174447
$SILENCE,34926.947644585096,-6694.034539942091,16185.635767654869,13100.335073511014,-187500.02235174447,-187500.02235174447,-187500.02235174447,-187500.02235174447
$SILENCE,35108.60027177337,-6689.139507906379,16586.827228883176,13060.43720965829,-187500.02235174447,-187500.02235174447,-187500.02235174447,-187500.02235174447
$SILENCE,35260.16745092481,-6670.229932097189,16860.85961590524,13083.68302389181,-187500.02235174447,-187500.02235174447,-187500.02235174447,-187500.02235174447
$SILENCE,35120.96078645716,-6727.003363013669,16551.600879621612,13125.12315811195,-187500.02235174447,-187500.02235174447,-187500.02235174447,-187500.02235174447
$SILENCE,34978.46841555458,-6685.004435182147,16266.683193049812,13171.771248790175,-187500.02235174447,-187500.02235174447,-187500.02235174447,-187500.02235174447
$SILENCE,35049.27874198899,-6714.486386118697,16543.531899873247,13078.363308711447,-187500.02235174447,-187500.02235174447,-187500.02235174447,-187500.02235174447
$SILENCE,35231.28899708855,-6729.730275837216,16842.687647663075,13060.258395702649,-187500.02235174447,-187500.02235174447,-187500.02235174447,-187500.02235174447
$SILENCE,35164.61374337837,-6712.005342484158,16605.80385992573,13115.802480674087,-187500.02235174447,-187500.02235174447,-187500.02235174447,-187500.02235174447
$SILENCE,35002.921223988684,-6658.003527880136,16310.336149971028,13191.954874033318,-187500.02235174447,-187500.02235174447,-187500.02235174447,-187500.02235174447
$SILENCE,35067.98715209808,-6660.730440703684,16536.647562581013,13150.961774702284,-187500.02235174447,-187500.02235174447,-187500.02235174447,-187500.02235174447
$SILENCE,35167.631228879836,-6754.898340093892,16785.80245802432,13038.577203581,-187500.02235174447,-187500.02235174447,-187500.02235174447,-187500.02235174447
$SILENCE,35231.512514533104,-6685.496173560164,16792.351519149724,13156.013268949184,-187500.02235174447,-187500.02235174447,-187500.02235174447,-187500.02235174447
$SILENCE,35000.39547686523,-6670.006414652636,16310.827888349044,13207.779909107676,-187500.02235174447,-187500.02235174447,-187500.02235174447,-187500.02235174447
$SILENCE,34917.24698749149,-6757.28997675061,16286.464486892759,13065.645166116377,-187500.02235174447,-187500.02235174447,-187500.02235174447,-187500.02235174447
$SILENCE,35143.96073150167,-6752.976090070736,16713.606323433676,13038.979534981196,-187500.02235174447,-187500.02235174447,-187500.02235174447,-187500.02235174447
$SILENCE,35210.2113020672,-6696.627342298907,16749.190300606526,13135.36025707248,-187500.02235174447,-187500.02235174447,-187500.02235174447,-187500.02235174447
$SILENCE,35040.62861688479,-6693.051063186057,16420.530250135693,13205.27651372868,-187500.02235174447,-187500.02235174447,-187500.02235174447,-187500.02235174447
$SILENCE,34996.48392158555,-6690.078281173502,16401.821840026598,13170.676013311866,-187500.02235174447,-187500.02235174447,-187500.02235174447,-187500.02235174447
$SILENCE,35124.291196381,-6739.833264331015,16686.247788220382,13045.796817040065,-187500.02235174447,-187500.02235174447,-187500.02235174447,-187500.02235174447
$SILENCE,35213.74287769114,-6704.89748774737,16779.789838765842,13101.318550267048,-187500.02235174447,-187500.02235174447,-187500.02235174447,-187500.02235174447
$SILENCE,35069.77529165451,-6681.964597936225,16476.588425229602,13206.505859673724,-187500.02235174447,-187500.02235174447,-187500.02235174447,-187500.02235174447
$SILENCE,34942.12447907025,-6715.045179730079,16322.428443721348,13179.4602488828,-187500.02235174447,-187500.02235174447,-187500.02235174447,-187500.02235174447
$SILENCE,35131.71197554016,-6700.740063278683,16714.634503678622,13107.107652080973,-187500.02235174447,-187500.02235174447,-187500.02235174447,-187500.02235174447
$SILENCE,35220.78367719456,-6699.823641756016,16817.921914806597,13101.296198522592,-187500.02235174447,-187500.02235174447,-187500.02235174447,-187500.02235174447
$SILENCE,35083.521614494515,-6683.551571792552,16515.726329770845,13186.098716986027,-187500.02235174447,-187500.02235174447,-187500.02235174447,-187500.02235174447
$SILENCE,34953.97090363156,-6688.84893522846,16311.945475571809,13205.142403261949,-187500.02235174447,-187500.02235174447,-187500.02235174447,-187500.02235174447
$SILENCE,35090.76357969804,-6703.846955757971,16625.741615979867,13115.042521362606,-187500.02235174447,-187500.02235174447,-187500.02235174447,-187500.02235174447
$SILENCE,35235.35701457942,-6685.406766582342,16862.75951418394,13117.523564997146,-187500.02235174447,-187500.02235174447,-187500.02235174447,-187500.02235174447
$SILENCE,35159.42813866474,-6649.845141153949,16656.96700298393,13215.6700749004,-187500.02235174447,-187500.02235174447,-187500.02235174447,-187500.02235174447
$SILENCE,34996.260404141,-6662.65269072684,16351.32924930206,13235.116092576516,-187500.02235174447,-187500.02235174447,-187500.02235174447,-187500.02235174447
$SILENCE,35080.74999818206,-6686.099670660457,16570.689269386443,13133.348600071502,-187500.02235174447,-187500.02235174447,-187500.02235174447,-187500.02235174447
$SILENCE,35264.41428237132,-6668.84412394096,16872.19195034408,13123.178556344337,-187500.02235174447,-187500.02235174447,-187500.02235174447,-187500.02235174447
$SILENCE,35195.7050199157,-6658.204693580234,16701.178753516528,13201.253199726725,-187500.02235174447,-187500.02235174447,-187500.02235174447,-187500.02235174447
$SILENCE,35019.908549774715,-6648.168760319801,16386.935578219363,13263.323994079114,-187500.02235174447,-187500.02235174447,-187500.02235174447,-187500.02235174447
$SILENCE,35068.88122187629,-6655.2766150565885,16554.03721976724,13189.540885632145,-187500.02235174447,-187500.02235174447,-187500.02235174447,-187500.02235174447
$SILENCE,35252.03141594308,-6652.303833044033,16887.882874951705,13136.857823950986,-187500.02235174447,-187500.02235174447,-187500.02235174447,-187500.02235174447
$SILENCE,35240.1179361484,-6636.411742736309,16778.247568398427,13206.483507929268,-187500.02235174447,-187500.02235174447,-187500.02235174447,-187500.02235174447
$SILENCE,35062.64508517326,-6618.2621262386,16431.661418874435,13280.177209398415,-187500.02235174447,-187500.02235174447,-187500.02235174447,-187500.02235174447
$SILENCE,35047.71411987711,-6621.50312918462,16496.772050472744,13225.460138971823,-187500.02235174447,-187500.02235174447,-187500.02235174447,-187500.02235174447
$SILENCE,35274.62902958739,-6615.088178525946,16923.466852124555,13182.477734384267,-187500.02235174447,-187500.02235174447,-187500.02235174447,-187500.02235174447
$SILENCE,35299.953556055254,-6603.241753964634,16909.742881028997,13241.86631940202,-187500.02235174447,-187500.02235174447,-187500.02235174447,-187500.02235174447
$SILENCE,35131.30964413997,-6563.1203726673575,16506.6962250109,13321.080901751626,-187500.02235174447,-187500.02235174447,-187500.02235174447,-187500.02235174447
$SILENCE,35072.70337017815,-6567.568369813964,16459.601099443567,13273.114058150537,-187500.02235174447,-187500.02235174447,-187500.02235174447,-187500.02235174447
$SILENCE,35163.96554278917,-6687.351368349954,16747.69273372802,13101.095032822495,-187500.02235174447,-187500.02235174447,-187500.02235174447,-187500.02235174447
$SILENCE,35291.77281758461,-6637.3728677478875,16878.048107391372,13193.18421997836,-187500.02235174447,-187500.02235174447,-187500.02235174447,-187500.02235174447
$SILENCE,35175.029656294544,-6583.616922332874,16598.964226122407,13310.73204406882,-187500.02235174447,-187500.02235174447,-187500.02235174447,-187500.02235174447
$SILENCE,35086.94143139618,-6570.58585531543,16522.834184507632,13325.417140175956,-187500.02235174447,-187500.02235174447,-187500.02235174447,-187500.02235174447
$SILENCE,35261.46385210322,-6555.498427808097,16868.95094739806,13248.482435760789,-187500.02235174447,-187500.02235174447,-187500.02235174447,-187500.02235174447
$SILENCE,35355.18471660432,-6551.922148695248,16927.91484927116,13238.401799011446,-187500.02235174447,-187500.02235174447,-187500.02235174447,-187500.02235174447
$SILENCE,35129.186228416715,-6658.048231369046,16554.394847678526,13215.066577800106,-187500.02235174447,-187500.02235174447,-187500.02235174447,-187500.02235174447
$SILENCE,35038.08051801688,-6621.324315228977,16389.751898020735,13275.662157018443,-187500.02235174447,-187500.02235174447,-187500.02235174447,-187500.02235174447
$SILENCE,35197.8060838945,-6605.409873176798,16725.765672417365,13212.227906254282,-187500.02235174447,-187500.02235174447,-187500.02235174447,-187500.02235174447
$SILENCE,35360.97381841824,-6561.86867497786,17005.050719386425,13242.469816502311,-187500.02235174447,-187500.02235174447,-187500.02235174447,-187500.02235174447
$SILENCE,35280.954573268245,-6535.895947920793,16807.930685035073,13320.767977329253,-187500.02235174447,-187500.02235174447,-187500.02235174447,-187500.02235174447
$SILENCE,35080.99586737107,-6573.201009416701,16405.934561006376,13308.295703923191,-187500.02235174447,-187500.02235174447,-187500.02235174447,-187500.02235174447
$SILENCE,35179.87998484135,-6564.461477334676,16649.121540680117,13246.515482248722,-187500.02235174447,-187500.02235174447,-187500.02235174447,-187500.02235174447
$SILENCE,35342.555980987076,-6579.392442630821,16953.21702399457,13214.217211510804,-187500.02235174447,-187500.02235174447,-187500.02235174447,-187500.02235174447
$SILENCE,35280.060503490036,-6582.409928132288,16774.827751496763,13260.06063938864,-187500.02235174447,-187500.02235174447,-187500.02235174447,-187500.02235174447
$SILENCE,35124.04532719199,-6558.001823187092,16472.20748331636,13332.793215846208,-187500.02235174447,-187500.02235174447,-187500.02235174447,-187500.02235174447
$SILENCE,35154.130775228834,-6580.375919386855,16613.04582512925,13255.255014330747,-187500.02235174447,-187500.02235174447,-187500.02235174447,-187500.02235174447
$SILENCE,35336.56571347305,-6575.078555950947,16966.851588112306,13229.170528551404,-187500.02235174447,-187500.02235174447,-187500.02235174447,-187500.02235174447
$SILENCE,35346.109908355465,-6532.029096130025,16899.05874717936,13298.080956707116,-187500.02235174447,-187500.02235174447,-187500.02235174447,-187500.02235174447
$SILENCE,35185.64673491081,-6516.472281989131,16561.83797858214,13373.49574249932,-187500.02235174447,-187500.02235174447,-187500.02235174447,-187500.02235174447
$SILENCE,35136.98698723161,-6561.555750555486,16537.98866724833,13285.72044202333,-187500.02235174447,-187500.02235174447,-187500.02235174447,-187500.02235174447
$SILENCE,35305.94382356928,-6585.516820611575,16887.592302273788,13203.42131893889,-187500.02235174447,-187500.02235174447,-187500.02235174447,-187500.02235174447
$SILENCE,35337.07980359552,-6561.287529622023,16883.747802227474,13233.95380186484,-187500.02235174447,-187500.02235174447,-187500.02235174447,-187500.02235174447
$SILENCE,35195.36974374887,-6544.702535236184,16573.438533954446,13337.263564737268,-187500.02235174447,-187500.02235174447,-187500.02235174447,-187500.02235174447
$SILENCE,35128.9403592277,-6550.2681196055555,16518.6991117834,13308.318055667647,-187500.02235174447,-187500.02235174447,-187500.02235174447,-187500.02235174447
$SILENCE,35318.79607663108,-6550.491637050109,16907.999444961482,13248.124807849505,-187500.02235174447,-187500.02235174447,-187500.02235174447,-187500.02235174447
$SILENCE,35385.38192336344,-6551.095134150402,16980.5085039745,13278.567883797632,-187500.02235174447,-187500.02235174447,-187500.02235174447,-187500.02235174447
$SILENCE,35245.32589260649,-6526.8434914163945,16619.43842404347,13348.908823598484,-187500.02235174447,-187500.02235174447,-187500.02235174447,-187500.02235174447
$SILENCE,35126.302853381974,-6543.607299757874,16469.50292223727,13323.740759341808,-187500.02235174447,-187500.02235174447,-187500.02235174447,-187500.02235174447
$SILENCE,35279.12173022291,-6557.420677831255,16822.168746253104,13237.306563533135,-187500.02235174447,-187500.02235174447,-187500.02235174447,-187500.02235174447
$SILENCE,35425.927987805364,-6517.232241300612,17035.89612673475,13280.736003009797,-187500.02235174447,-187500.02235174447,-187500.02235174447,-187500.02235174447
$SILENCE,35349.105042112475,-6458.223635938602,16790.921007504585,13402.351844591123,-187500.02235174447,-187500.02235174447,-187500.02235174447,-187500.02235174447
$SILENCE,35108.33205083991,-6562.494523822609,16433.20368924185,13311.20143070238,-187500.02235174447,-187500.02235174447,-187500.02235174447,-187500.02235174447
$SILENCE,35225.92457841928,-6591.440032892231,16725.11747182816,13218.32993249058,-187500.02235174447,-187500.02235174447,-187500.02235174447,-187500.02235174447
$SILENCE,35398.10006595851,-6552.6150527733635,16974.49588471602,13246.493130504266,-187500.02235174447,-187500.02235174447,-187500.02235174447,-187500.02235174447
$SILENCE,35316.15857078535,-6515.131177321813,16758.7568472334,13330.602744889587,-187500.02235174447,-187500.02235174447,-187500.02235174447,-187500.02235174447
$SILENCE,35193.17927279226,-6484.263418229034,16521.046044951207,13384.470449026878,-187500.02235174447,-187500.02235174447,-187500.02235174447,-187500.02235174447
$SILENCE,35264.43663411577,-6517.81338665645,16729.677227697044,13284.804020500664,-187500.02235174447,-187500.02235174447,-187500.02235174447,-187500.02235174447
$SILENCE,35367.76874873266,-6572.485753594131,16945.460968668576,13210.417414953401,-187500.02235174447,-187500.02235174447,-187500.02235174447,-187500.02235174447
$SILENCE,35342.48892575371,-6533.1243316083355,16835.04335105936,13306.932247511417,-187500.02235174447,-187500.02235174447,-187500.02235174447,-187500.02235174447
$SILENCE,35169.10644401389,-6527.715209450151,16526.611629320578,13359.145922559015,-187500.02235174447,-187500.02235174447,-187500.02235174447,-187500.02235174447
$SILENCE,35201.739990918635,-6541.305070078978,16627.887383447574,13281.674776276921,-187500.02235174447,-187500.02235174447,-187500.02235174447,-187500.02235174447
$SILENCE,35408.046592241124,-6539.136950866813,16974.942919605128,13246.962517137828,-187500.02235174447,-187500.02235174447,-187500.02235174447,-187500.02235174447
$SILENCE,35402.48100787175,-6503.66473241624,16894.163715143648,13320.723273840342,-187500.02235174447,-187500.02235174447,-187500.02235174447,-187500.02235174447
$SILENCE,35214.97222363618,-6492.377101466311,16541.09555972762,13386.37034730558,-187500.02235174447,-187500.02235174447,-187500.02235174447,-187500.02235174447
$SILENCE,35185.28910699953,-6538.86872993335,16562.7096966159,13290.4366601034,-187500.02235174447,-187500.02235174447,-187500.02235174447,-187500.02235174447
$SILENCE,35400.20112993731,-6522.507252992064,16985.51529473249,13254.226834085803,-187500.02235174447,-187500.02235174447,-187500.02235174447,-187500.02235174447
$SILENCE,35458.181555054376,-6465.353842419844,17017.74651023704,13350.629907921542,-187500.02235174447,-187500.02235174447,-187500.02235174447,-187500.02235174447
$SILENCE,35218.369688793384,-6516.226412800123,16564.676650127967,13357.201320791402,-187500.02235174447,-187500.02235174447,-187500.02235174447,-187500.02235174447
$SILENCE,35153.236705450625,-6530.173901340235,16489.50773352477,13318.041064505705,-187500.02235174447,-187500.02235174447,-187500.02235174447,-187500.02235174447
$SILENCE,35340.56667573055,-6542.959099168671,16869.062706120338,13231.651572185943,-187500.02235174447,-187500.02235174447,-187500.02235174447,-187500.02235174447
$SILENCE,35412.941624276835,-6533.996049642093,16955.340439717824,13273.583444784099,-187500.02235174447,-187500.02235174447,-187500.02235174447,-187500.02235174447
$SILENCE,35278.40647440034,-6490.991293310081,16665.930052510506,13376.468524511878,-187500.02235174447,-187500.02235174447,-187500.02235174447,-187500.02235174447
$SILENCE,35166.06660676797,-6502.949476593671,16506.91974245545,13353.44622772291,-187500.02235174447,-187500.02235174447,-187500.02235174447,-187500.02235174447
$SILENCE,35337.95152162928,-6512.1136918203465,16864.01121187344,13272.689375005886,-187500.02235174447,-187500.02235174447,-187500.02235174447,-187500.02235174447
$SILENCE,35466.31759003611,-6483.168182750725,17021.479251561075,13293.051814204671,-187500.02235174447,-187500.02235174447,-187500.02235174447,-187500.02235174447
$SILENCE,35325.054565078564,-6470.47239190011,16722.099986326695,13378.502533257311,-187500.02235174447,-187500.02235174447,-187500.02235174447,-187500.02235174447
$SILENCE,35135.57882733093,-6518.14866282328,16442.479663190803,13334.849576336095,-187500.02235174447,-187500.02235174447,-187500.02235174447,-187500.02235174447
$SILENCE,35304.870939835426,-6519.221546557134,16776.548835819824,13280.57954079861,-187500.02235174447,-187500.02235174447,-187500.02235174447,-187500.02235174447
$SILENCE,35448.950284594335,-6517.254593045068,17016.89714394774,13281.697128021375,-187500.02235174447,-187500.02235174447,-187500.02235174447,-187500.02235174447
$SILENCE,35349.97676014624,-6499.99904632557,16785.310719646302,13351.456922466388,-187500.02235174447,-187500.02235174447,-187500.02235174447,-187500.02235174447
$SILENCE,35191.815816380484,-6480.821249582917,16546.571737119168,13402.731824246863,-187500.02235174447,-187500.02235174447,-187500.02235174447,-187500.02235174447
$SILENCE,35316.87382660792,-6463.833923796884,16825.09682477675,13361.336393515634,-187500.02235174447,-187500.02235174447,-187500.02235174447,-187500.02235174447
$SILENCE,35403.15156020541,-6535.515968265053,16931.289962683913,13240.726380434799,-187500.02235174447,-187500.02235174447,-187500.02235174447,-187500.02235174447
$SILENCE,35363.43251030833,-6500.0213980700255,16787.098859202728,13313.056625492172,-187500.02235174447,-187500.02235174447,-187500.02235174447,-187500.02235174447
$SILENCE,35229.23263659867,-6444.65612705423,16528.645638066013,13411.113728417604,-187500.02235174447,-187500.02235174447,-187500.02235174447,-187500.02235174447
$SILENCE,35258.49107009066,-6487.973807808615,16675.027212503817,13334.000210046794,-187500.02235174447,-187500.02235174447,-187500.02235174447,-187500.02235174447
$SILENCE,35383.28085938464,-6555.4313725747315,16951.40653269369,13225.147214549448,-187500.02235174447,-187500.02235174447,-187500.02235174447,-187500.02235174447
$SILENCE,35396.84836826901,-6509.654999930263,16888.66518600764,13309.480346379321,-187500.02235174447,-187500.02235174447,-187500.02235174447,-187500.02235174447
$SILENCE,35223.912921418305,-6482.14000250578,16540.000324249308,13379.374251291067,-187500.02235174447,-187500.02235174447,-187500.02235174447,-187500.02235174447
$SILENCE,35222.97414815118,-6491.0359967989925,16602.831077913175,13342.87385259555,-187500.02235174447,-187500.02235174447,-187500.02235174447,-187500.02235174447
$SILENCE,35423.26813021518,-6505.788148139495,16977.379259750756,13281.00422394326,-187500.02235174447,-187500.02235174447,-187500.02235174447,-187500.02235174447
$SILENCE,35458.98621785477,-6482.050595527959,16966.896291601217,13338.939945571417,-187500.02235174447,-187500.02235174447,-187500.02235174447,-187500.02235174447
$SILENCE,35287.34717218246,-6456.256682426534,16618.119671120607,13405.414033581501,-187500.02235174447,-187500.02235174447,-187500.02235174447,-187500.02235174447
$SILENCE,35202.231729296655,-6481.715319361129,16548.739856331333,13357.201320791402,-187500.02235174447,-187500.02235174447,-187500.02235174447,-187500.02235174447
$SILENCE,35359.52095502865,-6519.892098890794,16909.899343240184,13269.604834271055,-187500.02235174447,-187500.02235174447,-187500.02235174447,-187500.02235174447
$SILENCE,35476.10765410753,-6470.450040155654,17005.341292064346,13325.64065762051,-187500.02235174447,-187500.02235174447,-187500.02235174447,-187500.02235174447
$SILENCE,35285.64843960386,-6489.024339798015,16625.875726446597,13357.424838235956,-187500.02235174447,-187500.02235174447,-187500.02235174447,-187500.02235174447
$SILENCE,35171.900412070805,-6507.397473740277,16477.79541943019,13350.540500943722,-187500.02235174447,-187500.02235174447,-187500.02235174447,-187500.02235174447
$SILENCE,35349.93205665732,-6500.110805047847,16844.878118619697,13286.34629086808,-187500.02235174447,-187500.02235174447,-187500.02235174447,-187500.02235174447
$SILENCE,35487.5740990131,-6479.547200148964,17072.217711474623,13320.656218606975,-187500.02235174447,-187500.02235174447,-187500.02235174447,-187500.02235174447
$SILENCE,35380.75511226119,-6451.719278302107,16800.934589020562,13409.057367927715,-187500.02235174447,-187500.02235174447,-187500.02235174447,-187500.02235174447
$SILENCE,35227.39979355333,-6444.544368331954,16488.07722187963,13413.974751707883,-187500.02235174447,-187500.02235174447,-187500.02235174447,-187500.02235174447
$SILENCE,35280.59694535696,-6512.225450542624,16726.324466028746,13265.134485379993,-187500.02235174447,-187500.02235174447,-187500.02235174447,-187500.02235174447
$SILENCE,35422.172894736876,-6531.8949856632935,16985.984681366048,13246.135502592982,-187500.02235174447,-187500.02235174447,-187500.02235174447,-187500.02235174447
$SILENCE,35371.0991586565,-6482.743499606073,16782.98613822295,13361.224634793358,-187500.02235174447,-187500.02235174447,-187500.02235174447,-187500.02235174447
$SILENCE,35205.316270031486,-6478.966054793126,16480.25411132027,13390.281902585257,-187500.02235174447,-187500.02235174447,-187500.02235174447,-187500.02235174447
$SILENCE,35281.40160815735,-6493.04765379997,16705.336177985213,13311.089671980104,-187500.02235174447,-187500.02235174447,-187500.02235174447,-187500.02235174447
$SILENCE,35465.75879642472,-6477.356729192345,17037.03606570197,13297.857439262563,-187500.02235174447,-187500.02235174447,-187500.02235174447,-187500.02235174447
$SILENCE,35440.143697278945,-6454.043859725459,16897.71764251204,13382.905826915006,-187500.02235174447,-187500.02235174447,-187500.02235174447,-187500.02235174447
$SILENCE,35232.18306686677,-6474.003967524049,16523.281219396737,13409.660865028009,-187500.02235174447,-187500.02235174447,-187500.02235174447,-187500.02235174447
$SILENCE,35235.42406981278,-6498.322665491422,16636.939839951974,13313.168384214448,-187500.02235174447,-187500.02235174447,-187500.02235174447,-187500.02235174447
$SILENCE,35436.14273502144,-6485.962150807638,17008.805812454917,13279.707822764853,-187500.02235174447,-187500.02235174447,-187500.02235174447,-187500.02235174447
$SILENCE,35440.88130484597,-6469.444211655165,16919.041206722406,13340.392808961013,-187500.02235174447,-187500.02235174447,-187500.02235174447,-187500.02235174447
$SILENCE,35260.390968369364,-6465.219731953112,16541.788463805733,13404.519963803288,-187500.02235174447,-187500.02235174447,-187500.02235174447,-187500.02235174447
$SILENCE,35231.62427325538,-6482.09529901687,16570.89043508654,13333.463768179867,-187500.02235174447,-187500.02235174447,-187500.02235174447,-187500.02235174447
$SILENCE,35404.02327823917,-6494.992255567581,16940.364770932767,13265.693278991375,-187500.02235174447,-187500.02235174447,-187500.02235174447,-187500.02235174447
$SILENCE,35446.75981363771,-6485.448060685166,16963.096495043814,13318.10811973907,-187500.02235174447,-187500.02235174447,-187500.02235174447,-187500.02235174447
$SILENCE,35294.70089610826,-6467.99134826557,16619.43842404347,13390.036033396249,-187500.02235174447,-187500.02235174447,-187500.02235174447,-187500.02235174447
$SILENCE,35218.57085449348,-6472.260531456534,16541.676705083457,13361.671669682464,-187500.02235174447,-187500.02235174447,-187500.02235174447,-187500.02235174447
$SILENCE,35386.81243500858,-6492.757081122051,16911.553372329876,13278.903159964462,-187500.02235174447,-187500.02235174447,-187500.02235174447,-187500.02235174447
$SILENCE,35488.78109321369,-6462.1575429627355,17025.971952196593,13332.726160612841,-187500.02235174447,-187500.02235174447,-187500.02235174447,-187500.02235174447
$SILENCE,35313.56576842854,-6475.23331346909,16671.7862095578,13388.516114773289,-187500.02235174447,-187500.02235174447,-187500.02235174447,-187500.02235174447
$SILENCE,35191.59229893593,-6483.9951972955705,16497.196733617395,13367.416068007478,-187500.02235174447,-187500.02235174447,-187500.02235174447,-187500.02235174447
$SILENCE,35364.03600740862,-6474.026319268503,16848.789673899373,13302.998340487284,-187500.02235174447,-187500.02235174447,-187500.02235174447,-187500.02235174447
$SILENCE,35460.1708603109,-6488.197325253168,17032.163385410713,13300.383186386012,-187500.02235174447,-187500.02235174447,-187500.02235174447,-187500.02235174447
$SILENCE,35379.77163550516,-6448.634737567275,16808.355368179724,13402.50830680231,-187500.02235174447,-187500.02235174447,-187500.02235174447,-187500.02235174447
$SILENCE,35256.3229508785,-6425.187757633657,16535.284106169238,13425.843528013651,-187500.02235174447,-187500.02235174447,-187500.02235174447,-187500.02235174447
$SILENCE,35281.088683734975,-6524.3400960374,16714.254524022883,13254.159778852438,-187500.02235174447,-187500.02235174447,-187500.02235174447,-187500.02235174447
$SILENCE,35427.91729306189,-6507.173956295724,16968.93030034665,13260.23945334428,-187500.02235174447,-187500.02235174447,-187500.02235174447,-187500.02235174447
$SILENCE,35370.18273713383,-6480.7094908606405,16785.444830113036,13351.903957355495,-187500.02235174447,-187500.02235174447,-187500.02235174447,-187500.02235174447
$SILENCE,35218.392040537845,-6462.895150529761,16522.275390896248,13402.016568424293,-187500.02235174447,-187500.02235174447,-187500.02235174447,-187500.02235174447
$SILENCE,35326.01569009014,-6435.111932171814,16775.967690463985,13355.323774257156,-187500.02235174447,-187500.02235174447,-187500.02235174447,-187500.02235174447
$SILENCE,35446.82686887108,-6494.500517189565,17021.3674928388,13278.478476819811,-187500.02235174447,-187500.02235174447,-187500.02235174447,-187500.02235174447
$SILENCE,35375.748321503204,-6498.121499791325,16827.71197887802,13329.82043383365,-187500.02235174447,-187500.02235174447,-187500.02235174447,-187500.02235174447
$SILENCE,35225.83517144146,-6456.9942899935595,16503.008187175776,13401.502478301822,-187500.02235174447,-187500.02235174447,-187500.02235174447,-187500.02235174447
$SILENCE,35261.68736954777,-6463.99038600807,16652.29548839277,13341.35393397259,-187500.02235174447,-187500.02235174447,-187500.02235174447,-187500.02235174447
$SILENCE,35409.07477248606,-6512.091340075892,16960.883672342738,13257.400781798457,-187500.02235174447,-187500.02235174447,-187500.02235174447,-187500.02235174447
$SILENCE,35429.2136942403,-6479.524848404509,16920.87404976774,13329.328695455635,-187500.02235174447,-187500.02235174447,-187500.02235174447,-187500.02235174447
$SILENCE,35280.060503490036,-6426.5288623009765,16609.558952994223,13444.283717189279,-187500.02235174447,-187500.02235174447,-187500.02235174447,-187500.02235174447
$SILENCE,35281.96040176874,-6419.55511803092,16656.72113379492,13399.5131730453,-187500.02235174447,-187500.02235174447,-187500.02235174447,-187500.02235174447
$SILENCE,35380.44218783882,-6519.534470979509,16901.58449430281,13238.357095522535,-187500.02235174447,-187500.02235174447,-187500.02235174447,-187500.02235174447
$SILENCE,35414.48389464425,-6497.406243968755,16903.30557862587,13290.570770570133,-187500.02235174447,-187500.02235174447,-187500.02235174447,-187500.02235174447
$SILENCE,35288.68827684978,-6440.722220030096,16619.61723799911,13413.907696474516,-187500.02235174447,-187500.02235174447,-187500.02235174447,-187500.02235174447
$SILENCE,35190.65352566881,-6485.202191496157,16526.41046362048,13360.688192926431,-187500.02235174447,-187500.02235174447,-187500.02235174447,-187500.02235174447
$SILENCE,35382.16327216187,-6499.8425841143835,16920.695235812098,13280.780706498708,-187500.02235174447,-187500.02235174447,-187500.02235174447,-187500.02235174447
$SILENCE,35481.27090707671,-6458.491856872065,17032.453958088634,13334.894279825006,-187500.02235174447,-187500.02235174447,-187500.02235174447,-187500.02235174447
$SILENCE,35335.2916640391,-6441.191606663658,16702.25163725038,13413.79593775224,-187500.02235174447,-187500.02235174447,-187500.02235174447,-187500.02235174447
$SILENCE,35170.089920769926,-6492.064177043936,16472.520407738735,13360.107047570593,-187500.02235174447,-187500.02235174447,-187500.02235174447,-187500.02235174447
$SILENCE,35326.954463357266,-6492.533563677498,16809.22708621348,13271.392973827478,-187500.02235174447,-187500.02235174447,-187500.02235174447,-187500.02235174447
$SILENCE,35453.420633485395,-6482.318816461422,17009.968103166593,13293.476497349322,-187500.02235174447,-187500.02235174447,-187500.02235174447,-187500.02235174447
$SILENCE,35396.87072001347,-6407.842803936339,16819.4194816851,13434.56070835122,-187500.02235174447,-187500.02235174447,-187500.02235174447,-187500.02235174447
$SILENCE,35267.61058182843,-6373.421117475166,16562.352068704615,13468.065973289726,-187500.02235174447,-187500.02235174447,-187500.02235174447,-187500.02235174447
$SILENCE,35221.00719463911,-6569.088288436925,16678.5364363833,13213.166679521404,-187500.02235174447,-187500.02235174447,-187500.02235174447,-187500.02235174447
$SILENCE,35418.037822012644,-6521.613183213853,16976.26167252799,13255.09855211956,-187500.02235174447,-187500.02235174447,-187500.02235174447,-187500.02235174447
$SILENCE,35369.78040573364,-6478.027281526003,16795.592522095743,13353.334469000634,-187500.02235174447,-187500.02235174447,-187500.02235174447,-187500.02235174447
$SILENCE,35207.99847936612,-6470.181819222191,16504.148126142994,13398.105013144615,-187500.02235174447,-187500.02235174447,-187500.02235174447,-187500.02235174447
$SILENCE,35272.773834797605,-6496.66863640173,16697.73658487041,13311.737872569309,-187500.02235174447,-187500.02235174447,-187500.02235174447,-187500.02235174447
$SILENCE,35447.98915958276,-6494.724034634118,17007.531763020965,13280.713651265341,-187500.02235174447,-187500.02235174447,-187500.02235174447,-187500.02235174447
$SILENCE,35418.753077835216,-6459.788258050473,16880.90913068165,13355.882567868539,-187500.02235174447,-187500.02235174447,-187500.02235174447,-187500.02235174447
$SILENCE,35243.40364258333,-6443.806760764928,16548.538690631234,13427.60931582562,-187500.02235174447,-187500.02235174447,-187500.02235174447,-187500.02235174447
$SILENCE,35256.412357856316,-6474.540409390976,16657.928127995507,13344.237309007325,-187500.02235174447,-187500.02235174447,-187500.02235174447,-187500.02235174447
$SILENCE,35409.4100486529,-6496.579229423908,16966.91864334567,13267.615529014533,-187500.02235174447,-187500.02235174447,-187500.02235174447,-187500.02235174447
$SILENCE,35418.66367085739,-6486.923275819216,16903.48439258151,13324.724236097842,-187500.02235174447,-187500.02235174447,-187500.02235174447,-187500.02235174447
$SILENCE,35233.010081411616,-6486.677406630208,16547.376399919558,13382.257626325802,-187500.02235174447,-187500.02235174447,-187500.02235174447,-187500.02235174447
$SILENCE,35207.01500261009,-6485.269246729523,16571.739801375843,13341.510396183778,-187500.02235174447,-187500.02235174447,-187500.02235174447,-187500.02235174447
$SILENCE,35417.210807467796,-6494.791089867484,16963.387067721735,13288.5367618247,-187500.02235174447,-187500.02235174447,-187500.02235174447,-187500.02235174447
$SILENCE,35464.194174312855,-6472.975787279104,16985.738812177042,13337.151806014992,-187500.02235174447,-187500.02235174447,-187500.02235174447,-187500.02235174447
$SILENCE,35305.54149216908,-6459.967072006116,16666.01945948833,13410.376120850578,-187500.02235174447,-187500.02235174447,-187500.02235174447,-187500.02235174447
$SILENCE,35196.26381352709,-6490.7454241210735,16528.8021002772,13355.904919612994,-187500.02235174447,-187500.02235174447,-187500.02235174447,-187500.02235174447
$SILENCE,35384.10787392949,-6485.291598473978,16889.559255785854,13285.519276323233,-187500.02235174447,-187500.02235174447,-187500.02235174447,-187500.02235174447
$SILENCE,35493.07262814911,-6465.197380208658,17019.087614904358,13322.936096541418,-187500.02235174447,-187500.02235174447,-187500.02235174447,-187500.02235174447
$SILENCE,35292.488073407185,-6505.564630694942,16638.124482408104,13351.412218977479,-187500.02235174447,-187500.02235174447,-187500.02235174447,-187500.02235174447
$SILENCE,35152.879077539335,-6525.412979771255,16441.853814346054,13333.441416435411,-187500.02235174447,-187500.02235174447,-187500.02235174447,-187500.02235174447
$SILENCE,35320.96419584325,-6517.120482578335,16806.388414667657,13275.237473873793,-187500.02235174447,-187500.02235174447,-187500.02235174447,-187500.02235174447
$SILENCE,35474.252459317744,-6492.131232277302,17024.27321961799,13301.120793953038,-187500.02235174447,-187500.02235174447,-187500.02235174447,-187500.02235174447
$SILENCE,35394.56849033457,-6443.337374131367,16789.490495859445,13409.772623750285,-187500.02235174447,-187500.02235174447,-187500.02235174447,-187500.02235174447
$SILENCE,35186.13847328883,-6488.420842697721,16483.606872988566,13376.915559400984,-187500.02235174447,-187500.02235174447,-187500.02235174447,-187500.02235174447
$SILENCE,35277.825329044506,-6518.238069801101,16725.609210206178,13276.511523307745,-187500.02235174447,-187500.02235174447,-187500.02235174447,-187500.02235174447
talvez,35454.35940675252,-6505.072892316925,17006.16830660919,13273.985776184294,-187500.02235174447,-187500.02235174447,-187500.02235174447,-187500.02235174447
talvez,35376.39652209241,-6484.28576997349,16820.335903207768,13361.492855726821,-187500.02235174447,-187500.02235174447,-187500.02235174447,-187500.02235174447
talvez,35227.15392436432,-6461.643452840263,16519.28025713924,13409.571458050188,-187500.02235174447,-187500.02235174447,-187500.02235174447,-187500.02235174447
talvez,35265.19659342725,-6508.269191774034,16668.54520661178,13290.593122314587,-187500.02235174447,-187500.02235174447,-187500.02235174447,-187500.02235174447
talvez,35445.28459850366,-6511.845470886883,16982.386050508743,13249.28709856118,-187500.02235174447,-187500.02235174447,-187500.02235174447,-187500.02235174447
talvez,35411.891092287435,-6494.232296256101,16866.089924107782,13331.318000712157,-187500.02235174447,-187500.02235174447,-187500.02235174447,-187500.02235174447
talvez,35222.795334195536,-6480.843601327372,16516.396882104502,13388.672576984476,-187500.02235174447,-187500.02235174447,-187500.02235174447,-187500.02235174447
talvez,35257.194668912256,-6470.85237155585,16655.089456449685,13344.013791562771,-187500.02235174447,-187500.02235174447,-187500.02235174447,-187500.02235174447
talvez,35455.3205317641,-6480.083642015892,17003.88842867475,13293.454145604866,-187500.02235174447,-187500.02235174447,-187500.02235174447,-187500.02235174447
talvez,35403.19626369432,-6517.902793634271,16877.377555057712,13297.455107862366,-187500.02235174447,-187500.02235174447,-187500.02235174447,-187500.02235174447
talvez,35266.15771843883,-6455.8767027707945,16593.84567664214,13414.42178659699,-187500.02235174447,-187500.02235174447,-187500.02235174447,-187500.02235174447
talvez,35216.60390098142,-6491.594790410375,16594.89620863154,13342.002134561793,-187500.02235174447,-187500.02235174447,-187500.02235174447,-187500.02235174447
talvez,35388.466464098274,-6521.054389602469,16906.412471105155,13240.659325201432,-187500.02235174447,-187500.02235174447,-187500.02235174447,-187500.02235174447
talvez,35443.697624647335,-6496.758043379551,16936.16264297517,13295.689320050398,-187500.02235174447,-187500.02235174447,-187500.02235174447,-187500.02235174447
talvez,35294.47737866371,-6455.452019626144,16634.77172073981,13406.442213826444,-187500.02235174447,-187500.02235174447,-187500.02235174447,-187500.02235174447
talvez,35170.492252170116,-6503.552973693964,16486.624358490033,13325.797119831697,-187500.02235174447,-187500.02235174447,-187500.02235174447,-187500.02235174447
talvez,35363.05253065259,-6505.341113250389,16865.642889218678,13263.838084201585,-187500.02235174447,-187500.02235174447,-187500.02235174447,-187500.02235174447
talvez,35464.97648536879,-6498.166203280235,17002.12264086278,13298.192715429392,-187500.02235174447,-187500.02235174447,-187500.02235174447,-187500.02235174447
talvez,35303.105152023454,-6504.29058126099,16679.25169220587,13364.68915518393,-187500.02235174447,-187500.02235174447,-187500.02235174447,-187500.02235174447
talvez,35204.44455199773,-6492.600618910864,16498.001396417785,13364.800913906207,-187500.02235174447,-187500.02235174447,-187500.02235174447,-187500.02235174447
talvez,35368.61811502196,-6481.111822260836,16861.15018858316,13302.73011955382,-187500.02235174447,-187500.02235174447,-187500.02235174447,-187500.02235174447
talvez,35446.93862759336,-6514.125348821324,16975.12173356077,13272.756430239253,-187500.02235174447,-187500.02235174447,-187500.02235174447,-187500.02235174447
talvez,35327.35679475746,-6496.758043379551,16706.811393119264,13340.482215938833,-187500.02235174447,-187500.02235174447,-187500.02235174447,-187500.02235174447
talvez,35186.4066942223,-6479.323682704411,16471.58163447161,13375.105068100103,-187500.02235174447,-187500.02235174447,-187500.02235174447,-187500.02235174447
talvez,35305.340326468984,-6498.456775958154,16755.381733820646,13289.29672113618,-187500.02235174447,-187500.02235174447,-187500.02235174447,-187500.02235174447
talvez,35448.14562179394,-6514.013590099048,17013.924361935184,13261.446447544868,-187500.02235174447,-187500.02235174447,-187500.02235174447,-187500.02235174447
talvez,35404.559720106095,-6462.693984829662,16843.84993837475,13369.338318030635,-187500.02235174447,-187500.02235174447,-187500.02235174447,-187500.02235174447
talvez,35212.379421279365,-6461.263473184523,16514.474632081346,13393.74642297583,-187500.02235174447,-187500.02235174447,-187500.02235174447,-187500.02235174447
talvez,35242.39781408284,-6511.465491231143,16686.516009153846,13292.716538037843,-187500.02235174447,-187500.02235174447,-187500.02235174447,-187500.02235174447
talvez,35426.88911281695,-6511.666656931241,16974.764105649487,13252.997488140762,-187500.02235174447,-187500.02235174447,-187500.02235174447,-187500.02235174447
talvez,35399.91055725939,-6491.527735177009,16846.688609920577,13323.025503519239,-187500.02235174447,-187500.02235174447,-187500.02235174447,-187500.02235174447
talvez,35230.28316858807,-6467.276092443,16520.666065295467,13390.013681651793,-187500.02235174447,-187500.02235174447,-187500.02235174447,-187500.02235174447
talvez,35223.2647208291,-6504.089415560891,16611.794127439753,13314.353026670578,-187500.02235174447,-187500.02235174447,-187500.02235174447,-187500.02235174447
talvez,35433.77345010918,-6503.3071045049555,17030.978742954583,13276.064488418639,-187500.02235174447,-187500.02235174447,-187500.02235174447,-187500.02235174447
talvez,35429.81719134059,-6488.689063631185,16926.104357970282,13325.886526809518,-187500.02235174447,-187500.02235174447,-187500.02235174447,-187500.02235174447
talvez,35241.92842744928,-6473.534580890487,16531.864289267574,13384.492800771333,-187500.02235174447,-187500.02235174447,-187500.02235174447,-187500.02235174447
talvez,35224.85169468543,-6466.85140929835,16565.12368501707,13348.528843942744,-187500.02235174447,-187500.02235174447,-187500.02235174447,-187500.02235174447
talvez,35385.62779255245,-6506.9504388511705,16930.73116907253,13257.736057965287,-187500.02235174447,-187500.02235174447,-187500.02235174447,-187500.02235174447
talvez,35458.85210738803,-6484.352825206855,16987.862227900296,13320.20918371787,-187500.02235174447,-187500.02235174447,-187500.02235174447,-187500.02235174447
talvez,35246.19761064024,-6524.630668715319,16571.203359508916,13336.97299205935,-187500.02235174447,-187500.02235174447,-187500.02235174447,-187500.02235174447
talvez,35181.08697904193,-6502.569496937931,16493.329881826627,13336.63771589252,-187500.02235174447,-187500.02235174447,-187500.02235174447,-187500.02235174447
talvez,35370.0486266671,-6495.774566623517,16891.749726742473,13273.762258739742,-187500.02235174447,-187500.02235174447,-187500.02235174447,-187500.02235174447
talvez,35474.16305233992,-6475.054499513448,17023.490908562053,13308.496869623288,-187500.02235174447,-187500.02235174447,-187500.02235174447,-187500.02235174447
talvez,35310.70474513826,-6467.589016865375,16673.842570047687,13369.047745352716,-187500.02235174447,-187500.02235174447,-187500.02235174447,-187500.02235174447
talvez,35171.49808067061,-6487.079738030403,16463.15502681196,13355.12260855706,-187500.02235174447,-187500.02235174447,-187500.02235174447,-187500.02235174447
talvez,35277.71357032222,-6544.344907324899,16762.869568213173,13235.652534443443,-187500.02235174447,-187500.02235174447,-187500.02235174447,-187500.02235174447
talvez,35429.88424657396,-6512.605430198363,16993.919550647683,13273.315223850635,-187500.02235174447,-187500.02235174447,-187500.02235174447,-187500.02235174447
talvez,35335.537533228104,-6482.944665306171,16758.823902466764,13359.83882663713,-187500.02235174447,-187500.02235174447,-187500.02235174447,-187500.02235174447
talvez,35190.89939485781,-6473.668691357218,16519.12379492805,13391.064213641193,-187500.02235174447,-187500.02235174447,-187500.02235174447,-187500.02235174447
talvez,35338.75618442967,-6437.570624061897,16822.347560208746,13349.489968954322,-187500.02235174447,-187500.02235174447,-187500.02235174447,-187500.02235174447
talvez,35426.710298861304,-6509.05150282997,16985.783515665953,13244.012086869729,-187500.02235174447,-187500.02235174447,-187500.02235174447,-187500.02235174447
talvez,35343.85238216548,-6503.66473241624,16764.165969391583,13314.10715748157,-187500.02235174447,-187500.02235174447,-187500.02235174447,-187500.02235174447
talvez,35170.425196936754,-6522.082569847414,16451.755637139755,13345.287840996723,-187500.02235174447,-187500.02235174447,-187500.02235174447,-187500.02235174447
talvez,35240.900247204336,-6518.6851046902075,16662.97962224241,13287.262712390748,-187500.02235174447,-187500.02235174447,-187500.02235174447,-187500.02235174447
talvez,35411.06407774259,-6494.455813700654,16983.88361738725,13263.256938845747,-187500.02235174447,-187500.02235174447,-187500.02235174447,-187500.02235174447
talvez,35395.97665023526,-6487.191496752679,16883.85956094975,13334.469596680356,-187500.02235174447,-187500.02235174447,-187500.02235174447,-187500.02235174447
talvez,35223.130610362365,-6486.833868841394,16552.830225566653,13388.493763028833,-187500.02235174447,-187500.02235174447,-187500.02235174447,-187500.02235174447
talvez,35228.00329065362,-6478.1837437371905,16609.223676827394,13321.840861063107,-187500.02235174447,-187500.02235174447,-187500.02235174447,-187500.02235174447
talvez,35420.09418250253,-6468.773659321507,16967.678602657154,13274.321052351124,-187500.02235174447,-187500.02235174447,-187500.02235174447,-187500.02235174447
talvez,35368.416949321865,-6524.563613481952,16867.878063664208,13275.505694807256,-187500.02235174447,-187500.02235174447,-187500.02235174447,-187500.02235174447
talvez,35216.06745911449,-6503.441214971687,16550.237423209837,13372.60167272111,-187500.02235174447,-187500.02235174447,-187500.02235174447,-187500.02235174447
talvez,35185.02088606607,-6505.8328516284055,16561.18977799294,13333.687285624419,-187500.02235174447,-187500.02235174447,-187500.02235174447,-187500.02235174447
talvez,35377.067074426064,-6505.944610350682,16937.056712753383,13259.14421786597,-187500.02235174447,-187500.02235174447,-187500.02235174447,-187500.02235174447
talvez,35440.63543565696,-6477.80376408145,16948.858433825782,13301.858401520063,-187500.02235174447,-187500.02235174447,-187500.02235174447,-187500.02235174447
talvez,35265.21894517171,-6486.386833952289,16595.90203713203,13359.950585359406,-187500.02235174447,-187500.02235174447,-187500.02235174447,-187500.02235174447
talvez,35187.74779888961,-6497.942685835682,16541.52024287227,13348.26062300928,-187500.02235174447,-187500.02235174447,-187500.02235174447,-187500.02235174447
talvez,35381.11274017247,-6469.243045955068,16920.002331733984,13306.999302744784,-187500.02235174447,-187500.02235174447,-187500.02235174447,-187500.02235174447
talvez,35444.83756361456,-6487.839697341883,16997.540533249445,13298.751509040774,-187500.02235174447,-187500.02235174447,-187500.02235174447,-187500.02235174447
talvez,35280.73105582369,-6517.634572700807,16641.164319654028,13328.076997766138,-187500.02235174447,-187500.02235174447,-187500.02235174447,-187500.02235174447
talvez,35154.398996162294,-6498.546182935976,16449.6322214165,13337.464730437367,-187500.02235174447,-187500.02235174447,-187500.02235174447,-187500.02235174447
talvez,35306.524968925114,-6503.508270205053,16803.99677801094,13275.81861922963,-187500.02235174447,-187500.02235174447,-187500.02235174447,-187500.02235174447
talvez,35438.55672342262,-6503.7764911385175,17009.163440366203,13277.71851750833,-187500.02235174447,-187500.02235174447,-187500.02235174447,-187500.02235174447
talvez,35333.90585588287,-6477.8931710592715,16766.423495581566,13364.26447203928,-187500.02235174447,-187500.02235174447,-187500.02235174447,-187500.02235174447
talvez,35221.029546383565,-6418.169309874691,16551.064437754685,13421.462586100411,-187500.02235174447,-187500.02235174447,-187500.02235174447,-187500.02235174447
talvez,35261.19563116976,-6514.840604643894,16736.74037894492,13272.868188961529,-187500.02235174447,-187500.02235174447,-187500.02235174447,-187500.02235174447
talvez,35381.60447855049,-6564.3497186124,16922.505727112977,13215.290095244658,-187500.02235174447,-187500.02235174447,-187500.02235174447,-187500.02235174447
talvez,35357.62105674995,-6504.759967894551,16781.466219599988,13325.193622731404,-187500.02235174447,-187500.02235174447,-187500.02235174447,-187500.02235174447
talvez,35210.79244742304,-6477.826115825906,16502.6952627534,13379.843637924629,-187500.02235174447,-187500.02235174447,-187500.02235174447,-187500.02235174447
talvez,35251.69613977625,-6511.107863319858,16668.791075800786,13284.736965267297,-187500.02235174447,-187500.02235174447,-187500.02235174447,-187500.02235174447
talvez,35424.1621999934,-6521.0320378580145,16978.65330918471,13245.643764214965,-187500.02235174447,-187500.02235174447,-187500.02235174447,-187500.02235174447
talvez,35405.36438290648,-6499.037921313992,16912.73801478601,13325.193622731404,-187500.02235174447,-187500.02235174447,-187500.02235174447,-187500.02235174447
talvez,35239.33562509246,-6480.776546094006,16583.5638741927,13397.546219533233,-187500.02235174447,-187500.02235174447,-187500.02235174447,-187500.02235174447
talvez,35227.77977320907,-6503.932953349705,16586.7154701609,13319.53863138421,-187500.02235174447,-187500.02235174447,-187500.02235174447,-187500.02235174447
talvez,35417.32256619007,-6504.044712071981,16929.144195216202,13243.81092116963,-187500.02235174447,-187500.02235174447,-187500.02235174447,-187500.02235174447
talvez,35472.017284872214,-6443.605595064831,16942.44348316711,13341.35393397259,-187500.02235174447,-187500.02235174447,-187500.02235174447,-187500.02235174447
talvez,35209.60780496691,-6525.837662915906,16522.945943229908,13335.475425180844,-187500.02235174447,-187500.02235174447,-187500.02235174447,-187500.02235174447
talvez,35183.97035407667,-6526.619973971841,16535.84289978062,13309.34623591259,-187500.02235174447,-187500.02235174447,-187500.02235174447,-187500.02235174447
talvez,35411.756981820705,-6508.962095852148,16938.464872654065,13256.394953297968,-187500.02235174447,-187500.02235174447,-187500.02235174447,-187500.02235174447
talvez,35465.222354557794,-6492.891191588783,16972.59598643732,13282.39003209949,-187500.02235174447,-187500.02235174447,-187500.02235174447,-187500.02235174447
talvez,35284.21792795872,-6495.305179989956,16622.165336867016,13358.028335336248,-187500.02235174447,-187500.02235174447,-187500.02235174447,-187500.02235174447
talvez,35194.58743269294,-6480.262455971534,16519.906105983988,13358.609480692086,-187500.02235174447,-187500.02235174447,-187500.02235174447,-187500.02235174447
talvez,35378.98932444922,-6500.937819592693,16894.990729688496,13273.382279084002,-187500.02235174447,-187500.02235174447,-187500.02235174447,-187500.02235174447
talvez,35472.30785755013,-6507.2410115290895,17018.908800948717,13284.714613522841,-187500.02235174447,-187500.02235174447,-187500.02235174447,-187500.02235174447
talvez,35316.337384741,-6470.651205855752,16689.086459766204,13358.07303882516,-187500.02235174447,-187500.02235174447,-187500.02235174447,-187500.02235174447
talvez,35184.417388965776,-6478.787240837484,16483.36100379956,13347.634774164531,-187500.02235174447,-187500.02235174447,-187500.02235174447,-187500.02235174447
talvez,35355.251771837684,-6490.320740976423,16847.873252376707,13242.425113013402,-187500.02235174447,-187500.02235174447,-187500.02235174447,-187500.02235174447
talvez,35488.848148447054,-6520.808520413461,17052.123493209303,13243.028610113694,-187500.02235174447,-187500.02235174447,-187500.02235174447,-187500.02235174447
talvez,35407.219577696276,-6504.3352847499,16836.09388304876,13358.676535925453,-187500.02235174447,-187500.02235174447,-187500.02235174447,-187500.02235174447
talvez,35253.10429967693,-6453.552121347442,16540.760283560787,13395.311045087701,-187500.02235174447,-187500.02235174447,-187500.02235174447,-187500.02235174447
talvez,35237.59218902495,-6562.941558711715,16686.20308473147,13190.502010643722,-187500.02235174447,-187500.02235174447,-187500.02235174447,-187500.02235174447
talvez,35458.449775987836,-6571.725794282651,17067.635603861287,13208.405757952423,-187500.02235174447,-187500.02235174447,-187500.02235174447,-187500.02235174447
talvez,35344.075899610034,-6592.691730581729,16786.428306869067,13253.28806081868,-187500.02235174447,-187500.02235174447,-187500.02235174447,-187500.02235174447
