WORD,Channel_1,Channel_2,Channel_3,Channel_4,Channel_5,Channel_6,Channel_7,Channel_8
$SILENCE,3388.4127007022744,-8201.972627874926,7241.093485485731,11859.612090541374,-187500.02235174447,-187500.02235174447,-187500.02235174447,-187500.02235174447
$SILENCE,3309.1310631193,-8182.4372032209885,7187.829278448735,11889.474021133665,-187500.02235174447,-187500.02235174447,-187500.02235174447,-187500.02235174447
$SILENCE,3108.4794531440084,-8227.185395620512,6682.4563363142415,11947.208577061723,-187500.02235174447,-187500.02235174447,-187500.02235174447,-187500.02235174447
$SILENCE,3163.308282292877,-8262.25528267089,6634.7353619021615,11924.141576783846,-187500.02235174447,-187500.02235174447,-187500.02235174447,-187500.02235174447
$SILENCE,3383.71883436666,-8212.276782068824,7177.882752166123,11855.186445139223,-187500.02235174447,-187500.02235174447,-187500.02235174447,-187500.02235174447
$SILENCE,3336.221377399132,-8178.883275852594,7242.546348875327,11875.235959915633,-187500.02235174447,-187500.02235174447,-187500.02235174447,-187500.02235174447
$SILENCE,3135.4580087015643,-8215.62954373712,6775.014910103669,11937.642030434852,-187500.02235174447,-187500.02235174447,-187500.02235174447,-187500.02235174447
$SILENCE,3133.2898894893992,-8258.053154713292,6596.759748072594,11929.97538208668,-187500.02235174447,-187500.02235174447,-187500.02235174447,-187500.02235174447
$SILENCE,3349.7218310501376,-8225.240793852901,7080.339739363163,11863.478942332142,-187500.02235174447,-187500.02235174447,-187500.02235174447,-187500.02235174447
$SILENCE,3379.0473197755005,-8179.710290397441,7309.020436885409,11863.501294076597,-187500.02235174447,-187500.02235174447,-187500.02235174447,-187500.02235174447
$SILENCE,3167.2198375725557,-8207.761729688851,6846.9875272497575,11928.589573930452,-187500.02235174447,-187500.02235174447,-187500.02235174447,-187500.02235174447
$SILENCE,3103.6738280861173,-8259.774239036351,6540.075724133936,11942.51471072611,-187500.02235174447,-187500.02235174447,-187500.02235174447,-187500.02235174447
$SILENCE,3322.095074903378,-8237.377791092133,6985.903619039491,11876.778230283051,-187500.02235174447,-187500.02235174447,-187500.02235174447,-187500.02235174447
$SILENCE,3394.1123955383773,-8183.174810788013,7305.913544406122,11859.857959730383,-187500.02235174447,-187500.02235174447,-187500.02235174447,-187500.02235174447
$SILENCE,3214.8737567512703,-8200.76563367434,6958.679194292927,11912.228096989167,-187500.02235174447,-187500.02235174447,-187500.02235174447,-187500.02235174447
$SILENCE,3087.759386033939,-8258.544893091308,6539.740447967106,11943.095856081945,-187500.02235174447,-187500.02235174447,-187500.02235174447,-187500.02235174447
$SILENCE,3279.4032429937415,-8250.25239589839,6895.244943528765,11883.774326297562,-187500.02235174447,-187500.02235174447,-187500.02235174447,-187500.02235174447
$SILENCE,3409.713913168182,-8193.188392303991,7313.2896200763735,11855.052334672491,-187500.02235174447,-187500.02235174447,-187500.02235174447,-187500.02235174447
$SILENCE,3260.4713154400965,-8195.848249894172,7057.518608274295,11902.21451547319,-187500.02235174447,-187500.02235174447,-187500.02235174447,-187500.02235174447
$SILENCE,3093.4367291255867,-8251.839369754716,6570.541151826519,11945.465140994209,-187500.02235174447,-187500.02235174447,-187500.02235174447,-187500.02235174447
$SILENCE,3248.267262967499,-8261.182398937035,6793.611561490484,11895.799564814517,-187500.02235174447,-187500.02235174447,-187500.02235174447,-187500.02235174447
$SILENCE,3413.2007853032096,-8198.373997017623,7293.284808788873,11853.420657327255,-187500.02235174447,-187500.02235174447,-187500.02235174447,-187500.02235174447
$SILENCE,3296.5023275020517,-8187.443993978977,7143.259900004852,11893.050300246514,-187500.02235174447,-187500.02235174447,-187500.02235174447,-187500.02235174447
$SILENCE,3108.4123979106425,-8243.055134183782,6624.095931541435,11940.54775721404,-187500.02235174447,-187500.02235174447,-187500.02235174447,-187500.02235174447
$SILENCE,3210.559870071396,-8270.72659381945,6697.27554288811,11905.232000974656,-187500.02235174447,-187500.02235174447,-187500.02235174447,-187500.02235174447
$SILENCE,3419.9510121287126,-8210.354532045667,7250.168293734586,11855.164093394767,-187500.02235174447,-187500.02235174447,-187500.02235174447,-187500.02235174447
$SILENCE,3345.162075181255,-8184.650025922064,7219.121720686165,11880.10864020689,-187500.02235174447,-187500.02235174447,-187500.02235174447,-187500.02235174447
$SILENCE,3138.140218036201,-8229.599384021687,6702.930534235303,11934.17751004428,-187500.02235174447,-187500.02235174447,-187500.02235174447,-187500.02235174447
$SILENCE,3168.180962584134,-8267.239721684424,6617.435111693753,11916.296114480034,-187500.02235174447,-187500.02235174447,-187500.02235174447,-187500.02235174447
$SILENCE,3401.1308432973437,-8218.579974005219,7181.213162089964,11858.561558551975,-187500.02235174447,-187500.02235174447,-187500.02235174447,-187500.02235174447
$SILENCE,3382.3106744659754,-8183.443031721477,7277.459773714516,11871.771439525062,-187500.02235174447,-187500.02235174447,-187500.02235174447,-187500.02235174447
$SILENCE,3174.908837665181,-8218.870546683138,6798.0372068926345,11929.237774519655,-187500.02235174447,-187500.02235174447,-187500.02235174447,-187500.02235174447
$SILENCE,3144.085782061313,-8268.290253673822,6569.602378559396,11930.69063790925,-187500.02235174447,-187500.02235174447,-187500.02235174447,-187500.02235174447
$SILENCE,3374.867543562358,-8230.739322988908,7098.601114583149,11866.317613877967,-187500.02235174447,-187500.02235174447,-187500.02235174447,-187500.02235174447
$SILENCE,3406.316448010975,-8184.00182533286,7320.330419579795,11862.651927787296,-187500.02235174447,-187500.02235174447,-187500.02235174447,-187500.02235174447
$SILENCE,3222.428646377164,-8211.62858147962,6902.486908732285,11915.223230746178,-187500.02235174447,-187500.02235174447,-187500.02235174447,-187500.02235174447
$SILENCE,3139.593081425796,-8263.752849549395,6579.057166463991,11932.45642572122,-187500.02235174447,-187500.02235174447,-187500.02235174447,-187500.02235174447
$SILENCE,3341.004650712568,-8244.150369662091,6982.327339926642,11874.990090726626,-187500.02235174447,-187500.02235174447,-187500.02235174447,-187500.02235174447
$SILENCE,3441.1404658723436,-8188.338063757189,7349.946480983077,11852.638346271318,-187500.02235174447,-187500.02235174447,-187500.02235174447,-187500.02235174447
$SILENCE,3247.842579822848,-8201.503241241366,6978.57224685815,11906.908381808804,-187500.02235174447,-187500.02235174447,-187500.02235174447,-187500.02235174447
$SILENCE,3128.1936917535895,-8261.54002684832,6558.96294819867,11934.803358889027,-187500.02235174447,-187500.02235174447,-187500.02235174447,-187500.02235174447
$SILENCE,3305.4430252841744,-8256.935567490527,6873.451992684841,11884.333119908944,-187500.02235174447,-187500.02235174447,-187500.02235174447,-187500.02235174447
$SILENCE,3443.286233340053,-8199.782156918307,7304.974771138999,11852.05720091548,-187500.02235174447,-187500.02235174447,-187500.02235174447,-187500.02235174447
$SILENCE,3305.9571154066466,-8199.62569470712,7079.579780051682,11891.999768257114,-187500.02235174447,-187500.02235174447,-187500.02235174447,-187500.02235174447
$SILENCE,3133.401648211676,-8257.829637268738,6584.689806066729,11935.36215250041,-187500.02235174447,-187500.02235174447,-187500.02235174447,-187500.02235174447
$SILENCE,3274.910542358225,-8267.999680995903,6777.2500845491995,11889.339910666933,-187500.02235174447,-187500.02235174447,-187500.02235174447,-187500.02235174447
$SILENCE,3457.904274213824,-8204.230154064913,7295.63174195668,11846.089285145914,-187500.02235174447,-187500.02235174447,-187500.02235174447,-187500.02235174447
$SILENCE,3350.9511769951796,-8193.009578348348,7173.725327697436,11879.952177995703,-187500.02235174447,-187500.02235174447,-187500.02235174447,-187500.02235174447
$SILENCE,3152.8029623988823,-8245.379715607132,6655.9248156457925,11930.489472209154,-187500.02235174447,-187500.02235174447,-187500.02235174447,-187500.02235174447
$SILENCE,3235.549120372429,-8275.040480499325,6687.865458472426,11901.275742206066,-187500.02235174447,-187500.02235174447,-187500.02235174447,-187500.02235174447
$SILENCE,3453.791553234047,-8216.143633859592,7243.820398309279,11848.01153516907,-187500.02235174447,-187500.02235174447,-187500.02235174447,-187500.02235174447
$SILENCE,3389.57499141395,-8190.439127735988,7241.6746308415695,11871.25734940259,-187500.02235174447,-187500.02235174447,-187500.02235174447,-187500.02235174447
$SILENCE,3180.228552845544,-8236.908404458572,6732.032505516113,11924.83448086196,-187500.02235174447,-187500.02235174447,-187500.02235174447,-187500.02235174447
$SILENCE,3199.115776910279,-8278.54970437881,6616.563393659997,11912.853945833916,-187500.02235174447,-187500.02235174447,-187500.02235174447,-187500.02235174447
$SILENCE,3433.6973349687264,-8228.593555521198,7175.558170742771,11854.15826489428,-187500.02235174447,-187500.02235174447,-187500.02235174447,-187500.02235174447
$SILENCE,3428.0423436215337,-8190.237962035891,7300.929105392588,11864.283605132534,-187500.02235174447,-187500.02235174447,-187500.02235174447,-187500.02235174447
$SILENCE,3223.97091674458,-8227.833596209717,6829.597870063529,11919.06773079249,-187500.02235174447,-187500.02235174447,-187500.02235174447,-187500.02235174447
$SILENCE,3185.749433726005,-8280.091974746225,6571.569332071464,11927.382579729865,-187500.02235174447,-187500.02235174447,-187500.02235174447,-187500.02235174447
$SILENCE,3420.576860973461,-8243.524520817342,7083.513687075817,11863.322480120956,-187500.02235174447,-187500.02235174447,-187500.02235174447,-187500.02235174447
$SILENCE,3459.245378881142,-8193.188392303991,7333.875576719711,11858.516855063064,-187500.02235174447,-187500.02235174447,-187500.02235174447,-187500.02235174447
$SILENCE,3265.4334027091745,-8217.998828649383,6930.694810234882,11910.194088243734,-187500.02235174447,-187500.02235174447,-187500.02235174447,-187500.02235174447
$SILENCE,3166.0351951164243,-8275.509867132887,6552.257424862079,11929.148367541835,-187500.02235174447,-187500.02235174447,-187500.02235174447,-187500.02235174447
$SILENCE,3382.780061099537,-8255.929738990038,6972.6043310885825,11869.580968568442,-187500.02235174447,-187500.02235174447,-187500.02235174447,-187500.02235174447
$SILENCE,3481.1724401917986,-8197.368168517134,7339.6423267891805,11852.258366615579,-187500.02235174447,-187500.02235174447,-187500.02235174447,-187500.02235174447
$SILENCE,3316.395380067275,-8209.371055289634,7025.980296847856,11901.87923930636,-187500.02235174447,-187500.02235174447,-187500.02235174447,-187500.02235174447
$SILENCE,3164.7164421935613,-8267.73146006244,6567.121334924857,11937.038533334558,-187500.02235174447,-187500.02235174447,-187500.02235174447,-187500.02235174447
$SILENCE,3343.642156558294,-8266.278596672844,6867.037042026168,11881.025061729559,-187500.02235174447,-187500.02235174447,-187500.02235174447,-187500.02235174447
$SILENCE,3510.9226120618123,-8203.470194753432,7357.099039208775,11845.15051187879,-187500.02235174447,-187500.02235174447,-187500.02235174447,-187500.02235174447
$SILENCE,3362.7976015564923,-8202.57612497522,7124.372675940118,11890.077518233958,-187500.02235174447,-187500.02235174447,-187500.02235174447,-187500.02235174447
$SILENCE,3181.457898790586,-8262.836428026727,6620.229079750667,11932.367018743398,-187500.02235174447,-187500.02235174447,-187500.02235174447,-187500.02235174447
$SILENCE,3302.872574671814,-8277.454468900498,6773.517343225163,11893.765556069084,-187500.02235174447,-187500.02235174447,-187500.02235174447,-187500.02235174447
$SILENCE,3490.917800774312,-8220.166947861546,7272.7882591233565,11848.302107846988,-187500.02235174447,-187500.02235174447,-187500.02235174447,-187500.02235174447
$SILENCE,3401.1978985307096,-8205.034816865304,7187.896333682101,11879.236922173133,-187500.02235174447,-187500.02235174447,-187500.02235174447,-187500.02235174447
$SILENCE,3205.3742653577647,-8255.527407589841,6671.347519319955,11929.148367541835,-187500.02235174447,-187500.02235174447,-187500.02235174447,-187500.02235174447
$SILENCE,3276.0728330699008,-8283.310625947788,6673.403879809843,11904.293227707532,-187500.02235174447,-187500.02235174447,-187500.02235174447,-187500.02235174447
$SILENCE,3498.8526700559464,-8229.979363677427,7231.571642347771,11846.670430501752,-187500.02235174447,-187500.02235174447,-187500.02235174447,-187500.02235174447
$SILENCE,3452.405745077818,-8202.10673834166,7258.237273482951,11865.02121269956,-187500.02235174447,-187500.02235174447,-187500.02235174447,-187500.02235174447
$SILENCE,3234.297422682932,-8249.470084842455,6759.592206429506,11917.860736591905,-187500.02235174447,-187500.02235174447,-187500.02235174447,-187500.02235174447
$SILENCE,3227.5695476018846,-8288.004492283404,6606.683922610751,11913.16687025629,-187500.02235174447,-187500.02235174447,-187500.02235174447,-187500.02235174447
$SILENCE,3468.677815041282,-8237.623660281142,7152.625280931626,11847.67625900224,-187500.02235174447,-187500.02235174447,-187500.02235174447,-187500.02235174447
$SILENCE,3482.155916947832,-8196.652912694564,7307.813442684823,11854.53824455002,-187500.02235174447,-187500.02235174447,-187500.02235174447,-187500.02235174447
$SILENCE,3280.543181960962,-8228.124168887636,6855.637652353961,11914.21740224569,-187500.02235174447,-187500.02235174447,-187500.02235174447,-187500.02235174447
$SILENCE,3218.070056208379,-8280.159029979592,6565.377898857343,11920.721759882184,-187500.02235174447,-187500.02235174447,-187500.02235174447,-187500.02235174447
$SILENCE,3451.44462006624,-8249.894767987105,7053.271776827786,11856.885177717826,-187500.02235174447,-187500.02235174447,-187500.02235174447,-187500.02235174447
$SILENCE,3510.2297079836976,-8202.844345908683,7329.047599917365,11843.608241511374,-187500.02235174447,-187500.02235174447,-187500.02235174447,-187500.02235174447
$SILENCE,3316.1718626227216,-8221.999790906882,6957.85217974808,11899.800527072017,-187500.02235174447,-187500.02235174447,-187500.02235174447,-187500.02235174447
$SILENCE,3206.9835909585468,-8278.996739267915,6566.294320380011,11924.566259928497,-187500.02235174447,-187500.02235174447,-187500.02235174447,-187500.02235174447
$SILENCE,3425.5389482425394,-8271.01716649737,6955.304080880175,11859.925014963748,-187500.02235174447,-187500.02235174447,-187500.02235174447,-187500.02235174447
$SILENCE,3536.113028062943,-8215.741302459395,7337.9435942105765,11830.800691938484,-187500.02235174447,-187500.02235174447,-187500.02235174447,-187500.02235174447
$SILENCE,3376.230999974132,-8221.664514740052,7054.0764396281775,11882.142648952324,-187500.02235174447,-187500.02235174447,-187500.02235174447,-187500.02235174447
$SILENCE,3224.3061929114097,-8276.091012488725,6591.954123014703,11927.248469263133,-187500.02235174447,-187500.02235174447,-187500.02235174447,-187500.02235174447
$SILENCE,3389.619694902861,-8279.488477645931,6856.509370387718,11874.16307618178,-187500.02235174447,-187500.02235174447,-187500.02235174447,-187500.02235174447
$SILENCE,3537.6329466859042,-8220.234003094913,7329.047599917365,11835.159282107268,-187500.02235174447,-187500.02235174447,-187500.02235174447,-187500.02235174447
$SILENCE,3404.5283084545504,-8211.472119268432,7145.159798283554,11876.644119816317,-187500.02235174447,-187500.02235174447,-187500.02235174447,-187500.02235174447
$SILENCE,3216.393675374231,-8259.908349503083,6638.937489859759,11929.438940219754,-187500.02235174447,-187500.02235174447,-187500.02235174447,-187500.02235174447
$SILENCE,3331.8180837414366,-8282.26009395839,6756.485313950219,11892.871486290871,-187500.02235174447,-187500.02235174447,-187500.02235174447,-187500.02235174447
$SILENCE,3525.8535773579574,-8227.811244465262,7284.657035429125,11836.76860770805,-187500.02235174447,-187500.02235174447,-187500.02235174447,-187500.02235174447
$SILENCE,3433.540872757539,-8208.164061089046,7218.272354396863,11863.166017909769,-187500.02235174447,-187500.02235174447,-187500.02235174447,-187500.02235174447
$SILENCE,3236.867873295292,-8250.542968576308,6730.691400848795,11921.638181404851,-187500.02235174447,-187500.02235174447,-187500.02235174447,-187500.02235174447
$SILENCE,3290.1097285878336,-8280.717823590974,6700.673008045317,11904.226172474167,-187500.02235174447,-187500.02235174447,-187500.02235174447,-187500.02235174447
$SILENCE,3510.2520597281527,-8239.612965537664,7218.272354396863,11837.953250164182,-187500.02235174447,-187500.02235174447,-187500.02235174447,-187500.02235174447
$SILENCE,3476.54562908955,-8203.470194753432,7296.3246460347955,11854.471189316653,-187500.02235174447,-187500.02235174447,-187500.02235174447,-187500.02235174447
$SILENCE,3255.844504337848,-8241.736381260918,6770.902189123892,11918.844213347938,-187500.02235174447,-187500.02235174447,-187500.02235174447,-187500.02235174447
$SILENCE,3256.69387062715,-8287.088070760736,6598.480832395653,11911.803413844516,-187500.02235174447,-187500.02235174447,-187500.02235174447,-187500.02235174447
$SILENCE,3496.796309566058,-8253.113419188669,7132.754580110858,11841.82010195495,-187500.02235174447,-187500.02235174447,-187500.02235174447,-187500.02235174447
$SILENCE,3509.514452161128,-8209.661627967553,7317.8270242008,11844.256442100579,-187500.02235174447,-187500.02235174447,-187500.02235174447,-187500.02235174447
$SILENCE,3311.5897550093837,-8233.734456745919,6888.114737047522,11905.947256797226,-187500.02235174447,-187500.02235174447,-187500.02235174447,-187500.02235174447
$SILENCE,3236.8902250397477,-8283.891771303626,6581.784079287539,11925.616791917897,-187500.02235174447,-187500.02235174447,-187500.02235174447,-187500.02235174447
$SILENCE,3461.413498093307,-8261.428268126043,7051.327175060174,11852.39247708231,-187500.02235174447,-187500.02235174447,-187500.02235174447,-187500.02235174447
$SILENCE,3528.5581384370494,-8210.62275297913,7349.946480983077,11837.528567019532,-187500.02235174447,-187500.02235174447,-187500.02235174447,-187500.02235174447
$SILENCE,3349.319499649942,-8224.078503141225,6987.468241151362,11899.755823583106,-187500.02235174447,-187500.02235174447,-187500.02235174447,-187500.02235174447
$SILENCE,3226.3849051457532,-8277.29800668931,6575.011500717581,11935.518614711596,-187500.02235174447,-187500.02235174447,-187500.02235174447,-187500.02235174447
$SILENCE,3426.8577011654024,-8271.955939764493,6944.396429585985,11873.000785470103,-187500.02235174447,-187500.02235174447,-187500.02235174447,-187500.02235174447
$SILENCE,3547.244196801686,-8216.322447815233,7353.254539162463,11836.478035030132,-187500.02235174447,-187500.02235174447,-187500.02235174447,-187500.02235174447
$SILENCE,3388.4350524467295,-8215.987171648405,7085.033605698777,11883.68491931974,-187500.02235174447,-187500.02235174447,-187500.02235174447,-187500.02235174447
$SILENCE,3224.6638208226946,-8269.005509496392,6609.612001134396,11933.372847243887,-187500.02235174447,-187500.02235174447,-187500.02235174447,-187500.02235174447
$SILENCE,3380.522534909551,-8280.78487882434,6841.600756836028,11883.193180941724,-187500.02235174447,-187500.02235174447,-187500.02235174447,-187500.02235174447
$SILENCE,3541.030411843111,-8222.268011840346,7329.896966206667,11838.042657142003,-187500.02235174447,-187500.02235174447,-187500.02235174447,-187500.02235174447
$SILENCE,3421.0238958625673,-8209.57222098973,7168.986757872911,11875.571236082464,-187500.02235174447,-187500.02235174447,-187500.02235174447,-187500.02235174447
$SILENCE,3232.7998558044264,-8258.410782624576,6659.925777903292,11929.818919875494,-187500.02235174447,-187500.02235174447,-187500.02235174447,-187500.02235174447
$SILENCE,3332.8015604974703,-8284.428213170555,6745.28708997811,11898.705291593706,-187500.02235174447,-187500.02235174447,-187500.02235174447,-187500.02235174447
$SILENCE,3536.5824146965047,-8229.957011932971,7285.372291251695,11841.976564166138,-187500.02235174447,-187500.02235174447,-187500.02235174447,-187500.02235174447
$SILENCE,3459.513599814606,-8207.985247133403,7240.668802341081,11867.926939478748,-187500.02235174447,-187500.02235174447,-187500.02235174447,-187500.02235174447
$SILENCE,3255.486876426563,-8250.766486020862,6725.215223457244,11923.649838405829,-187500.02235174447,-187500.02235174447,-187500.02235174447,-187500.02235174447
$SILENCE,3294.133042589789,-8287.602160883209,6652.415591766309,11905.790794586039,-187500.02235174447,-187500.02235174447,-187500.02235174447,-187500.02235174447
$SILENCE,3515.3929609528736,-8239.411799837566,7208.839918236723,11843.362372322366,-187500.02235174447,-187500.02235174447,-187500.02235174447,-187500.02235174447
$SILENCE,3486.8497832834464,-8204.453671509465,7296.481108245982,11856.952232951193,-187500.02235174447,-187500.02235174447,-187500.02235174447,-187500.02235174447
$SILENCE,3284.7006064296493,-8240.73055276043,6813.459910566797,11914.284457479056,-187500.02235174447,-187500.02235174447,-187500.02235174447,-187500.02235174447
$SILENCE,3261.7006613851386,-8289.680873117552,6597.363245172888,11913.613905145396,-187500.02235174447,-187500.02235174447,-187500.02235174447,-187500.02235174447
$SILENCE,3506.1393387483763,-8254.186302922524,7132.151083010564,11845.508139790076,-187500.02235174447,-187500.02235174447,-187500.02235174447,-187500.02235174447
$SILENCE,3537.543539708083,-8204.34191278719,7368.274911436429,11844.904642689782,-187500.02235174447,-187500.02235174447,-187500.02235174447,-187500.02235174447
$SILENCE,3319.8599004578473,-8231.521634044842,6904.9232488779135,11909.076501020969,-187500.02235174447,-187500.02235174447,-187500.02235174447,-187500.02235174447
$SILENCE,3252.0447077804456,-8284.942303293026,6589.920114269271,11919.537117426053,-187500.02235174447,-187500.02235174447,-187500.02235174447,-187500.02235174447
$SILENCE,3458.6865852697597,-8266.97150075096,7004.723787870859,11855.834645728428,-187500.02235174447,-187500.02235174447,-187500.02235174447,-187500.02235174447
$SILENCE,3542.9079583773564,-8212.232078579913,7342.078666934809,11839.00378215358,-187500.02235174447,-187500.02235174447,-187500.02235174447,-187500.02235174447
$SILENCE,3369.3690144263524,-8222.826805451728,7010.334075729142,11894.681977591752,-187500.02235174447,-187500.02235174447,-187500.02235174447,-187500.02235174447
$SILENCE,3236.6890593396497,-8279.667291601574,6576.240846662623,11924.320390739489,-187500.02235174447,-187500.02235174447,-187500.02235174447,-187500.02235174447
$SILENCE,3423.8849191528466,-8274.660500843585,6913.2604495597425,11864.037735943526,-187500.02235174447,-187500.02235174447,-187500.02235174447,-187500.02235174447
$SILENCE,3554.8661416609457,-8215.76365420385,7346.303146636862,11834.645191984797,-187500.02235174447,-187500.02235174447,-187500.02235174447,-187500.02235174447
$SILENCE,3410.6973899242153,-8217.775311204829,7107.251239687353,11879.661605317784,-187500.02235174447,-187500.02235174447,-187500.02235174447,-187500.02235174447
$SILENCE,3235.9961552615355,-8271.888884531127,6617.3010012270215,11925.303867495522,-187500.02235174447,-187500.02235174447,-187500.02235174447,-187500.02235174447
$SILENCE,3375.940427296213,-8282.617721869674,6817.304410613109,11878.946349495214,-187500.02235174447,-187500.02235174447,-187500.02235174447,-187500.02235174447
$SILENCE,3555.6261009724262,-8224.48083454142,7326.410094071638,11832.298258816989,-187500.02235174447,-187500.02235174447,-187500.02235174447,-187500.02235174447
$SILENCE,3447.7342304866593,-8213.327314058222,7191.405557561584,11866.116448177869,-187500.02235174447,-187500.02235174447,-187500.02235174447,-187500.02235174447
$SILENCE,3254.436344437164,-8262.858779771183,6676.443717055764,11922.241678505145,-187500.02235174447,-187500.02235174447,-187500.02235174447,-187500.02235174447
$SILENCE,3342.122237935333,-8290.150259751113,6725.036409501602,11892.245637446124,-187500.02235174447,-187500.02235174447,-187500.02235174447,-187500.02235174447
$SILENCE,3551.51337999265,-8234.919099202049,7271.447154456038,11834.064046628959,-187500.02235174447,-187500.02235174447,-187500.02235174447,-187500.02235174447
$SILENCE,3484.256980926631,-8209.39340703409,7256.605596137714,11853.934747449726,-187500.02235174447,-187500.02235174447,-187500.02235174447,-187500.02235174447
$SILENCE,3277.5033447150404,-8251.459390098977,6751.031488303124,11912.205745244712,-187500.02235174447,-187500.02235174447,-187500.02235174447,-187500.02235174447
$SILENCE,3304.0795688724006,-8292.54189640783,6648.7052021867285,11897.543000882031,-187500.02235174447,-187500.02235174447,-187500.02235174447,-187500.02235174447
$SILENCE,3532.536748950094,-8246.609061552175,7201.799118733302,11831.851223927883,-187500.02235174447,-187500.02235174447,-187500.02235174447,-187500.02235174447
$SILENCE,3512.308420218041,-8207.024122121826,7312.127329364697,11842.691819988708,-187500.02235174447,-187500.02235174447,-187500.02235174447,-187500.02235174447
$SILENCE,3309.868670686325,-8241.736381260918,6844.439428381852,11903.510916651598,-187500.02235174447,-187500.02235174447,-187500.02235174447,-187500.02235174447
$SILENCE,3271.088394056367,-8291.178439996058,6598.704349840206,11909.657646376807,-187500.02235174447,-187500.02235174447,-187500.02235174447,-187500.02235174447
$SILENCE,3502.0489695130555,-8258.053154713292,7111.609829856137,11843.362372322366,-187500.02235174447,-187500.02235174447,-187500.02235174447,-187500.02235174447
$SILENCE,3544.7184496782365,-8211.516822757343,7351.332289139305,11841.171901365746,-187500.02235174447,-187500.02235174447,-187500.02235174447,-187500.02235174447
$SILENCE,3350.61590082835,-8233.779160234828,6943.703525507871,11900.202858472212,-187500.02235174447,-187500.02235174447,-187500.02235174447,-187500.02235174447
$SILENCE,3256.2691874824986,-8288.675044617063,6575.950273984704,11921.593477915942,-187500.02235174447,-187500.02235174447,-187500.02235174447,-187500.02235174447
$SILENCE,3473.930474988279,-8270.3019106748,7006.444872193918,11855.320555605955,-187500.02235174447,-187500.02235174447,-187500.02235174447,-187500.02235174447
$SILENCE,3560.185856841309,-8214.467253025443,7360.407097388161,11835.20398559618,-187500.02235174447,-187500.02235174447,-187500.02235174447,-187500.02235174447
$SILENCE,3390.1337850253326,-8225.352552575177,7038.363163276096,11886.121259465368,-187500.02235174447,-187500.02235174447,-187500.02235174447,-187500.02235174447
$SILENCE,3246.1661989887,-8280.740175335428,6588.735471813139,11921.682884893762,-187500.02235174447,-187500.02235174447,-187500.02235174447,-187500.02235174447
$SILENCE,3427.327087798964,-8280.226085212957,6903.157461065944,11863.545997565509,-187500.02235174447,-187500.02235174447,-187500.02235174447,-187500.02235174447
$SILENCE,3578.3578250834735,-8219.496395527887,7384.4352226776155,11825.793901180496,-187500.02235174447,-187500.02235174447,-187500.02235174447,-187500.02235174447
$SILENCE,3425.740113942637,-8215.875412926127,7137.649612146571,11876.465305860676,-187500.02235174447,-187500.02235174447,-187500.02235174447,-187500.02235174447
$SILENCE,3244.3780594322757,-8274.660500843585,6610.774291846072,11927.159062285313,-187500.02235174447,-187500.02235174447,-187500.02235174447,-187500.02235174447
$SILENCE,3382.735357610626,-8288.563285894787,6792.9857126457355,11882.410869885787,-187500.02235174447,-187500.02235174447,-187500.02235174447,-187500.02235174447
$SILENCE,3569.2606650901635,-8229.733494488419,7319.458701546037,11833.974639651136,-187500.02235174447,-187500.02235174447,-187500.02235174447,-187500.02235174447
$SILENCE,3465.9732539621896,-8214.333142558711,7212.818528749768,11865.82587549995,-187500.02235174447,-187500.02235174447,-187500.02235174447,-187500.02235174447
$SILENCE,3264.36051897532,-8262.411744882076,6695.219182398222,11920.364131970899,-187500.02235174447,-187500.02235174447,-187500.02235174447,-187500.02235174447
$SILENCE,3341.295223390487,-8292.296027218823,6708.674932560317,11893.676149091263,-187500.02235174447,-187500.02235174447,-187500.02235174447,-187500.02235174447
$SILENCE,3563.7174324652474,-8237.802474236783,7266.060384042309,11837.103883874881,-187500.02235174447,-187500.02235174447,-187500.02235174447,-187500.02235174447
$SILENCE,3503.546536391561,-8209.974552389927,7280.968997593999,11860.77438125305,-187500.02235174447,-187500.02235174447,-187500.02235174447,-187500.02235174447
$SILENCE,3297.6646182137274,-8253.046363955304,6777.2500845491995,11919.090082536946,-187500.02235174447,-187500.02235174447,-187500.02235174447,-187500.02235174447
$SILENCE,3311.813272453937,-8295.157050509102,6641.731457916672,11907.534230653553,-187500.02235174447,-187500.02235174447,-187500.02235174447,-187500.02235174447
$SILENCE,3547.1994933127758,-8249.738305775918,7192.031406406332,11839.920203676249,-187500.02235174447,-187500.02235174447,-187500.02235174447,-187500.02235174447
$SILENCE,3542.952661866267,-8210.175718090024,7334.434370331093,11846.156340379279,-187500.02235174447,-187500.02235174447,-187500.02235174447,-187500.02235174447
$SILENCE,3335.32730762092,-8242.138712661113,6876.0447950416565,11905.4108149303,-187500.02235174447,-187500.02235174447,-187500.02235174447,-187500.02235174447
$SILENCE,3277.883324370781,-8292.050158029813,6597.54205912853,11913.457442934208,-187500.02235174447,-187500.02235174447,-187500.02235174447,-187500.02235174447
$SILENCE,3510.5202806616167,-8260.958881492483,7098.914039005523,11847.229224113134,-187500.02235174447,-187500.02235174447,-187500.02235174447,-187500.02235174447
$SILENCE,3560.767002197147,-8211.092139612692,7363.804562545367,11839.853148442882,-187500.02235174447,-187500.02235174447,-187500.02235174447,-187500.02235174447
$SILENCE,3371.738299338615,-8232.05807591177,6973.699566566893,11895.799564814517,-187500.02235174447,-187500.02235174447,-187500.02235174447,-187500.02235174447
$SILENCE,3255.419821193197,-8288.071547516769,6586.634407834341,11919.403006959321,-187500.02235174447,-187500.02235174447,-187500.02235174447,-187500.02235174447
$SILENCE,3469.4601260972177,-8272.693547331519,6995.626627877549,11857.511026562575,-187500.02235174447,-187500.02235174447,-187500.02235174447,-187500.02235174447
$SILENCE,3573.6863104923145,-8214.020218136337,7375.718042340046,11836.098055374392,-187500.02235174447,-187500.02235174447,-187500.02235174447,-187500.02235174447
$SILENCE,3407.1434625558213,-8223.452654296476,7073.008367181822,11885.517762365076,-187500.02235174447,-187500.02235174447,-187500.02235174447,-187500.02235174447
$SILENCE,3256.9844433050685,-8283.087108503236,6610.148443001323,11924.342742483943,-187500.02235174447,-187500.02235174447,-187500.02235174447,-187500.02235174447
$SILENCE,3434.8149221914914,-8285.478745159953,6892.674492916405,11870.363279624376,-187500.02235174447,-187500.02235174447,-187500.02235174447,-187500.02235174447
$SILENCE,3588.4608135772723,-8223.899689185582,7358.8871787652,11831.493596016599,-187500.02235174447,-187500.02235174447,-187500.02235174447,-187500.02235174447
$SILENCE,3452.808076478014,-8219.094064127692,7159.7331356684135,11872.710212792184,-187500.02235174447,-187500.02235174447,-187500.02235174447,-187500.02235174447
$SILENCE,3264.6063881643286,-8272.470029886965,6653.086144099969,11922.17462327178,-187500.02235174447,-187500.02235174447,-187500.02235174447,-187500.02235174447
$SILENCE,3393.19597401571,-8290.64199812913,6794.170355101866,11883.349643152911,-187500.02235174447,-187500.02235174447,-187500.02235174447,-187500.02235174447
$SILENCE,3591.18772640082,-8230.806378222273,7328.779378983901,11834.645191984797,-187500.02235174447,-187500.02235174447,-187500.02235174447,-187500.02235174447
$SILENCE,3499.8584985564353,-8213.170851847035,7245.362668676695,11865.49059933312,-187500.02235174447,-187500.02235174447,-187500.02235174447,-187500.02235174447
$SILENCE,3288.969789620613,-8261.696489059506,6721.95186876677,11920.83351860446,-187500.02235174447,-187500.02235174447,-187500.02235174447,-187500.02235174447
$SILENCE,3344.4021158697747,-8297.682797632551,6699.8906969893815,11895.330178180955,-187500.02235174447,-187500.02235174447,-187500.02235174447,-187500.02235174447
não,3575.407394815373,-8245.335012118223,7277.258608014418,11831.851223927883,-187500.02235174447,-187500.02235174447,-187500.02235174447,-187500.02235174447
não,3529.921594848823,-8210.62275297913,7325.873652204711,11851.520759048553,-187500.02235174447,-187500.02235174447,-187500.02235174447,-187500.02235174447
não,3304.258382828043,-8254.2980616448,6791.935180656336,11913.233925489656,-187500.02235174447,-187500.02235174447,-187500.02235174447,-187500.02235174447
não,3301.4420630266745,-8298.398053455121,6633.304850257022,11904.69555910773,-187500.02235174447,-187500.02235174447,-187500.02235174447,-187500.02235174447
não,3544.4502287447726,-8253.828675011238,7181.503734767883,11842.423599055242,-187500.02235174447,-187500.02235174447,-187500.02235174447,-187500.02235174447
não,3556.251949817175,-8209.371055289634,7351.68991705059,11847.408038068777,-187500.02235174447,-187500.02235174447,-187500.02235174447,-187500.02235174447
não,3360.9871102556126,-8238.651840526085,6909.237135557787,11906.014312030591,-187500.02235174447,-187500.02235174447,-187500.02235174447,-187500.02235174447
não,3285.773490163504,-8294.195925497523,6604.895783054327,11913.010408045104,-187500.02235174447,-187500.02235174447,-187500.02235174447,-187500.02235174447
não,3512.666048129326,-8267.597349595708,7083.804259753735,11846.491616546109,-187500.02235174447,-187500.02235174447,-187500.02235174447,-187500.02235174447
não,3580.5259442956385,-8214.377846047622,7380.858943564766,11841.06014264347,-187500.02235174447,-187500.02235174447,-187500.02235174447,-187500.02235174447
não,3397.5545641844947,-8233.488587556909,7011.474014696362,11897.185372970745,-187500.02235174447,-187500.02235174447,-187500.02235174447,-187500.02235174447
não,3277.9950830930575,-8289.703224862007,6604.694617354228,11924.45450120622,-187500.02235174447,-187500.02235174447,-187500.02235174447,-187500.02235174447
não,3477.3279401454856,-8279.466125901476,6986.037729506223,11861.713154520174,-187500.02235174447,-187500.02235174447,-187500.02235174447,-187500.02235174447
não,3584.3927960864066,-8220.211651350457,7385.038719777909,11835.896889674294,-187500.02235174447,-187500.02235174447,-187500.02235174447,-187500.02235174447
não,3426.477721509662,-8225.710180486463,7105.016065241822,11884.78015479805,-187500.02235174447,-187500.02235174447,-187500.02235174447,-187500.02235174447
não,3264.159353275222,-8281.20956196899,6629.102722299424,11925.817957617994,-187500.02235174447,-187500.02235174447,-187500.02235174447,-187500.02235174447
não,3422.5661662299835,-8289.479707417453,6882.973835822801,11870.028003457548,-187500.02235174447,-187500.02235174447,-187500.02235174447,-187500.02235174447
não,3592.6852932793254,-8229.889956699606,7365.5927021017915,11828.63257272632,-187500.02235174447,-187500.02235174447,-187500.02235174447,-187500.02235174447
não,3471.1365069313656,-8222.893860685093,7192.389034317617,11875.504180849097,-187500.02235174447,-187500.02235174447,-187500.02235174447,-187500.02235174447
não,3281.4372517391744,-8272.894713031616,6682.076356658502,11920.78881511555,-187500.02235174447,-187500.02235174447,-187500.02235174447,-187500.02235174447
não,3386.6022094013942,-8296.83343134325,6782.793317174115,11882.92496000826,-187500.02235174447,-187500.02235174447,-187500.02235174447,-187500.02235174447
não,3587.7455577547025,-8240.127055660136,7319.324591079306,11828.409055281765,-187500.02235174447,-187500.02235174447,-187500.02235174447,-187500.02235174447
não,3510.5202806616167,-8219.3399333167,7257.969052549488,11854.96292769467,-187500.02235174447,-187500.02235174447,-187500.02235174447,-187500.02235174447
não,3312.4391212986857,-8264.266939671867,6745.622366144939,11910.037626032547,-187500.02235174447,-187500.02235174447,-187500.02235174447,-187500.02235174447
não,3351.152342695277,-8301.773166867873,6697.007321954647,11893.16205896879,-187500.02235174447,-187500.02235174447,-187500.02235174447,-187500.02235174447
não,3571.4511360467836,-8257.695526802006,7247.396677422128,11824.363389535356,-187500.02235174447,-187500.02235174447,-187500.02235174447,-187500.02235174447
não,3531.933251849801,-8225.576070019732,7312.73082646499,11836.276869330033,-187500.02235174447,-187500.02235174447,-187500.02235174447,-187500.02235174447
não,3335.908452976758,-8260.131866947635,6839.2985271571315,11902.147460239823,-187500.02235174447,-187500.02235174447,-187500.02235174447,-187500.02235174447
não,3333.226243642121,-8302.533126179353,6642.98315560617,11904.717910852183,-187500.02235174447,-187500.02235174447,-187500.02235174447,-187500.02235174447
não,3547.0206793571333,-8263.797553038306,7169.076164850732,11834.086398373414,-187500.02235174447,-187500.02235174447,-187500.02235174447,-187500.02235174447
não,3554.08383060501,-8218.401160049578,7362.619920089236,11834.645191984797,-187500.02235174447,-187500.02235174447,-187500.02235174447,-187500.02235174447
não,3371.157153982777,-8245.044439440304,6934.2710893477315,11891.955064768204,-187500.02235174447,-187500.02235174447,-187500.02235174447,-187500.02235174447
não,3295.4741472571072,-8302.354312223712,6607.756806344606,11905.544925397031,-187500.02235174447,-187500.02235174447,-187500.02235174447,-187500.02235174447
não,3507.189870737776,-8276.78391656684,7070.437916569462,11840.970735665649,-187500.02235174447,-187500.02235174447,-187500.02235174447,-187500.02235174447
não,3582.3587873409733,-8223.743226974395,7381.12716449823,11824.363389535356,-187500.02235174447,-187500.02235174447,-187500.02235174447,-187500.02235174447
não,3410.898555624313,-8243.815093495261,7023.789825891236,11873.648986059306,-187500.02235174447,-187500.02235174447,-187500.02235174447,-187500.02235174447
não,3284.968827363113,-8301.147318023124,6603.264105709089,11907.288361464545,-187500.02235174447,-187500.02235174447,-187500.02235174447,-187500.02235174447
não,3476.8809052563797,-8296.788727854339,6966.345842641097,11841.57423276594,-187500.02235174447,-187500.02235174447,-187500.02235174447,-187500.02235174447
não,3601.961267228278,-8238.875357970639,7398.449766451093,11809.924162617226,-187500.02235174447,-187500.02235174447,-187500.02235174447,-187500.02235174447
não,3462.0616986825107,-8239.121227159647,7139.638917403093,11857.44397132921,-187500.02235174447,-187500.02235174447,-187500.02235174447,-187500.02235174447
não,3286.265228541521,-8290.418480684577,6631.494358956142,11906.573105641975,-187500.02235174447,-187500.02235174447,-187500.02235174447,-187500.02235174447
não,3430.411628533796,-8302.667236646084,6846.5181406161955,11849.844378214406,-187500.02235174447,-187500.02235174447,-187500.02235174447,-187500.02235174447
não,3606.9457062418114,-8242.116360916658,7353.478056607015,11807.66663642724,-187500.02235174447,-187500.02235174447,-187500.02235174447,-187500.02235174447
não,3505.7146556037255,-8237.780122492328,7199.116909398665,11840.456645543176,-187500.02235174447,-187500.02235174447,-187500.02235174447,-187500.02235174447
não,3306.292391573476,-8287.959788794493,6683.573923537007,11889.921056022771,-187500.02235174447,-187500.02235174447,-187500.02235174447,-187500.02235174447
não,3400.549697941506,-8317.441739731043,6759.569854685052,11858.718020763163,-187500.02235174447,-187500.02235174447,-187500.02235174447,-187500.02235174447
não,3597.4238631038506,-8258.097858202203,7303.566611238314,11795.373176976822,-187500.02235174447,-187500.02235174447,-187500.02235174447,-187500.02235174447
não,3536.7165251632364,-8231.72279974494,7280.276093515885,11822.932877890216,-187500.02235174447,-187500.02235174447,-187500.02235174447,-187500.02235174447
não,3348.492485105096,-8278.34853867871,6776.892456637915,11883.506105364098,-187500.02235174447,-187500.02235174447,-187500.02235174447,-187500.02235174447
não,3372.028872016534,-8318.961658354005,6693.296932375066,11864.752991766096,-187500.02235174447,-187500.02235174447,-187500.02235174447,-187500.02235174447
não,3597.75913927068,-8274.749907821406,7242.836921553246,11800.111746801347,-187500.02235174447,-187500.02235174447,-187500.02235174447,-187500.02235174447
não,3581.5988280294932,-8246.542006318808,7335.104922664753,11805.520868959531,-187500.02235174447,-187500.02235174447,-187500.02235174447,-187500.02235174447
não,3379.2708372200536,-8278.415593912077,6865.450068169841,11866.272910389056,-187500.02235174447,-187500.02235174447,-187500.02235174447,-187500.02235174447
não,3355.8685607753473,-8323.543765967343,6646.1794550632785,11865.580006310942,-187500.02235174447,-187500.02235174447,-187500.02235174447,-187500.02235174447
não,3595.8815927364344,-8300.476765689466,7153.184074543009,11784.823153593918,-187500.02235174447,-187500.02235174447,-187500.02235174447,-187500.02235174447
não,3613.4500638783056,-8255.952090734494,7389.374958202238,11782.09624077037,-187500.02235174447,-187500.02235174447,-187500.02235174447,-187500.02235174447
não,3419.3698667728745,-8272.850009542706,6973.2525316777865,11840.814273454462,-187500.02235174447,-187500.02235174447,-187500.02235174447,-187500.02235174447
não,3344.357412380864,-8341.045181875847,6622.330143729466,11858.114523662869,-187500.02235174447,-187500.02235174447,-187500.02235174447,-187500.02235174447
não,3552.675670704326,-8337.111274851713,7036.306802786208,11774.317833699923,-187500.02235174447,-187500.02235174447,-187500.02235174447,-187500.02235174447
não,3603.0565027065877,-8261.070640214759,7346.50431233696,11730.17313840069,-187500.02235174447,-187500.02235174447,-187500.02235174447,-187500.02235174447
não,3478.0655477125106,-8253.627509311142,7070.728489247381,11842.222433355146,-187500.02235174447,-187500.02235174447,-187500.02235174447,-187500.02235174447
não,3377.7062151081823,-8315.74300715244,6647.654670197328,11889.094041477925,-187500.02235174447,-187500.02235174447,-187500.02235174447,-187500.02235174447
não,3560.208208585764,-8326.158920068612,6946.877473220525,11807.778395149517,-187500.02235174447,-187500.02235174447,-187500.02235174447,-187500.02235174447
não,3662.087459813054,-8269.765468807873,7368.721946325535,11763.499589383555,-187500.02235174447,-187500.02235174447,-187500.02235174447,-187500.02235174447
não,3536.0683245740324,-8264.937492005527,7141.427056959517,11805.029130581515,-187500.02235174447,-187500.02235174447,-187500.02235174447,-187500.02235174447
não,3372.5653138834614,-8331.45628350452,6653.55553073353,11870.184465668735,-187500.02235174447,-187500.02235174447,-187500.02235174447,-187500.02235174447
não,3543.7796764111135,-8342.721562709996,6846.428733638374,11801.877534613317,-187500.02235174447,-187500.02235174447,-187500.02235174447,-187500.02235174447
não,3736.0940857045757,-8278.68381484554,7376.813277818356,11763.94662427266,-187500.02235174447,-187500.02235174447,-187500.02235174447,-187500.02235174447
não,3608.376217886951,-8266.747983306406,7254.683346114558,11797.563647933443,-187500.02235174447,-187500.02235174447,-187500.02235174447,-187500.02235174447
não,3384.903476822791,-8331.545690482342,6746.650546389884,11874.654814559795,-187500.02235174447,-187500.02235174447,-187500.02235174447,-187500.02235174447
não,3442.995660662134,-8368.068440922314,6768.018814089158,11844.949346178693,-187500.02235174447,-187500.02235174447,-187500.02235174447,-187500.02235174447
não,3702.2982480881515,-8299.090957533235,7298.939800136066,11741.259603650524,-187500.02235174447,-187500.02235174447,-187500.02235174447,-187500.02235174447
não,3663.5850266915595,-8258.321375646756,7342.749219268468,11774.206074977646,-187500.02235174447,-187500.02235174447,-187500.02235174447,-187500.02235174447
não,3455.4008788348297,-8306.39997797012,6840.170245190889,11868.239863901123,-187500.02235174447,-187500.02235174447,-187500.02235174447,-187500.02235174447
não,3488.861440284424,-8354.232711104478,6745.175331255834,11832.521776261543,-187500.02235174447,-187500.02235174447,-187500.02235174447,-187500.02235174447
não,3693.983399150777,-8332.775036427383,7209.756339759391,11721.075978407382,-187500.02235174447,-187500.02235174447,-187500.02235174447,-187500.02235174447
não,3668.1224308159867,-8285.232875970945,7355.512065352448,11784.309063471444,-187500.02235174447,-187500.02235174447,-187500.02235174447,-187500.02235174447
não,3504.798234081058,-8295.559381909297,6921.552946752661,11902.840364317939,-187500.02235174447,-187500.02235174447,-187500.02235174447,-187500.02235174447
não,3469.1919051637537,-8359.865350707216,6661.244530826156,11860.39440159731,-187500.02235174447,-187500.02235174447,-187500.02235174447,-187500.02235174447
não,3698.8784311864893,-8349.89647268015,7162.817676403246,11802.346921246877,-187500.02235174447,-187500.02235174447,-187500.02235174447,-187500.02235174447
não,3766.4924581637933,-8277.29800668931,7423.483720241037,11857.175750395745,-187500.02235174447,-187500.02235174447,-187500.02235174447,-187500.02235174447
não,3580.28007510663,-8311.965562339492,7014.938535086934,11881.516800107574,-187500.02235174447,-187500.02235174447,-187500.02235174447,-187500.02235174447
não,3478.892562257357,-8370.974167701503,6627.471044954186,11810.013569595048,-187500.02235174447,-187500.02235174447,-187500.02235174447,-187500.02235174447
não,3688.9766083927884,-8324.102559578725,7066.481657800872,11804.358578247855,-187500.02235174447,-187500.02235174447,-187500.02235174447,-187500.02235174447
não,3758.8034580711674,-8277.230951455946,7436.47008376957,11809.790052150494,-187500.02235174447,-187500.02235174447,-187500.02235174447,-187500.02235174447
não,3591.8135752455682,-8292.988931296937,7140.130655781109,11885.562465853985,-187500.02235174447,-187500.02235174447,-187500.02235174447,-187500.02235174447
não,3434.859625680402,-8355.395001816154,6672.755679220639,11908.517707409586,-187500.02235174447,-187500.02235174447,-187500.02235174447,-187500.02235174447
não,3611.6172208329704,-8352.17635061459,6947.257452876264,11842.423599055242,-187500.02235174447,-187500.02235174447,-187500.02235174447,-187500.02235174447
não,3784.5079641947705,-8296.11817552068,7404.171813031651,11805.945552104182,-187500.02235174447,-187500.02235174447,-187500.02235174447,-187500.02235174447
não,3661.8415906240452,-8288.45152717251,7225.760188789391,11890.97158801217,-187500.02235174447,-187500.02235174447,-187500.02235174447,-187500.02235174447
não,3443.4873990401506,-8347.214263345511,6710.552479094563,11933.506957710619,-187500.02235174447,-187500.02235174447,-187500.02235174447,-187500.02235174447
não,3600.240182905219,-8367.286129866377,6860.890312300959,11883.439050130732,-187500.02235174447,-187500.02235174447,-187500.02235174447,-187500.02235174447
não,3798.9024876239882,-8298.35334996621,7397.801565861889,11841.3954188103,-187500.02235174447,-187500.02235174447,-187500.02235174447,-187500.02235174447
não,3681.1982013223414,-8283.534143392342,7293.128346577686,11869.312747634978,-187500.02235174447,-187500.02235174447,-187500.02235174447,-187500.02235174447
não,3484.279332671086,-8332.707981194018,6785.341416042021,11933.082274565968,-187500.02235174447,-187500.02235174447,-187500.02235174447,-187500.02235174447
não,3539.7787141536137,-8368.98486244498,6776.53482872663,11895.911323536793,-187500.02235174447,-187500.02235174447,-187500.02235174447,-187500.02235174447
não,3772.214504744352,-8319.296934520833,7326.365390582728,11836.545090263497,-187500.02235174447,-187500.02235174447,-187500.02235174447,-187500.02235174447
não,3723.2865361316844,-8280.360195679688,7366.106792224264,11878.49931460611,-187500.02235174447,-187500.02235174447,-187500.02235174447,-187500.02235174447
não,3517.896356331868,-8319.07341707628,6886.617170169016,11937.26205077911,-187500.02235174447,-187500.02235174447,-187500.02235174447,-187500.02235174447
não,3515.325905719508,-8369.901283967649,6742.224900987733,11920.721759882184,-187500.02235174447,-187500.02235174447,-187500.02235174447,-187500.02235174447
não,3783.1668595274523,-8332.775036427383,7248.357802433706,11852.995974182604,-187500.02235174447,-187500.02235174447,-187500.02235174447,-187500.02235174447
não,3747.806399799156,-8298.68862613304,7419.639220194724,11843.988221167116,-187500.02235174447,-187500.02235174447,-187500.02235174447,-187500.02235174447
não,3499.5679258785162,-8347.12485636769,6930.85127244607,11902.370977684377,-187500.02235174447,-187500.02235174447,-187500.02235174447,-187500.02235174447
não,3470.73417553117,-8382.977054474004,6703.601086568962,11936.41268448981,-187500.02235174447,-187500.02235174447,-187500.02235174447,-187500.02235174447
não,3709.1602336359306,-8342.386286543166,7168.204446816975,11887.64117808833,-187500.02235174447,-187500.02235174447,-187500.02235174447,-187500.02235174447
não,3779.098842036586,-8306.824661114772,7424.4671969970705,11874.341890137423,-187500.02235174447,-187500.02235174447,-187500.02235174447,-187500.02235174447
não,3595.702778780792,-8327.276507291377,7040.307765043708,11920.162966270802,-187500.02235174447,-187500.02235174447,-187500.02235174447,-187500.02235174447
não,3499.0761875004996,-8373.2763973804,6659.814019181016,11905.008483530102,-187500.02235174447,-187500.02235174447,-187500.02235174447,-187500.02235174447
não,3686.6743787138917,-8352.64573724815,7076.137611405566,11863.724811521151,-187500.02235174447,-187500.02235174447,-187500.02235174447,-187500.02235174447
não,3804.043388848709,-8328.259984047412,7402.428376964138,11816.71909293164,-187500.02235174447,-187500.02235174447,-187500.02235174447,-187500.02235174447
não,3624.2012529613085,-8338.184158585567,7091.962646479923,11842.378895566333,-187500.02235174447,-187500.02235174447,-187500.02235174447,-187500.02235174447
não,3476.3891668783626,-8397.57274360332,6659.769315692105,11910.2611434771,-187500.02235174447,-187500.02235174447,-187500.02235174447,-187500.02235174447
não,3664.076765069576,-8398.019778492426,6941.535406295706,11883.841381530927,-187500.02235174447,-187500.02235174447,-187500.02235174447,-187500.02235174447
não,3796.689664922913,-8337.535957996364,7414.207746292084,11841.82010195495,-187500.02235174447,-187500.02235174447,-187500.02235174447,-187500.02235174447
não,3630.8397210645344,-8327.231803802468,7212.259735138386,11873.559579081486,-187500.02235174447,-187500.02235174447,-187500.02235174447,-187500.02235174447
não,3450.2376258656536,-8381.814763762328,6696.157955665345,11920.274724993078,-187500.02235174447,-187500.02235174447,-187500.02235174447,-187500.02235174447
não,3556.050784117077,-8396.52221161392,6822.869994982481,11881.226227429655,-187500.02235174447,-187500.02235174447,-187500.02235174447,-187500.02235174447
não,3730.796722268668,-8343.41446678811,7364.206893945563,11831.806520438973,-187500.02235174447,-187500.02235174447,-187500.02235174447,-187500.02235174447
não,3610.5666888435712,-8328.304687536322,7287.808631397323,11874.006613970592,-187500.02235174447,-187500.02235174447,-187500.02235174447,-187500.02235174447
não,3393.9782850716456,-8371.108278168234,6748.908072579869,11918.419530203288,-187500.02235174447,-187500.02235174447,-187500.02235174447,-187500.02235174447
não,3411.993791102623,-8400.187897704589,6705.210412169745,11889.25050368911,-187500.02235174447,-187500.02235174447,-187500.02235174447,-187500.02235174447
não,3626.794055318124,-8350.3211558248,7252.179950735564,11814.662732441751,-187500.02235174447,-187500.02235174447,-187500.02235174447,-187500.02235174447
não,3613.561822600582,-8321.93444036656,7313.379027054194,11838.355581564378,-187500.02235174447,-187500.02235174447,-187500.02235174447,-187500.02235174447
não,3401.7790438865477,-8367.196722888557,6830.380181119464,11900.314617194488,-187500.02235174447,-187500.02235174447,-187500.02235174447,-187500.02235174447
não,3346.4137728707524,-8417.756368846462,6644.056039340025,11885.987148998636,-187500.02235174447,-187500.02235174447,-187500.02235174447,-187500.02235174447
não,3551.446324759284,-8372.672900280108,7162.817676403246,11800.938761346193,-187500.02235174447,-187500.02235174447,-187500.02235174447,-187500.02235174447
não,3554.1061823494656,-8316.570021697285,7327.661791761136,11768.640490608275,-187500.02235174447,-187500.02235174447,-187500.02235174447,-187500.02235174447
não,3363.6916713347046,-8348.577719757286,6914.936830393891,11874.319538392967,-187500.02235174447,-187500.02235174447,-187500.02235174447,-187500.02235174447
não,3287.5169262310183,-8405.686426840595,6597.743224828628,11901.387500928344,-187500.02235174447,-187500.02235174447,-187500.02235174447,-187500.02235174447
não,3498.986780522678,-8380.94304572857,7058.882064686069,11806.95138060467,-187500.02235174447,-187500.02235174447,-187500.02235174447,-187500.02235174447
não,3550.820475914535,-8317.039408330847,7389.553772157881,11779.61519713583,-187500.02235174447,-187500.02235174447,-187500.02235174447,-187500.02235174447
não,3333.159188408755,-8333.043257360847,6991.938590042423,11840.747218221095,-187500.02235174447,-187500.02235174447,-187500.02235174447,-187500.02235174447
não,3223.0768469663676,-8382.865295751726,6594.681035838251,11867.412849356277,-187500.02235174447,-187500.02235174447,-187500.02235174447,-187500.02235174447
não,3423.348477285919,-8380.831287006295,6922.55877525315,11821.748235434085,-187500.02235174447,-187500.02235174447,-187500.02235174447,-187500.02235174447
não,3571.7193569802475,-8321.666219433097,7338.480036077504,11801.966941591138,-187500.02235174447,-187500.02235174447,-187500.02235174447,-187500.02235174447
não,3426.254204065109,-8312.211431528502,7101.3280274066965,11847.072761901947,-187500.02235174447,-187500.02235174447,-187500.02235174447,-187500.02235174447
não,3247.4178966781974,-8373.209342147034,6607.980323789159,11886.456535632198,-187500.02235174447,-187500.02235174447,-187500.02235174447,-187500.02235174447
não,3377.3038837079866,-8392.789470289883,6839.387934134953,11826.553860491975,-187500.02235174447,-187500.02235174447,-187500.02235174447,-187500.02235174447
não,3515.4376644417844,-8327.164748569101,7311.389721797672,11763.924272528206,-187500.02235174447,-187500.02235174447,-187500.02235174447,-187500.02235174447
não,3404.86358462138,-8287.289236460834,7133.715705122436,11804.693854414685,-187500.02235174447,-187500.02235174447,-187500.02235174447,-187500.02235174447
não,3215.5443090849294,-8335.233728317467,6618.910326827804,11949.331992784977,-187500.02235174447,-187500.02235174447,-187500.02235174447,-187500.02235174447
não,3308.818138696926,-8341.492216764953,6715.112234963445,11893.765556069084,-187500.02235174447,-187500.02235174447,-187500.02235174447,-187500.02235174447
não,3518.6786673878037,-8279.533181134842,7271.737727133957,11825.168052335746,-187500.02235174447,-187500.02235174447,-187500.02235174447,-187500.02235174447
não,3434.7925704470363,-8268.089087973725,7222.04979920981,11841.641287999308,-187500.02235174447,-187500.02235174447,-187500.02235174447,-187500.02235174447
não,3235.4820651390633,-8324.951925868027,6717.302705920066,11908.852983576417,-187500.02235174447,-187500.02235174447,-187500.02235174447,-187500.02235174447
não,3286.689911686172,-8363.799257731349,6660.350461047943,11898.794698571528,-187500.02235174447,-187500.02235174447,-187500.02235174447,-187500.02235174447
não,3475.875076755891,-8294.97823655346,7195.048891907799,11825.52568024703,-187500.02235174447,-187500.02235174447,-187500.02235174447,-187500.02235174447
não,3450.7517159881254,-8261.450619870498,7277.705642903525,11861.713154520174,-187500.02235174447,-187500.02235174447,-187500.02235174447,-187500.02235174447
não,3244.2215972210884,-8293.2571522304,6789.655302721894,11919.447710448232,-187500.02235174447,-187500.02235174447,-187500.02235174447,-187500.02235174447
não,3223.3227161553764,-8343.280356321378,6574.028023961548,11920.11826278189,-187500.02235174447,-187500.02235174447,-187500.02235174447,-187500.02235174447
não,3442.2357013506535,-8307.629323915164,7109.821690299713,11849.57615728094,-187500.02235174447,-187500.02235174447,-187500.02235174447,-187500.02235174447
não,3457.5242945580835,-8262.791724537818,7325.8513004602555,11857.3992678403,-187500.02235174447,-187500.02235174447,-187500.02235174447,-187500.02235174447
não,3266.0592515539233,-8267.284425173333,6894.932019106391,11929.88597510886,-187500.02235174447,-187500.02235174447,-187500.02235174447,-187500.02235174447
não,3181.9719889130583,-8316.950001353027,6558.001823187092,11951.1201323414,-187500.02235174447,-187500.02235174447,-187500.02235174447,-187500.02235174447
não,3419.6604394507935,-8297.97337031047,7021.152320045509,11879.92982625125,-187500.02235174447,-187500.02235174447,-187500.02235174447,-187500.02235174447
não,3508.3968649383623,-8248.844235997705,7357.970757242532,11871.771439525062,-187500.02235174447,-187500.02235174447,-187500.02235174447,-187500.02235174447
não,3320.1057696468556,-8285.299931204312,7003.71795937037,11911.535192911053,-187500.02235174447,-187500.02235174447,-187500.02235174447,-187500.02235174447
não,3185.3471023258094,-8333.93732713906,6567.411907602776,11936.658553678817,-187500.02235174447,-187500.02235174447,-187500.02235174447,-187500.02235174447
não,3395.431148461241,-8303.762472124396,6910.89116464748,11889.295207178022,-187500.02235174447,-187500.02235174447,-187500.02235174447,-187500.02235174447
não,3514.0742080300106,-8240.81995973825,7343.486826835493,11864.507122577086,-187500.02235174447,-187500.02235174447,-187500.02235174447,-187500.02235174447
não,3349.833589772414,-8245.06679118476,7094.197820925453,11902.59449512893,-187500.02235174447,-187500.02235174447,-187500.02235174447,-187500.02235174447
não,3173.4783260200415,-8313.17255654008,6596.8715067948715,11952.952975386737,-187500.02235174447,-187500.02235174447,-187500.02235174447,-187500.02235174447
não,3303.8113479389367,-8312.144376295135,6802.77577671716,11918.196012758734,-187500.02235174447,-187500.02235174447,-187500.02235174447,-187500.02235174447
não,3479.5854663354717,-8240.663497527063,7335.686068020591,11862.003727198093,-187500.02235174447,-187500.02235174447,-187500.02235174447,-187500.02235174447
não,3361.52355212254,-8220.658686239563,7182.397804546095,11896.179544470257,-187500.02235174447,-187500.02235174447,-187500.02235174447,-187500.02235174447
não,3194.578372785851,-8293.190096997036,6636.232928780667,11955.299908554543,-187500.02235174447,-187500.02235174447,-187500.02235174447,-187500.02235174447
não,3278.7103389156273,-8329.198757314534,6697.61081905494,11942.559414215018,-187500.02235174447,-187500.02235174447,-187500.02235174447,-187500.02235174447
não,3476.4562221117285,-8248.44190459751,7254.571587392282,11889.518724622576,-187500.02235174447,-187500.02235174447,-187500.02235174447,-187500.02235174447
não,3423.2367185636426,-8221.955087417971,7231.3481249032175,11892.603265357408,-187500.02235174447,-187500.02235174447,-187500.02235174447,-187500.02235174447
não,3217.6006695748174,-8270.033689741336,6723.941174023292,11934.199861788735,-187500.02235174447,-187500.02235174447,-187500.02235174447,-187500.02235174447
não,3229.9611842586023,-8303.494251190932,6634.310678757511,11929.058960564013,-187500.02235174447,-187500.02235174447,-187500.02235174447,-187500.02235174447
não,3450.7517159881254,-8261.763544292873,7191.3161505837625,11876.577064582953,-187500.02235174447,-187500.02235174447,-187500.02235174447,-187500.02235174447
não,3432.199768090221,-8230.426398566533,7285.416994740605,11880.175695440257,-187500.02235174447,-187500.02235174447,-187500.02235174447,-187500.02235174447
não,3233.0904284823455,-8250.67707904304,6814.689256511839,11935.675076922784,-187500.02235174447,-187500.02235174447,-187500.02235174447,-187500.02235174447
não,3215.052570706913,-8307.137585537146,6571.34581462691,11931.763521643106,-187500.02235174447,-187500.02235174447,-187500.02235174447,-187500.02235174447
não,3464.9450737172456,-8273.252340942901,7093.817841269713,11875.101849448902,-187500.02235174447,-187500.02235174447,-187500.02235174447,-187500.02235174447
não,3488.839088539969,-8217.887069927105,7328.444102817071,11882.410869885787,-187500.02235174447,-187500.02235174447,-187500.02235174447,-187500.02235174447
não,3270.037862066968,-8247.257262141378,6917.440225772885,11947.722667184195,-187500.02235174447,-187500.02235174447,-187500.02235174447,-187500.02235174447
não,3156.692165934106,-8294.97823655346,6559.1864656432235,11975.37177507541,-187500.02235174447,-187500.02235174447,-187500.02235174447,-187500.02235174447
não,3377.8179738304584,-8268.513771118376,6980.069813736655,11892.044471746025,-187500.02235174447,-187500.02235174447,-187500.02235174447,-187500.02235174447
não,3506.854594570946,-8214.310790814256,7334.903756964655,11877.627596572353,-187500.02235174447,-187500.02235174447,-187500.02235174447,-187500.02235174447
não,3332.645098286283,-8222.916212429549,7016.212584520887,11943.36407701541,-187500.02235174447,-187500.02235174447,-187500.02235174447,-187500.02235174447
não,3180.0497388899016,-8276.560399122287,6570.541151826519,11974.388298319376,-187500.02235174447,-187500.02235174447,-187500.02235174447,-187500.02235174447
não,3360.160095710766,-8290.97727429596,6880.738661377271,11914.463271434697,-187500.02235174447,-187500.02235174447,-187500.02235174447,-187500.02235174447
não,3483.8770012708906,-8224.838462452706,7324.599602770759,11879.527494851052,-187500.02235174447,-187500.02235174447,-187500.02235174447,-187500.02235174447
não,3343.5080460915624,-8209.259296567358,7110.760463566836,11954.897577154348,-187500.02235174447,-187500.02235174447,-187500.02235174447,-187500.02235174447
não,3164.24705556,-8266.055079228292,6615.0658267814915,12004.920781245326,-187500.02235174447,-187500.02235174447,-187500.02235174447,-187500.02235174447
não,3308.840490441381,-8298.241591243934,6779.373500272453,11934.333972255467,-187500.02235174447,-187500.02235174447,-187500.02235174447,-187500.02235174447
não,3515.705885375248,-8244.195073151002,7293.910657633622,11884.891913520327,-187500.02235174447,-187500.02235174447,-187500.02235174447,-187500.02235174447
não,3425.382486031352,-8184.895895111072,7190.869115694656,11925.415626217798,-187500.02235174447,-187500.02235174447,-187500.02235174447,-187500.02235174447
não,3215.4772538515635,-8239.68002077103,6686.032615427091,11973.963615174725,-187500.02235174447,-187500.02235174447,-187500.02235174447,-187500.02235174447
não,3270.9542835896355,-8281.947169536015,6700.427138856308,11936.189167045257,-187500.02235174447,-187500.02235174447,-187500.02235174447,-187500.02235174447
não,3468.54370457455,-8249.15716042008,7244.222729709474,11869.02217495706,-187500.02235174447,-187500.02235174447,-187500.02235174447,-187500.02235174447
não,3433.317355312986,-8199.580991218209,7265.099259030731,11915.78202435756,-187500.02235174447,-187500.02235174447,-187500.02235174447,-187500.02235174447
não,3255.26335898201,-8220.681037984019,6772.533866469129,12003.624380066918,-187500.02235174447,-187500.02235174447,-187500.02235174447,-187500.02235174447
não,3275.7375569030714,-8293.078338274758,6637.596385192441,12004.361987633943,-187500.02235174447,-187500.02235174447,-187500.02235174447,-187500.02235174447
não,3495.745777576659,-8237.221328880945,7196.9487901864995,11911.065806277491,-187500.02235174447,-187500.02235174447,-187500.02235174447,-187500.02235174447
não,3468.409594107818,-8203.358436031156,7339.731733767001,11891.955064768204,-187500.02235174447,-187500.02235174447,-187500.02235174447,-187500.02235174447
não,3246.5014751555295,-8222.62563975163,6838.024477723179,11960.574920245996,-187500.02235174447,-187500.02235174447,-187500.02235174447,-187500.02235174447
não,3218.9864777310468,-8265.384526894633,6607.645047622329,11980.266807111122,-187500.02235174447,-187500.02235174447,-187500.02235174447,-187500.02235174447
não,3457.390184091352,-8254.409820367076,7100.523364606305,11909.523535910075,-187500.02235174447,-187500.02235174447,-187500.02235174447,-187500.02235174447
não,3503.188908480276,-8221.150424617581,7359.825952032323,11912.921001067281,-187500.02235174447,-187500.02235174447,-187500.02235174447,-187500.02235174447
não,3288.0757198424008,-8226.53719503131,6978.169915457955,11991.375624105409,-187500.02235174447,-187500.02235174447,-187500.02235174447,-187500.02235174447
não,3204.614306046284,-8246.117323174158,6610.550774401519,12012.252153426667,-187500.02235174447,-187500.02235174447,-187500.02235174447,-187500.02235174447
não,3440.358154816408,-8252.688736044018,7008.858860595091,11934.17751004428,-187500.02235174447,-187500.02235174447,-187500.02235174447,-187500.02235174447
não,3534.190778039787,-8192.04845333677,7371.448859149082,11887.01532924358,-187500.02235174447,-187500.02235174447,-187500.02235174447,-187500.02235174447
não,3376.4098139297744,-8199.089252840193,7080.49620157435,11932.054094321025,-187500.02235174447,-187500.02235174447,-187500.02235174447,-187500.02235174447
não,3220.68521030965,-8254.745096533907,6625.347629230932,11978.501019299152,-187500.02235174447,-187500.02235174447,-187500.02235174447,-187500.02235174447
não,3401.7566921420926,-8269.676061830052,6911.248792558765,11939.072542079992,-187500.02235174447,-187500.02235174447,-187500.02235174447,-187500.02235174447
não,3555.313176550052,-8227.364209576155,7361.8376090333,11897.095965992925,-187500.02235174447,-187500.02235174447,-187500.02235174447,-187500.02235174447
$SILENCE,3422.2308900631538,-8212.835575680207,7166.595121216193,11953.154141086834,-187500.02235174447,-187500.02235174447,-187500.02235174447,-187500.02235174447
$SILENCE,3244.8474460658367,-8230.404046822077,6680.288217102077,12016.253115684167,-187500.02235174447,-187500.02235174447,-187500.02235174447,-187500.02235174447
$SILENCE,3375.1804679847323,-8271.084221730736,6809.101320398012,11978.813943721527,-187500.02235174447,-187500.02235174447,-187500.02235174447,-187500.02235174447
$SILENCE,3566.6231592444374,-8215.383674548111,7324.711361493035,11939.497225224643,-187500.02235174447,-187500.02235174447,-187500.02235174447,-187500.02235174447
$SILENCE,3468.2978353855415,-8191.735528914396,7252.157598991108,11942.849986892938,-187500.02235174447,-187500.02235174447,-187500.02235174447,-187500.02235174447
$SILENCE,3264.7628503755154,-8236.282555613823,6746.404677200875,11968.867417438916,-187500.02235174447,-187500.02235174447,-187500.02235174447,-187500.02235174447
$SILENCE,3337.7636477665483,-8267.172666451057,6729.774979326127,11945.50984448312,-187500.02235174447,-187500.02235174447,-187500.02235174447,-187500.02235174447
$SILENCE,3559.0906213629987,-8230.58286077772,7270.620139911192,11906.014312030591,-187500.02235174447,-187500.02235174447,-187500.02235174447,-187500.02235174447
$SILENCE,3515.1470917638653,-8202.017331363837,7308.260477573929,11931.942335598747,-187500.02235174447,-187500.02235174447,-187500.02235174447,-187500.02235174447
$SILENCE,3312.9308596767023,-8240.887014971617,6821.506538570708,11980.110344899935,-187500.02235174447,-187500.02235174447,-187500.02235174447,-187500.02235174447
$SILENCE,3306.22533634011,-8290.463184173488,6656.908292401826,11970.99083316217,-187500.02235174447,-187500.02235174447,-187500.02235174447,-187500.02235174447
$SILENCE,3541.276281032119,-8241.065828927258,7210.136319415131,11910.30584696601,-187500.02235174447,-187500.02235174447,-187500.02235174447,-187500.02235174447
$SILENCE,3555.5813974835155,-8202.553773230764,7378.355548185772,11916.653742391318,-187500.02235174447,-187500.02235174447,-187500.02235174447,-187500.02235174447
$SILENCE,3375.9851307851236,-8237.333087603223,6927.967897411335,11970.543798273064,-187500.02235174447,-187500.02235174447,-187500.02235174447,-187500.02235174447
$SILENCE,3301.978504893602,-8281.231913713445,6623.939469330248,11988.402842092853,-187500.02235174447,-187500.02235174447,-187500.02235174447,-187500.02235174447
$SILENCE,3516.7564173646474,-8254.074544200248,7101.104509962143,11917.324294724976,-187500.02235174447,-187500.02235174447,-187500.02235174447,-187500.02235174447
$SILENCE,3582.7834704856245,-8204.967761631939,7389.7772896024335,11897.185372970745,-187500.02235174447,-187500.02235174447,-187500.02235174447,-187500.02235174447
$SILENCE,3415.637125448838,-8225.19609036399,7015.296162998219,11956.641013221863,-187500.02235174447,-187500.02235174447,-187500.02235174447,-187500.02235174447
$SILENCE,3301.8220426824146,-8282.014224769382,6617.971553560681,11981.004414678147,-187500.02235174447,-187500.02235174447,-187500.02235174447,-187500.02235174447
$SILENCE,3507.703960860248,-8274.593445610219,7008.4118257059845,11912.339855711443,-187500.02235174447,-187500.02235174447,-187500.02235174447,-187500.02235174447
$SILENCE,3621.7202093267692,-8220.569279261743,7407.166946788663,11882.20970418569,-187500.02235174447,-187500.02235174447,-187500.02235174447,-187500.02235174447
$SILENCE,3457.479591069173,-8216.545965259787,7133.335725466696,11932.769350143595,-187500.02235174447,-187500.02235174447,-187500.02235174447,-187500.02235174447
$SILENCE,3300.7268072041047,-8271.195980453012,6669.000586152147,11967.995699405159,-187500.02235174447,-187500.02235174447,-187500.02235174447,-187500.02235174447
$SILENCE,3451.6457857663377,-8279.644939857119,6897.390710996475,11904.337931196444,-187500.02235174447,-187500.02235174447,-187500.02235174447,-187500.02235174447
$SILENCE,3614.6794098233477,-8224.369075819144,7366.196199202085,11864.663584788274,-187500.02235174447,-187500.02235174447,-187500.02235174447,-187500.02235174447
$SILENCE,3509.0450655275663,-8212.612058235653,7209.71163627048,11916.921963324781,-187500.02235174447,-187500.02235174447,-187500.02235174447,-187500.02235174447
$SILENCE,3320.999839425068,-8260.198922181002,6696.157955665345,11965.693469726262,-187500.02235174447,-187500.02235174447,-187500.02235174447,-187500.02235174447
$SILENCE,3420.15217782881,-8283.377681181155,6798.104262126,11912.1610417558,-187500.02235174447,-187500.02235174447,-187500.02235174447,-187500.02235174447
$SILENCE,3624.625936105959,-8230.716971244452,7358.350736898272,11853.1971398827,-187500.02235174447,-187500.02235174447,-187500.02235174447,-187500.02235174447
$SILENCE,3560.0293946301217,-8215.42837803702,7318.16230036763,11878.231093672644,-187500.02235174447,-187500.02235174447,-187500.02235174447,-187500.02235174447
$SILENCE,3352.5605025959617,-8250.990003465415,6787.598942232006,11933.439902477254,-187500.02235174447,-187500.02235174447,-187500.02235174447,-187500.02235174447
$SILENCE,3382.131860510333,-8282.081280002747,6725.863424046448,11919.380655214865,-187500.02235174447,-187500.02235174447,-187500.02235174447,-187500.02235174447
$SILENCE,3562.175162097831,-8224.078503141225,7280.611369682714,11851.185482881723,-187500.02235174447,-187500.02235174447,-187500.02235174447,-187500.02235174447
$SILENCE,3565.3938132993953,-8207.605267477664,7354.528588596415,11865.669413288762,-187500.02235174447,-187500.02235174447,-187500.02235174447,-187500.02235174447
$SILENCE,3415.905346382302,-8249.850064498194,6878.615245654017,11926.2649925071,-187500.02235174447,-187500.02235174447,-187500.02235174447,-187500.02235174447
$SILENCE,3358.707232321171,-8284.159992237092,6664.12790586089,11906.97543704217,-187500.02235174447,-187500.02235174447,-187500.02235174447,-187500.02235174447
$SILENCE,3572.8816476919233,-8253.58280582223,7212.393845605117,11841.708343232673,-187500.02235174447,-187500.02235174447,-187500.02235174447,-187500.02235174447
$SILENCE,3591.6571130343814,-8206.465328510443,7433.989040135031,11856.952232951193,-187500.02235174447,-187500.02235174447,-187500.02235174447,-187500.02235174447
$SILENCE,3422.476759252162,-8233.846215468195,7010.334075729142,11916.40787320231,-187500.02235174447,-187500.02235174447,-187500.02235174447,-187500.02235174447
$SILENCE,3334.1426651647885,-8281.991873024926,6654.471952256197,11923.06869304999,-187500.02235174447,-187500.02235174447,-187500.02235174447,-187500.02235174447
$SILENCE,3542.2374060436973,-8266.077430972748,7141.784684870802,11848.950308436193,-187500.02235174447,-187500.02235174447,-187500.02235174447,-187500.02235174447
$SILENCE,3616.1099214684873,-8204.788947676296,7468.85776148531,11844.234090356123,-187500.02235174447,-187500.02235174447,-187500.02235174447,-187500.02235174447
$SILENCE,3429.606965733405,-8219.04936063878,7056.803352451725,11881.44974487421,-187500.02235174447,-187500.02235174447,-187500.02235174447,-187500.02235174447
$SILENCE,3304.1466241057665,-8271.888884531127,6646.470027741198,11905.16494574129,-187500.02235174447,-187500.02235174447,-187500.02235174447,-187500.02235174447
$SILENCE,3556.028432372622,-8286.216352726979,7073.500105559839,11837.573270508441,-187500.02235174447,-187500.02235174447,-187500.02235174447,-187500.02235174447
$SILENCE,3668.949445360833,-8220.77044496184,7481.061813957908,11812.248744040578,-187500.02235174447,-187500.02235174447,-187500.02235174447,-187500.02235174447
$SILENCE,3462.3522713604298,-8204.587781976197,7151.217121030942,11856.39343933981,-187500.02235174447,-187500.02235174447,-187500.02235174447,-187500.02235174447
$SILENCE,3319.301106846465,-8269.676061830052,6676.197847866756,11920.632352904362,-187500.02235174447,-187500.02235174447,-187500.02235174447,-187500.02235174447
$SILENCE,3497.7797863220917,-8282.34950093621,6984.942494027912,11882.813201285982,-187500.02235174447,-187500.02235174447,-187500.02235174447,-187500.02235174447
$SILENCE,3669.240018038752,-8219.652857739075,7399.500298440493,11801.966941591138,-187500.02235174447,-187500.02235174447,-187500.02235174447,-187500.02235174447
$SILENCE,3517.3599144649406,-8206.152404088069,7202.603781533692,11830.934802405216,-187500.02235174447,-187500.02235174447,-187500.02235174447,-187500.02235174447
$SILENCE,3328.8453017288807,-8256.466180856965,6704.830432514004,11906.014312030591,-187500.02235174447,-187500.02235174447,-187500.02235174447,-187500.02235174447
$SILENCE,3423.0355528635446,-8287.825678327761,6769.874008878948,11880.64508207382,-187500.02235174447,-187500.02235174447,-187500.02235174447,-187500.02235174447
$SILENCE,3635.108904255498,-8226.648953753585,7358.730716554012,11835.829834440927,-187500.02235174447,-187500.02235174447,-187500.02235174447,-187500.02235174447
$SILENCE,3558.4871242627055,-8191.623770192119,7359.065992720842,11874.855980259894,-187500.02235174447,-187500.02235174447,-187500.02235174447,-187500.02235174447
$SILENCE,3352.6946130626934,-8234.449712568488,6814.599849534017,11915.804376102016,-187500.02235174447,-187500.02235174447,-187500.02235174447,-187500.02235174447
$SILENCE,3401.1755467862545,-8275.979253766449,6697.61081905494,11894.033777002547,-187500.02235174447,-187500.02235174447,-187500.02235174447,-187500.02235174447
$SILENCE,3621.407284904395,-8229.554680532776,7279.024395826387,11838.065008886459,-187500.02235174447,-187500.02235174447,-187500.02235174447,-187500.02235174447
$SILENCE,3564.186819098809,-8197.904610384061,7355.8473415192775,11838.28852633101,-187500.02235174447,-187500.02235174447,-187500.02235174447,-187500.02235174447
$SILENCE,3350.3029764059756,-8226.425436309033,6869.428678682885,11909.523535910075,-187500.02235174447,-187500.02235174447,-187500.02235174447,-187500.02235174447
$SILENCE,3373.1241074948443,-8277.275654944857,6649.59927196494,11910.998751044126,-187500.02235174447,-187500.02235174447,-187500.02235174447,-187500.02235174447
$SILENCE,3593.2217351462527,-8243.256299883878,7191.249095350397,11825.905659902772,-187500.02235174447,-187500.02235174447,-187500.02235174447,-187500.02235174447
$SILENCE,3573.4627930477614,-8189.85798238015,7416.688789926624,11820.407130766765,-187500.02235174447,-187500.02235174447,-187500.02235174447,-187500.02235174447
$SILENCE,3413.2678405365755,-8210.779215190318,6977.14173521301,11892.267989190577,-187500.02235174447,-187500.02235174447,-187500.02235174447,-187500.02235174447
$SILENCE,3288.254533798043,-8247.749000519396,6624.274745497078,11938.93843161326,-187500.02235174447,-187500.02235174447,-187500.02235174447,-187500.02235174447
$SILENCE,3555.6261009724262,-8244.463294084466,7083.245466142353,11876.331195393945,-187500.02235174447,-187500.02235174447,-187500.02235174447,-187500.02235174447
$SILENCE,3614.590002845526,-8184.851191622161,7406.451690966093,11856.549901550998,-187500.02235174447,-187500.02235174447,-187500.02235174447,-187500.02235174447
$SILENCE,3420.509805740095,-8194.2836277823,7066.4593060564175,11902.460384662198,-187500.02235174447,-187500.02235174447,-187500.02235174447,-187500.02235174447
$SILENCE,3287.360464019831,-8255.058020956281,6636.858777625415,11926.019123318092,-187500.02235174447,-187500.02235174447,-187500.02235174447,-187500.02235174447
$SILENCE,3473.1705156767985,-8252.196997666002,6965.228255418331,11874.051317459503,-187500.02235174447,-187500.02235174447,-187500.02235174447,-187500.02235174447
$SILENCE,3633.477226910261,-8202.017331363837,7393.13005127073,11820.071854599937,-187500.02235174447,-187500.02235174447,-187500.02235174447,-187500.02235174447
$SILENCE,3468.767222019103,-8199.62569470712,7157.587368200704,11868.172808667758,-187500.02235174447,-187500.02235174447,-187500.02235174447,-187500.02235174447
$SILENCE,3285.4382139966747,-8240.06000042677,6672.755679220639,11954.070562609502,-187500.02235174447,-187500.02235174447,-187500.02235174447,-187500.02235174447
$SILENCE,3409.2668782790756,-8259.506018102888,6865.964158292313,11902.058053262002,-187500.02235174447,-187500.02235174447,-187500.02235174447,-187500.02235174447
$SILENCE,3629.699782097314,-8196.094119083182,7390.492545425003,11849.419695069755,-187500.02235174447,-187500.02235174447,-187500.02235174447,-187500.02235174447
$SILENCE,3529.0722285595216,-8185.119412555625,7250.8611978127,11870.139762179824,-187500.02235174447,-187500.02235174447,-187500.02235174447,-187500.02235174447
$SILENCE,3313.6014120103614,-8240.350573104688,6711.9829907397025,11920.207669759711,-187500.02235174447,-187500.02235174447,-187500.02235174447,-187500.02235174447
$SILENCE,3385.4622704341737,-8280.896637546615,6743.029563788124,11895.129012480857,-187500.02235174447,-187500.02235174447,-187500.02235174447,-187500.02235174447
$SILENCE,3626.5258343846604,-8219.451692038976,7314.295448576862,11833.14762510629,-187500.02235174447,-187500.02235174447,-187500.02235174447,-187500.02235174447
$SILENCE,3546.3948305123845,-8172.33421472719,7319.481053290493,11884.042547231025,-187500.02235174447,-187500.02235174447,-187500.02235174447,-187500.02235174447
$SILENCE,3335.0367349430007,-8225.039628152803,6803.4910325397295,11926.063826807002,-187500.02235174447,-187500.02235174447,-187500.02235174447,-187500.02235174447
$SILENCE,3321.648040014272,-8276.381585166644,6687.306664861044,11905.4108149303,-187500.02235174447,-187500.02235174447,-187500.02235174447,-187500.02235174447
$SILENCE,3563.7174324652474,-8214.154328603068,7256.918520560089,11850.134950892325,-187500.02235174447,-187500.02235174447,-187500.02235174447,-187500.02235174447
$SILENCE,3609.985543487733,-8165.025194290304,7373.7510888279785,11882.388518141332,-187500.02235174447,-187500.02235174447,-187500.02235174447,-187500.02235174447
$SILENCE,3364.9210172797466,-8214.53430825881,6893.1885830388765,11922.688713394251,-187500.02235174447,-187500.02235174447,-187500.02235174447,-187500.02235174447
$SILENCE,3298.8492606698587,-8278.97438752346,6633.88599561286,11903.779137585061,-187500.02235174447,-187500.02235174447,-187500.02235174447,-187500.02235174447
$SILENCE,3561.549313253083,-8233.734456745919,7134.542719667283,11841.350715321389,-187500.02235174447,-187500.02235174447,-187500.02235174447,-187500.02235174447
$SILENCE,3609.8961365099117,-8194.19422080448,7375.986263273509,11837.796787952995,-187500.02235174447,-187500.02235174447,-187500.02235174447,-187500.02235174447
$SILENCE,3374.644026117805,-8195.222401049425,6978.751060813793,11919.715931381696,-187500.02235174447,-187500.02235174447,-187500.02235174447,-187500.02235174447
$SILENCE,3236.7114110841053,-8237.780122492328,6629.50505369962,11958.071524867002,-187500.02235174447,-187500.02235174447,-187500.02235174447,-187500.02235174447
$SILENCE,3512.9789725517003,-8239.165930648558,7024.214509035887,11867.144628422813,-187500.02235174447,-187500.02235174447,-187500.02235174447,-187500.02235174447
$SILENCE,3620.379104659451,-8176.983377573893,7386.98332154552,11850.91726194826,-187500.02235174447,-187500.02235174447,-187500.02235174447,-187500.02235174447
$SILENCE,3386.1998780011986,-8180.5596566867425,7092.54379183576,11918.128957525369,-187500.02235174447,-187500.02235174447,-187500.02235174447,-187500.02235174447
$SILENCE,3217.2206899190774,-8228.884128199117,6624.140635030346,11963.99473714766,-187500.02235174447,-187500.02235174447,-187500.02235174447,-187500.02235174447
$SILENCE,3432.311526812497,-8232.706276500974,6924.726894465315,11923.560431428008,-187500.02235174447,-187500.02235174447,-187500.02235174447,-187500.02235174447
$SILENCE,3556.698984706281,-8186.482868967399,7338.100056421764,11837.77443620854,-187500.02235174447,-187500.02235174447,-187500.02235174447,-187500.02235174447
$SILENCE,3477.64086456786,-8169.652005392552,7172.674795708036,11932.83640537696,-187500.02235174447,-187500.02235174447,-187500.02235174447,-187500.02235174447
$SILENCE,3234.1409604717446,-8223.653819996574,6666.2513215841445,11972.309586085032,-187500.02235174447,-187500.02235174447,-187500.02235174447,-187500.02235174447
$SILENCE,3362.484677134118,-8234.941450946504,6777.697119438305,11923.493376194641,-187500.02235174447,-187500.02235174447,-187500.02235174447,-187500.02235174447
$SILENCE,3539.8457693869796,-8183.577142188209,7330.567518540325,11874.788925026527,-187500.02235174447,-187500.02235174447,-187500.02235174447,-187500.02235174447
$SILENCE,3471.695300542748,-8171.574255415709,7231.035200480843,11928.522518697086,-187500.02235174447,-187500.02235174447,-187500.02235174447,-187500.02235174447
$SILENCE,3303.7219409611157,-8195.490621982888,6742.00138354318,12007.602990579962,-187500.02235174447,-187500.02235174447,-187500.02235174447,-187500.02235174447
$SILENCE,3269.5461236889514,-8219.496395527887,6718.867328031937,11950.024896863091,-187500.02235174447,-187500.02235174447,-187500.02235174447,-187500.02235174447
$SILENCE,3465.6603295398154,-8178.90562759705,7229.023543479865,11888.647006588819,-187500.02235174447,-187500.02235174447,-187500.02235174447,-187500.02235174447
$SILENCE,3444.5379310295502,-8149.982470271882,7265.05455554182,11928.947201841736,-187500.02235174447,-187500.02235174447,-187500.02235174447,-187500.02235174447
$SILENCE,3280.900809872247,-8180.693767153474,6809.928334942858,11998.371720119922,-187500.02235174447,-187500.02235174447,-187500.02235174447,-187500.02235174447
$SILENCE,3285.5276209744957,-8233.019200923349,6675.951978677747,11985.005376935647,-187500.02235174447,-187500.02235174447,-187500.02235174447,-187500.02235174447
$SILENCE,3497.1315857328877,-8172.468325193921,7221.155729431597,11938.156120557323,-187500.02235174447,-187500.02235174447,-187500.02235174447,-187500.02235174447
$SILENCE,3460.6982422707374,-8161.471266921911,7330.321649351317,11887.864695532882,-187500.02235174447,-187500.02235174447,-187500.02235174447,-187500.02235174447
$SILENCE,3268.0485568104455,-8158.252615720346,6893.859135372536,11989.721595015717,-187500.02235174447,-187500.02235174447,-187500.02235174447,-187500.02235174447
$SILENCE,3247.5073036560184,-8202.240848808391,6611.422492435276,12016.141356961889,-187500.02235174447,-187500.02235174447,-187500.02235174447,-187500.02235174447
$SILENCE,3493.2647339421196,-8191.489659725387,7126.943126552478,11955.679888210285,-187500.02235174447,-187500.02235174447,-187500.02235174447,-187500.02235174447
$SILENCE,3524.1324930348987,-8141.265289934313,7388.883219824222,11937.954954857225,-187500.02235174447,-187500.02235174447,-187500.02235174447,-187500.02235174447
$SILENCE,3297.195231580166,-8148.931938282483,6993.950247043401,11989.56513280453,-187500.02235174447,-187500.02235174447,-187500.02235174447,-187500.02235174447
$SILENCE,3167.1527823391893,-8214.981343147916,6586.813221789983,11997.030615452602,-187500.02235174447,-187500.02235174447,-187500.02235174447,-187500.02235174447
$SILENCE,3406.9199451112686,-8198.977494117915,7008.501232683806,11964.374716803399,-187500.02235174447,-187500.02235174447,-187500.02235174447,-187500.02235174447
$SILENCE,3531.665030916337,-8144.3721824136,7384.03289127742,11916.78785285805,-187500.02235174447,-187500.02235174447,-187500.02235174447,-187500.02235174447
$SILENCE,3332.3098221194537,-8133.330420652679,7087.760518522325,11993.364929361931,-187500.02235174447,-187500.02235174447,-187500.02235174447,-187500.02235174447
$SILENCE,3133.625165656229,-8195.200049304969,6647.431152752776,12028.993610023692,-187500.02235174447,-187500.02235174447,-187500.02235174447,-187500.02235174447
$SILENCE,3342.904548991269,-8209.929848901016,6893.993245839268,11961.714859213216,-187500.02235174447,-187500.02235174447,-187500.02235174447,-187500.02235174447
$SILENCE,3541.36568800994,-8155.011612774327,7395.499336182993,11915.69261737974,-187500.02235174447,-187500.02235174447,-187500.02235174447,-187500.02235174447
$SILENCE,3411.7926254025256,-8149.602490616142,7194.870077952156,11942.335896770466,-187500.02235174447,-187500.02235174447,-187500.02235174447,-187500.02235174447
$SILENCE,3215.4996055960187,-8208.968723889438,6659.948129647748,11995.890676485382,-187500.02235174447,-187500.02235174447,-187500.02235174447,-187500.02235174447
$SILENCE,3309.9133741752357,-8214.176680347524,6787.062500365079,11970.052059895046,-187500.02235174447,-187500.02235174447,-187500.02235174447,-187500.02235174447
$SILENCE,3519.6844958882925,-8173.205932760947,7349.991184471987,11929.148367541835,-187500.02235174447,-187500.02235174447,-187500.02235174447,-187500.02235174447
$SILENCE,3441.0734106389777,-8144.148664969047,7275.515171946904,11952.349478286444,-187500.02235174447,-187500.02235174447,-187500.02235174447,-187500.02235174447
$SILENCE,3200.434529833142,-8187.756918401351,6715.000476241169,12007.088900457491,-187500.02235174447,-187500.02235174447,-187500.02235174447,-187500.02235174447
$SILENCE,3245.5403501439514,-8213.707293713964,6682.121060147412,11973.628339007895,-187500.02235174447,-187500.02235174447,-187500.02235174447,-187500.02235174447
$SILENCE,3537.543539708083,-8185.052357322259,7258.729011860969,11919.380655214865,-187500.02235174447,-187500.02235174447,-187500.02235174447,-187500.02235174447
$SILENCE,3498.383283422385,-8153.044659262259,7320.5092335354375,11947.253280550633,-187500.02235174447,-187500.02235174447,-187500.02235174447,-187500.02235174447
$SILENCE,3280.096147071856,-8185.991130589382,6834.738771288249,11999.84693525397,-187500.02235174447,-187500.02235174447,-187500.02235174447,-187500.02235174447
$SILENCE,3253.586978147862,-8229.91230844406,6655.433077267776,11986.36883334742,-187500.02235174447,-187500.02235174447,-187500.02235174447,-187500.02235174447
$SILENCE,3479.1384314463658,-8193.166040559536,7200.5921245327145,11921.615829660395,-187500.02235174447,-187500.02235174447,-187500.02235174447,-187500.02235174447
$SILENCE,3505.535841648083,-8142.718153323907,7383.474097666037,11944.414609004809,-187500.02235174447,-187500.02235174447,-187500.02235174447,-187500.02235174447
$SILENCE,3307.544089262973,-8160.979528543893,6941.736571995803,11994.460164840242,-187500.02235174447,-187500.02235174447,-187500.02235174447,-187500.02235174447
$SILENCE,3209.107006681801,-8216.121282115137,6625.526443186574,11992.381452605898,-187500.02235174447,-187500.02235174447,-187500.02235174447,-187500.02235174447
$SILENCE,3444.9179106852903,-8193.680130682007,7104.680789074992,11947.02976310608,-187500.02235174447,-187500.02235174447,-187500.02235174447,-187500.02235174447
$SILENCE,3498.115062488921,-8144.394534158056,7404.574144431847,11930.511823953608,-187500.02235174447,-187500.02235174447,-187500.02235174447,-187500.02235174447
$SILENCE,3318.4740923016184,-8156.509179652832,7042.900567400524,11979.171571632813,-187500.02235174447,-187500.02235174447,-187500.02235174447,-187500.02235174447
$SILENCE,3210.3363526268427,-8217.596497249186,6629.92973684427,12004.13847018939,-187500.02235174447,-187500.02235174447,-187500.02235174447,-187500.02235174447
$SILENCE,3410.7197416686704,-8215.987171648405,7002.890944825524,11945.152216571834,-187500.02235174447,-187500.02235174447,-187500.02235174447,-187500.02235174447
$SILENCE,3531.285051260597,-8154.363412185123,7409.312714256373,11921.16879477129,-187500.02235174447,-187500.02235174447,-187500.02235174447,-187500.02235174447
$SILENCE,3372.5206103945507,-8154.788095329774,7126.585498641193,11958.071524867002,-187500.02235174447,-187500.02235174447,-187500.02235174447,-187500.02235174447
$SILENCE,3192.566715784874,-8204.408968020554,6651.253301054633,12003.289103900088,-187500.02235174447,-187500.02235174447,-187500.02235174447,-187500.02235174447
$SILENCE,3375.4263371737406,-8215.584840248208,6905.0797110891,11953.355306786932,-187500.02235174447,-187500.02235174447,-187500.02235174447,-187500.02235174447
$SILENCE,3530.636850671393,-8163.527627411799,7388.346777957294,11906.64016087534,-187500.02235174447,-187500.02235174447,-187500.02235174447,-187500.02235174447
$SILENCE,3425.315430797986,-8158.967871542915,7226.274278911863,11940.435998491765,-187500.02235174447,-187500.02235174447,-187500.02235174447,-187500.02235174447
$SILENCE,3257.386774705264,-8210.131014601113,6722.644772844884,11993.409632850842,-187500.02235174447,-187500.02235174447,-187500.02235174447,-187500.02235174447
$SILENCE,3342.2787001465204,-8230.292288099801,6813.72813150026,11964.732344714683,-187500.02235174447,-187500.02235174447,-187500.02235174447,-187500.02235174447
$SILENCE,3545.634871200904,-8168.690880380975,7374.287530694906,11913.815070845494,-187500.02235174447,-187500.02235174447,-187500.02235174447,-187500.02235174447
$SILENCE,3460.54178005955,-8141.08647597867,7323.929050437099,11940.54775721404,-187500.02235174447,-187500.02235174447,-187500.02235174447,-187500.02235174447
$SILENCE,3265.098126542345,-8194.462441737944,6789.00710213269,11987.128792658901,-187500.02235174447,-187500.02235174447,-187500.02235174447,-187500.02235174447
$SILENCE,3313.735522477093,-8234.24854686839,6748.304575479577,11959.636146978874,-187500.02235174447,-187500.02235174447,-187500.02235174447,-187500.02235174447
$SILENCE,3525.607708168949,-8196.027063849815,7270.038994555354,11896.492468892631,-187500.02235174447,-187500.02235174447,-187500.02235174447,-187500.02235174447
$SILENCE,3520.9361935777897,-8158.744354098363,7373.79579231689,11910.372902199377,-187500.02235174447,-187500.02235174447,-187500.02235174447,-187500.02235174447
$SILENCE,3303.029036883001,-8194.641255693587,6857.35873667702,11982.300815856555,-187500.02235174447,-187500.02235174447,-187500.02235174447,-187500.02235174447
$SILENCE,3283.515963973518,-8244.642108040109,6666.094859372957,11974.187132619278,-187500.02235174447,-187500.02235174447,-187500.02235174447,-187500.02235174447
$SILENCE,3520.377399966407,-8206.57708723272,7203.944886201011,11905.187297485745,-187500.02235174447,-187500.02235174447,-187500.02235174447,-187500.02235174447
$SILENCE,3531.7097344052477,-8158.990223287371,7404.261220009473,11902.348625939921,-187500.02235174447,-187500.02235174447,-187500.02235174447,-187500.02235174447
$SILENCE,3354.9074357637687,-8186.795793389773,6983.891962038513,11956.708068455227,-187500.02235174447,-187500.02235174447,-187500.02235174447,-187500.02235174447
$SILENCE,3286.622856452806,-8241.95989870547,6656.975347635192,11970.163818617322,-187500.02235174447,-187500.02235174447,-187500.02235174447,-187500.02235174447
$SILENCE,3499.031484011589,-8219.96578216145,7108.994675754867,11898.817050315984,-187500.02235174447,-187500.02235174447,-187500.02235174447,-187500.02235174447
$SILENCE,3562.7563074536693,-8166.746278613363,7424.04251385242,11883.371994897367,-187500.02235174447,-187500.02235174447,-187500.02235174447,-187500.02235174447
$SILENCE,3394.6488374053047,-8182.861886365639,7081.837306241669,11938.044361835047,-187500.02235174447,-187500.02235174447,-187500.02235174447,-187500.02235174447
$SILENCE,3266.863914354314,-8237.690715514507,6657.891769157859,11971.057888395535,-187500.02235174447,-187500.02235174447,-187500.02235174447,-187500.02235174447
$SILENCE,3455.669099768293,-8231.521634044842,7008.903564084001,11913.882126078859,-187500.02235174447,-187500.02235174447,-187500.02235174447,-187500.02235174447
$SILENCE,3582.671711763348,-8175.910493840039,7430.256298810995,11877.806410527994,-187500.02235174447,-187500.02235174447,-187500.02235174447,-187500.02235174447
$SILENCE,3444.4932275406395,-8181.2078572759465,7177.882752166123,11918.732454625662,-187500.02235174447,-187500.02235174447,-187500.02235174447,-187500.02235174447
$SILENCE,3279.7385191605713,-8233.287421856812,6689.608894539941,11966.587539504473,-187500.02235174447,-187500.02235174447,-187500.02235174447,-187500.02235174447
$SILENCE,3416.0841603379445,-8244.82092199575,6901.592838954072,11917.078425535969,-187500.02235174447,-187500.02235174447,-187500.02235174447,-187500.02235174447
$SILENCE,3583.342264097007,-8190.930866114005,7401.13197578573,11861.91432022027,-187500.02235174447,-187500.02235174447,-187500.02235174447,-187500.02235174447
$SILENCE,3474.4222133662956,-8177.989206074382,7261.590035151248,11900.69459685023,-187500.02235174447,-187500.02235174447,-187500.02235174447,-187500.02235174447
$SILENCE,3287.1145948308226,-8222.424474051533,6749.1986452577885,11958.65267022284,-187500.02235174447,-187500.02235174447,-187500.02235174447,-187500.02235174447
$SILENCE,3371.090098749411,-8250.610023809675,6807.82727096406,11925.862661106905,-187500.02235174447,-187500.02235174447,-187500.02235174447,-187500.02235174447
$SILENCE,3580.771813484647,-8196.116470827636,7355.824989774823,11870.922073235759,-187500.02235174447,-187500.02235174447,-187500.02235174447,-187500.02235174447
$SILENCE,3519.796254610569,-8174.882313595094,7331.238070873985,11890.233980445146,-187500.02235174447,-187500.02235174447,-187500.02235174447,-187500.02235174447
$SILENCE,3312.617935254328,-8216.702427470975,6822.199442648822,11948.482626495676,-187500.02235174447,-187500.02235174447,-187500.02235174447,-187500.02235174447
$SILENCE,3334.835569242903,-8253.96278547797,6728.702095592273,11933.439902477254,-187500.02235174447,-187500.02235174447,-187500.02235174447,-187500.02235174447
$SILENCE,3564.835019688013,-8208.588744233697,7293.284808788873,11868.910416234781,-187500.02235174447,-187500.02235174447,-187500.02235174447,-187500.02235174447
$SILENCE,3541.969185110234,-8165.695746623964,7416.442920737615,11883.886085019838,-187500.02235174447,-187500.02235174447,-187500.02235174447,-187500.02235174447
$SILENCE,3327.973583695124,-8205.615962221142,6900.654065686949,11945.308678783022,-187500.02235174447,-187500.02235174447,-187500.02235174447,-187500.02235174447
$SILENCE,3315.903641689258,-8257.092029701715,6695.129775420401,11941.620640947896,-187500.02235174447,-187500.02235174447,-187500.02235174447,-187500.02235174447
$SILENCE,3529.0945803039767,-8223.810282207762,7174.127659097631,11877.314672149978,-187500.02235174447,-187500.02235174447,-187500.02235174447,-187500.02235174447
$SILENCE,3560.118801607943,-8171.954235071449,7425.741246431023,11873.000785470103,-187500.02235174447,-187500.02235174447,-187500.02235174447,-187500.02235174447
$SILENCE,3345.966737981646,-8195.021235349326,6989.47989815234,11936.770312401095,-187500.02235174447,-187500.02235174447,-187500.02235174447,-187500.02235174447
$SILENCE,3255.6656903822054,-8248.397201108599,6645.687716685262,11952.997678875647,-187500.02235174447,-187500.02235174447,-187500.02235174447,-187500.02235174447
$SILENCE,3467.6272830518824,-8229.286459599312,7088.609884811626,11888.669358333274,-187500.02235174447,-187500.02235174447,-187500.02235174447,-187500.02235174447
$SILENCE,3557.7942201845913,-8174.256464750346,7433.206729079096,11871.39145986932,-187500.02235174447,-187500.02235174447,-187500.02235174447,-187500.02235174447
$SILENCE,3388.6585698912827,-8185.968778844926,7105.284286175285,11921.079387793468,-187500.02235174447,-187500.02235174447,-187500.02235174447,-187500.02235174447
$SILENCE,3243.1934169761444,-8240.328221360234,6665.871341928404,11958.585614989473,-187500.02235174447,-187500.02235174447,-187500.02235174447,-187500.02235174447
$SILENCE,3431.842140178936,-8241.848139983194,6984.271941694253,11898.92880903826,-187500.02235174447,-187500.02235174447,-187500.02235174447,-187500.02235174447
$SILENCE,3568.679519734326,-8181.833706120695,7427.283516798439,11866.407020855788,-187500.02235174447,-187500.02235174447,-187500.02235174447,-187500.02235174447
$SILENCE,3423.147311585821,-8179.196200274969,7199.049854165299,11907.288361464545,-187500.02235174447,-187500.02235174447,-187500.02235174447,-187500.02235174447
$SILENCE,3256.3809462047752,-8234.986154435415,6702.103519690457,11952.260071308621,-187500.02235174447,-187500.02235174447,-187500.02235174447,-187500.02235174447
$SILENCE,3406.830538133447,-8255.236834911924,6880.761013121726,11904.852021318917,-187500.02235174447,-187500.02235174447,-187500.02235174447,-187500.02235174447
$SILENCE,3589.4219385888505,-8196.585857461198,7396.102833283286,11856.549901550998,-187500.02235174447,-187500.02235174447,-187500.02235174447,-187500.02235174447
não,3478.0655477125106,-8179.486772952888,7277.415070225606,11890.524553123065,-187500.02235174447,-187500.02235174447,-187500.02235174447,-187500.02235174447
não,3270.9319318451803,-8225.687828742008,6761.894436108403,11945.88982413886,-187500.02235174447,-187500.02235174447,-187500.02235174447,-187500.02235174447
não,3344.4468193586854,-8254.074544200248,6792.2034015898,11916.810204602505,-187500.02235174447,-187500.02235174447,-187500.02235174447,-187500.02235174447
não,3565.6396824884037,-8200.497412740877,7349.11946643823,11858.829779485439,-187500.02235174447,-187500.02235174447,-187500.02235174447,-187500.02235174447
não,3510.2297079836976,-8178.14566828557,7353.634518818202,11878.029927972548,-187500.02235174447,-187500.02235174447,-187500.02235174447,-187500.02235174447
não,3308.862842185836,-8221.776273462328,6852.508408130218,11937.016181590103,-187500.02235174447,-187500.02235174447,-187500.02235174447,-187500.02235174447
não,3322.8550342148587,-8264.848085027705,6727.159825224856,11925.773254129082,-187500.02235174447,-187500.02235174447,-187500.02235174447,-187500.02235174447
não,3552.698022448781,-8220.859851939662,7276.900980103133,11858.561558551975,-187500.02235174447,-187500.02235174447,-187500.02235174447,-187500.02235174447
não,3548.764115424647,-8180.0902700531815,7411.972571846554,11866.87640748935,-187500.02235174447,-187500.02235174447,-187500.02235174447,-187500.02235174447
não,3343.0833629469116,-8211.561526246252,6954.499418079784,11926.779082629571,-187500.02235174447,-187500.02235174447,-187500.02235174447,-187500.02235174447
não,3291.3837780217864,-8262.92583500455,6689.98887419568,11931.07061756499,-187500.02235174447,-187500.02235174447,-187500.02235174447,-187500.02235174447
não,3519.639792399382,-8232.795683478795,7189.706824982981,11861.511988820075,-187500.02235174447,-187500.02235174447,-187500.02235174447,-187500.02235174447
não,3570.4229558018396,-8184.650025922064,7445.343726318327,11853.174788138245,-187500.02235174447,-187500.02235174447,-187500.02235174447,-187500.02235174447
não,3379.5614098979727,-8205.81712792124,7054.724640217381,11908.40594868731,-187500.02235174447,-187500.02235174447,-187500.02235174447,-187500.02235174447
não,3283.583019206884,-8258.544893091308,6701.65648480135,11928.209594274711,-187500.02235174447,-187500.02235174447,-187500.02235174447,-187500.02235174447
não,3482.35708264793,-8248.128980175135,7073.745974748847,11870.765611024573,-187500.02235174447,-187500.02235174447,-187500.02235174447,-187500.02235174447
não,3590.6289327894374,-8192.271970781323,7442.61681349478,11848.637384013819,-187500.02235174447,-187500.02235174447,-187500.02235174447,-187500.02235174447
não,3426.030686620556,-8200.273895296323,7139.884786592101,11896.626579359363,-187500.02235174447,-187500.02235174447,-187500.02235174447,-187500.02235174447
não,3281.526658716996,-8259.751887291895,6682.992778181169,11929.662457664306,-187500.02235174447,-187500.02235174447,-187500.02235174447,-187500.02235174447
não,3454.7526782456257,-8260.556550092286,6976.202961945887,11879.907474506794,-187500.02235174447,-187500.02235174447,-187500.02235174447,-187500.02235174447
não,3591.5230025676497,-8200.296247040778,7434.480778513048,11840.031962398525,-187500.02235174447,-187500.02235174447,-187500.02235174447,-187500.02235174447
não,3454.417402078796,-8197.301113283767,7226.631906823148,11873.44782035921,-187500.02235174447,-187500.02235174447,-187500.02235174447,-187500.02235174447
não,3276.4304609811857,-8251.973480221448,6722.242441444689,11918.933620325759,-187500.02235174447,-187500.02235174447,-187500.02235174447,-187500.02235174447
não,3410.473872479662,-8270.078393230247,6874.681338629883,11883.595512341919,-187500.02235174447,-187500.02235174447,-187500.02235174447,-187500.02235174447
não,3600.8213282610573,-8208.879316911616,7407.0328363219305,11839.339058320411,-187500.02235174447,-187500.02235174447,-187500.02235174447,-187500.02235174447
não,3510.699094617259,-8191.66847368103,7314.094282876764,11869.089230190424,-187500.02235174447,-187500.02235174447,-187500.02235174447,-187500.02235174447
não,3311.7238654761154,-8243.904500473083,6794.036244635135,11923.672190150284,-187500.02235174447,-187500.02235174447,-187500.02235174447,-187500.02235174447
não,3367.491467892107,-8277.342710178222,6785.050843364102,11897.319483437477,-187500.02235174447,-187500.02235174447,-187500.02235174447,-187500.02235174447
não,3582.895229207901,-8224.77140721934,7343.64328904668,11835.516910018554,-187500.02235174447,-187500.02235174447,-187500.02235174447,-187500.02235174447
não,3537.342374007985,-8194.462441737944,7377.372071429739,11850.470227059153,-187500.02235174447,-187500.02235174447,-187500.02235174447,-187500.02235174447
não,3330.99106919659,-8231.834558467217,6882.191524766866,11914.329160967965,-187500.02235174447,-187500.02235174447,-187500.02235174447,-187500.02235174447
não,3328.8229499844256,-8276.940378778027,6724.47761589022,11906.573105641975,-187500.02235174447,-187500.02235174447,-187500.02235174447,-187500.02235174447
não,3558.08479286251,-8235.567299791253,7269.301386988329,11838.668505986752,-187500.02235174447,-187500.02235174447,-187500.02235174447,-187500.02235174447
não,3551.088696847999,-8194.350683015668,7429.764560432978,11844.502311289587,-187500.02235174447,-187500.02235174447,-187500.02235174447,-187500.02235174447
não,3354.2815869190204,-8234.919099202049,6975.577113101139,11900.046396261025,-187500.02235174447,-187500.02235174447,-187500.02235174447,-187500.02235174447
não,3318.0494091569676,-8300.074434289269,6672.286292587077,11897.006559015103,-187500.02235174447,-187500.02235174447,-187500.02235174447,-187500.02235174447
não,3560.0517463745773,-8259.327204147245,7170.506676495872,11844.502311289587,-187500.02235174447,-187500.02235174447,-187500.02235174447,-187500.02235174447
não,3611.214889432775,-8199.782156918307,7456.676060757168,11842.356543821877,-187500.02235174447,-187500.02235174447,-187500.02235174447,-187500.02235174447
não,3417.157044071799,-8218.24469783839,7073.187181137465,11883.170829197268,-187500.02235174447,-187500.02235174447,-187500.02235174447,-187500.02235174447
não,3290.8249844104034,-8277.454468900498,6679.483554301686,11904.40498642981,-187500.02235174447,-187500.02235174447,-187500.02235174447,-187500.02235174447
não,3494.449376398251,-8266.21154143948,7080.943236463456,11852.593642782407,-187500.02235174447,-187500.02235174447,-187500.02235174447,-187500.02235174447
não,3601.2907148946188,-8212.746168702384,7456.385488079249,11817.76962492104,-187500.02235174447,-187500.02235174447,-187500.02235174447,-187500.02235174447
não,3434.8819774248577,-8226.425436309033,7157.6767751785255,11854.270023616557,-187500.02235174447,-187500.02235174447,-187500.02235174447,-187500.02235174447
não,3292.255496055543,-8277.901503789604,6714.687551818794,11890.613960100885,-187500.02235174447,-187500.02235174447,-187500.02235174447,-187500.02235174447
não,3450.438791565751,-8280.136678235136,6953.940624468401,11843.809407211473,-187500.02235174447,-187500.02235174447,-187500.02235174447,-187500.02235174447
não,3615.640534834926,-8224.860814197162,7437.922947159165,11807.107842815858,-187500.02235174447,-187500.02235174447,-187500.02235174447,-187500.02235174447
não,3488.7273298176924,-8225.352552575177,7248.424857667072,11855.879349217337,-187500.02235174447,-187500.02235174447,-187500.02235174447,-187500.02235174447
não,3313.1320253768,-8278.34853867871,6737.62044162994,11901.342797439433,-187500.02235174447,-187500.02235174447,-187500.02235174447,-187500.02235174447
não,3405.0871020659333,-8290.709053362496,6855.302376187132,11863.25542488759,-187500.02235174447,-187500.02235174447,-187500.02235174447,-187500.02235174447
não,3594.6298950469372,-8225.86664269765,7399.030911806931,11814.282752786012,-187500.02235174447,-187500.02235174447,-187500.02235174447,-187500.02235174447
não,3525.31713549103,-8214.266087325346,7334.523777308915,11836.165110607757,-187500.02235174447,-187500.02235174447,-187500.02235174447,-187500.02235174447
não,3311.835624198392,-8277.610931111685,6808.140195386433,11886.635349587841,-187500.02235174447,-187500.02235174447,-187500.02235174447,-187500.02235174447
não,3365.859790546869,-8302.242553501434,6765.090735565512,11860.416753341766,-187500.02235174447,-187500.02235174447,-187500.02235174447,-187500.02235174447
não,3586.9408949543117,-8249.447733097999,7327.773550483412,11791.439269952687,-187500.02235174447,-187500.02235174447,-187500.02235174447,-187500.02235174447
não,3551.960414881756,-8223.922040930038,7371.739431827001,11801.89988635777,-187500.02235174447,-187500.02235174447,-187500.02235174447,-187500.02235174447
não,3390.8490408479024,-8256.77910527934,6901.145804064966,11878.700480306206,-187500.02235174447,-187500.02235174447,-187500.02235174447,-187500.02235174447
não,3379.829630831436,-8314.73717865195,6726.623383357929,11854.96292769467,-187500.02235174447,-187500.02235174447,-187500.02235174447,-187500.02235174447
não,3584.8398309755125,-8280.82958231325,7252.939910047044,11773.177894732702,-187500.02235174447,-187500.02235174447,-187500.02235174447,-187500.02235174447
não,3570.4229558018396,-8235.589651535709,7430.345705788816,11774.541351144475,-187500.02235174447,-187500.02235174447,-187500.02235174447,-187500.02235174447
não,3390.4914129366175,-8262.009413481881,7004.924953570957,11847.139817135314,-187500.02235174447,-187500.02235174447,-187500.02235174447,-187500.02235174447
não,3310.9862579090905,-8321.800329899828,6696.761452765639,11890.099869978414,-187500.02235174447,-187500.02235174447,-187500.02235174447,-187500.02235174447
não,3522.344353478474,-8312.859632117705,7122.2269084724085,11789.673482140719,-187500.02235174447,-187500.02235174447,-187500.02235174447,-187500.02235174447
não,3584.012816430666,-8262.478800115443,7429.1610633326845,11750.624984577296,-187500.02235174447,-187500.02235174447,-187500.02235174447,-187500.02235174447
não,3448.3600793314076,-8255.080372700737,7126.965478296934,11810.304142272968,-187500.02235174447,-187500.02235174447,-187500.02235174447,-187500.02235174447
não,3355.399174141786,-8312.211431528502,6744.460075433264,11854.895872461304,-187500.02235174447,-187500.02235174447,-187500.02235174447,-187500.02235174447
não,3560.498781263683,-8331.635097460163,7110.179318210998,11805.744386404085,-187500.02235174447,-187500.02235174447,-187500.02235174447,-187500.02235174447
não,3601.5142323391715,-8291.40195744061,7422.5896504628245,11710.235382346556,-187500.02235174447,-187500.02235174447,-187500.02235174447,-187500.02235174447
não,3425.7848174315477,-8265.54098910582,7110.849870544657,11759.2751096815,-187500.02235174447,-187500.02235174447,-187500.02235174447,-187500.02235174447
não,3326.677182516716,-8302.041387801337,6711.714769806239,11872.844323258916,-187500.02235174447,-187500.02235174447,-187500.02235174447,-187500.02235174447
não,3475.3833383778738,-8333.803216672328,6941.267185362242,11766.986461518582,-187500.02235174447,-187500.02235174447,-187500.02235174447,-187500.02235174447
não,3656.253654510219,-8296.162879009591,7418.678095183146,11748.479217109587,-187500.02235174447,-187500.02235174447,-187500.02235174447,-187500.02235174447
não,3566.019662144144,-8318.045236831336,7299.811518169823,11803.039825324991,-187500.02235174447,-187500.02235174447,-187500.02235174447,-187500.02235174447
não,3338.769476267037,-8348.689478479562,6815.672733267872,11840.993087410103,-187500.02235174447,-187500.02235174447,-187500.02235174447,-187500.02235174447
não,3444.1355996293546,-8373.008176446936,6869.719251360804,11785.13607801629,-187500.02235174447,-187500.02235174447,-187500.02235174447,-187500.02235174447
não,3689.624808981992,-8298.420405199577,7458.777124735967,11754.268318923512,-187500.02235174447,-187500.02235174447,-187500.02235174447,-187500.02235174447
não,3611.57251734406,-8267.038555984325,7377.953216785577,11753.307193911935,-187500.02235174447,-187500.02235174447,-187500.02235174447,-187500.02235174447
não,3407.38933174483,-8310.356236738711,6835.92341374438,11761.979670760593,-187500.02235174447,-187500.02235174447,-187500.02235174447,-187500.02235174447
não,3396.325218239453,-8368.850751978249,6754.272491249143,11715.845670204839,-187500.02235174447,-187500.02235174447,-187500.02235174447,-187500.02235174447
não,3647.894102083934,-8332.663277705107,7335.64136453168,11673.511466206488,-187500.02235174447,-187500.02235174447,-187500.02235174447,-187500.02235174447
não,3633.0972472545204,-8319.78867289885,7454.843217711833,11711.710597480607,-187500.02235174447,-187500.02235174447,-187500.02235174447,-187500.02235174447
não,3424.063733108489,-8341.581623742775,6965.451772862884,11787.393604206278,-187500.02235174447,-187500.02235174447,-187500.02235174447,-187500.02235174447
não,3346.838456015403,-8427.166453262145,6673.135658876379,11716.3150568384,-187500.02235174447,-187500.02235174447,-187500.02235174447,-187500.02235174447
não,3604.732883540736,-8369.834228734282,7223.569717832771,11688.621245458275,-187500.02235174447,-187500.02235174447,-187500.02235174447,-187500.02235174447
não,3698.051416641643,-8307.3611029817,7489.376662895283,11730.731932012073,-187500.02235174447,-187500.02235174447,-187500.02235174447,-187500.02235174447
não,3515.1023882749546,-8353.696269237551,7077.456364328428,11780.464563425132,-187500.02235174447,-187500.02235174447,-187500.02235174447,-187500.02235174447
não,3415.8159394044806,-8412.391950177187,6748.014002801658,11805.744386404085,-187500.02235174447,-187500.02235174447,-187500.02235174447,-187500.02235174447
não,3628.984526274744,-8391.984807489493,7199.362778587673,11745.193510674657,-187500.02235174447,-187500.02235174447,-187500.02235174447,-187500.02235174447
não,3718.145634906964,-8327.097693335736,7541.657393176245,11691.638730959741,-187500.02235174447,-187500.02235174447,-187500.02235174447,-187500.02235174447
não,3580.8165169735576,-8286.484573660442,7211.119796171164,11813.455738241166,-187500.02235174447,-187500.02235174447,-187500.02235174447,-187500.02235174447
não,3348.7607060385594,-8454.524988475441,6618.9997338056255,11731.17896690118,-187500.02235174447,-187500.02235174447,-187500.02235174447,-187500.02235174447
não,3578.827211717035,-8463.733907191028,6992.0503487647,11723.042931919448,-187500.02235174447,-187500.02235174447,-187500.02235174447,-187500.02235174447
não,3748.9463387663773,-8365.118010654212,7495.411633898215,11734.4199698472,-187500.02235174447,-187500.02235174447,-187500.02235174447,-187500.02235174447
não,3644.630747393459,-8352.153998870135,7295.475279745493,11808.158374805258,-187500.02235174447,-187500.02235174447,-187500.02235174447,-187500.02235174447
não,3465.056832439522,-8390.867220266726,6802.395797061419,11867.993994712115,-187500.02235174447,-187500.02235174447,-187500.02235174447,-187500.02235174447
não,3599.927258482845,-8433.313182987355,6966.278787407731,11785.650168138764,-187500.02235174447,-187500.02235174447,-187500.02235174447,-187500.02235174447
não,3753.8413708020894,-8377.187952660079,7488.460241372614,11769.668670853218,-187500.02235174447,-187500.02235174447,-187500.02235174447,-187500.02235174447
não,3651.537436430149,-8353.450400048543,7383.943484299599,11831.426540783232,-187500.02235174447,-187500.02235174447,-187500.02235174447,-187500.02235174447
não,3513.4260074408066,-8399.964380260037,6903.358626766041,11897.543000882031,-187500.02235174447,-187500.02235174447,-187500.02235174447,-187500.02235174447
não,3583.56578154156,-8426.630011395218,6960.914368738458,11876.308843649489,-187500.02235174447,-187500.02235174447,-187500.02235174447,-187500.02235174447
não,3767.7441558532905,-8351.885777936672,7483.274636658984,11795.730804888106,-187500.02235174447,-187500.02235174447,-187500.02235174447,-187500.02235174447
não,3749.527484122215,-8335.837225417761,7466.3767178507715,11817.613162709853,-187500.02235174447,-187500.02235174447,-187500.02235174447,-187500.02235174447
não,3516.510548175639,-8408.927429786614,6929.2866503341975,11857.01928818456,-187500.02235174447,-187500.02235174447,-187500.02235174447,-187500.02235174447
não,3540.382211253907,-8440.53279644642,6842.785399292159,11867.502256334097,-187500.02235174447,-187500.02235174447,-187500.02235174447,-187500.02235174447
não,3806.144452827508,-8382.395909118166,7426.903537142699,11849.732619492128,-187500.02235174447,-187500.02235174447,-187500.02235174447,-187500.02235174447
não,3761.195094727885,-8344.017963888404,7527.754608125045,11839.942555420705,-187500.02235174447,-187500.02235174447,-187500.02235174447,-187500.02235174447
não,3560.4317260303173,-8382.775888773906,7064.626463011082,11908.540059154042,-187500.02235174447,-187500.02235174447,-187500.02235174447,-187500.02235174447
não,3549.144095080387,-8430.183938763612,6814.018704178179,11899.129974738356,-187500.02235174447,-187500.02235174447,-187500.02235174447,-187500.02235174447
não,3779.076490292131,-8407.027531507914,7328.73467549499,11838.623802497841,-187500.02235174447,-187500.02235174447,-187500.02235174447,-187500.02235174447
não,3824.986973403332,-8348.667126735107,7583.075175651929,11825.615087224853,-187500.02235174447,-187500.02235174447,-187500.02235174447,-187500.02235174447
não,3646.083610783054,-8370.929464212593,7185.236476091919,11883.774326297562,-187500.02235174447,-187500.02235174447,-187500.02235174447,-187500.02235174447
não,3493.3094374310303,-8434.989563821502,6800.093567382523,11928.209594274711,-187500.02235174447,-187500.02235174447,-187500.02235174447,-187500.02235174447
não,3691.1894310938637,-8419.879784569715,7209.376360103651,11866.54113132252,-187500.02235174447,-187500.02235174447,-187500.02235174447,-187500.02235174447
não,3803.6187057040584,-8352.958661670526,7554.867274149332,11844.368200822855,-187500.02235174447,-187500.02235174447,-187500.02235174447,-187500.02235174447
não,3588.7737379996465,-8364.849789720749,7232.644526081625,11884.891913520327,-187500.02235174447,-187500.02235174447,-187500.02235174447,-187500.02235174447
não,3426.5671284874834,-8420.48328167001,6791.689311467328,11926.332047740467,-187500.02235174447,-187500.02235174447,-187500.02235174447,-187500.02235174447
não,3604.151738184898,-8410.983790276503,7101.6186000846155,11899.26408520509,-187500.02235174447,-187500.02235174447,-187500.02235174447,-187500.02235174447
não,3702.186489365875,-8350.164693613613,7513.047160273452,11854.337078849921,-187500.02235174447,-187500.02235174447,-187500.02235174447,-187500.02235174447
não,3562.9127696648566,-8341.469865020497,7289.529715720381,11899.577009627463,-187500.02235174447,-187500.02235174447,-187500.02235174447,-187500.02235174447
não,3370.7548225825817,-8393.594133090273,6803.781605217649,11941.821806647993,-187500.02235174447,-187500.02235174447,-187500.02235174447,-187500.02235174447
não,3494.672893842804,-8422.249069481977,6973.14077295551,11876.621768071864,-187500.02235174447,-187500.02235174447,-187500.02235174447,-187500.02235174447
não,3659.0029190782216,-8364.827437976293,7474.490401088047,11807.711339916152,-187500.02235174447,-187500.02235174447,-187500.02235174447,-187500.02235174447
não,3550.5969584699824,-8351.528150025386,7353.478056607015,11849.732619492128,-187500.02235174447,-187500.02235174447,-187500.02235174447,-187500.02235174447
não,3356.4720578756405,-8393.460022623542,6842.338364403054,11906.506050408609,-187500.02235174447,-187500.02235174447,-187500.02235174447,-187500.02235174447
não,3410.9209073687684,-8412.861336810749,6850.87673078498,11870.676204046751,-187500.02235174447,-187500.02235174447,-187500.02235174447,-187500.02235174447
não,3601.469528850261,-8355.84203670526,7388.994978546498,11802.123403802325,-187500.02235174447,-187500.02235174447,-187500.02235174447,-187500.02235174447
não,3530.547443693572,-8324.147263067634,7398.22624900654,11833.594659995397,-187500.02235174447,-187500.02235174447,-187500.02235174447,-187500.02235174447
não,3308.2816968299985,-8361.251158863444,6898.553001708151,11892.647968846319,-187500.02235174447,-187500.02235174447,-187500.02235174447,-187500.02235174447
não,3300.4362345261857,-8406.066406496335,6760.665090163361,11875.504180849097,-187500.02235174447,-187500.02235174447,-187500.02235174447,-187500.02235174447
não,3541.5892054544934,-8367.353185099744,7306.628800228692,11816.048540597982,-187500.02235174447,-187500.02235174447,-187500.02235174447,-187500.02235174447
não,3539.6893071757922,-8320.414521743598,7449.52350253147,11842.155378121779,-187500.02235174447,-187500.02235174447,-187500.02235174447,-187500.02235174447
não,3310.829795697903,-8352.109295381224,6985.970674272857,11898.347663682422,-187500.02235174447,-187500.02235174447,-187500.02235174447,-187500.02235174447
não,3262.304158485432,-8391.51542085593,6722.264793189143,11907.154250997812,-187500.02235174447,-187500.02235174447,-187500.02235174447,-187500.02235174447
não,3482.424137881296,-8374.438688092076,7202.804947233791,11823.826947668427,-187500.02235174447,-187500.02235174447,-187500.02235174447,-187500.02235174447
não,3522.1655395228318,-8309.708036149506,7471.227046397573,11832.141796605802,-187500.02235174447,-187500.02235174447,-187500.02235174447,-187500.02235174447
não,3368.1396684813108,-8302.153146523613,7116.348399680663,11924.78977737305,-187500.02235174447,-187500.02235174447,-187500.02235174447,-187500.02235174447
não,3271.2672080120096,-8357.406658817132,6743.677764377328,11955.41166727682,-187500.02235174447,-187500.02235174447,-187500.02235174447,-187500.02235174447
não,3465.3250533729856,-8342.676859221085,7140.778856370313,11876.085326204935,-187500.02235174447,-187500.02235174447,-187500.02235174447,-187500.02235174447
não,3549.3676125249403,-8292.474841174466,7467.583712051358,11862.87544523185,-187500.02235174447,-187500.02235174447,-187500.02235174447,-187500.02235174447
não,3367.580874869928,-8290.865515573683,7167.265673549852,11920.185318015256,-187500.02235174447,-187500.02235174447,-187500.02235174447,-187500.02235174447
não,3224.485006867052,-8334.227899816979,6721.5495373665735,11946.828597405982,-187500.02235174447,-187500.02235174447,-187500.02235174447,-187500.02235174447
não,3397.733378140137,-8336.798350429339,7013.955058330901,11902.616846873385,-187500.02235174447,-187500.02235174447,-187500.02235174447,-187500.02235174447
não,3538.6834786753034,-8283.936474792537,7461.369927092783,11860.662622530774,-187500.02235174447,-187500.02235174447,-187500.02235174447,-187500.02235174447
não,3414.8101109039917,-8277.63328285614,7262.931139818566,11895.508992136598,-187500.02235174447,-187500.02235174447,-187500.02235174447,-187500.02235174447
não,3236.8902250397477,-8330.606917215218,6770.253988534688,11944.347553771444,-187500.02235174447,-187500.02235174447,-187500.02235174447,-187500.02235174447
