WORD,Channel_1,Channel_2,Channel_3,Channel_4,Channel_5,Channel_6,Channel_7,Channel_8
talvez,3702.946448677355,-8105.390740083545,7001.52748841375,11934.445730977743,-187500.02235174447,-187500.02235174447,-187500.02235174447,-187500.02235174447
talvez,3793.202792787885,-8051.858312113084,7359.334213654306,11909.009445787602,-187500.02235174447,-187500.02235174447,-187500.02235174447,-187500.02235174447
talvez,3603.7494067847024,-8066.543408220221,6967.508133352773,11964.08414412548,-187500.02235174447,-187500.02235174447,-187500.02235174447,-187500.02235174447
talvez,3484.8381262824687,-8126.021400215794,6530.375067040332,11994.817792751526,-187500.02235174447,-187500.02235174447,-187500.02235174447,-187500.02235174447
talvez,3666.602512193026,-8114.778472754774,6896.474289473807,11936.256222278622,-187500.02235174447,-187500.02235174447,-187500.02235174447,-187500.02235174447
talvez,3791.6158189315584,-8052.819437124663,7338.278870377407,11914.664437134796,-187500.02235174447,-187500.02235174447,-187500.02235174447,-187500.02235174447
talvez,3652.1856370193527,-8058.228559282847,7078.663358529015,11955.03168762108,-187500.02235174447,-187500.02235174447,-187500.02235174447,-187500.02235174447
talvez,3488.347350161952,-8114.309086121212,6573.1563059277905,11993.364929361931,-187500.02235174447,-187500.02235174447,-187500.02235174447,-187500.02235174447
talvez,3626.7493518292135,-8122.981562969871,6790.884648666936,11953.064734109013,-187500.02235174447,-187500.02235174447,-187500.02235174447,-187500.02235174447
talvez,3792.822813132145,-8062.184818051436,7313.44608228756,11910.350550454921,-187500.02235174447,-187500.02235174447,-187500.02235174447,-187500.02235174447
talvez,3685.2215153242964,-8050.114876045571,7172.4736300079385,11944.280498538077,-187500.02235174447,-187500.02235174447,-187500.02235174447,-187500.02235174447
talvez,3490.448414140751,-8099.065196402693,6638.98219334867,11994.37075786242,-187500.02235174447,-187500.02235174447,-187500.02235174447,-187500.02235174447
talvez,3579.386005328418,-8128.345981639145,6695.822679498516,11967.056926138035,-187500.02235174447,-187500.02235174447,-187500.02235174447,-187500.02235174447
talvez,3785.7820136287232,-8076.534637991744,7259.377212450173,11911.378730699866,-187500.02235174447,-187500.02235174447,-187500.02235174447,-187500.02235174447
talvez,3722.5712803091146,-8051.053649312694,7244.066267498287,11934.17751004428,-187500.02235174447,-187500.02235174447,-187500.02235174447,-187500.02235174447
talvez,3521.9420220782786,-8090.12449862057,6724.611726356951,11993.588446806485,-187500.02235174447,-187500.02235174447,-187500.02235174447,-187500.02235174447
talvez,3541.36568800994,-8129.843548517651,6619.73734137265,11979.998586177659,-187500.02235174447,-187500.02235174447,-187500.02235174447,-187500.02235174447
talvez,3766.626568630525,-8086.83879218564,7185.124717369643,11912.988056300648,-187500.02235174447,-187500.02235174447,-187500.02235174447,-187500.02235174447
talvez,3751.8967690344775,-8050.226634767847,7293.351864022239,11918.799509859027,-187500.02235174447,-187500.02235174447,-187500.02235174447,-187500.02235174447
talvez,3544.4949322336834,-8079.462716515389,6810.710645998794,11984.75950774664,-187500.02235174447,-187500.02235174447,-187500.02235174447,-187500.02235174447
talvez,3505.3346759479855,-8127.116635694103,6564.573236056953,11990.436850838287,-187500.02235174447,-187500.02235174447,-187500.02235174447,-187500.02235174447
talvez,3734.238890914785,-8096.874725446073,7090.398024368051,11919.3135999815,-187500.02235174447,-187500.02235174447,-187500.02235174447,-187500.02235174447
talvez,3768.593522142592,-8050.561910934676,7331.4839400629935,11914.2621057346,-187500.02235174447,-187500.02235174447,-187500.02235174447,-187500.02235174447
talvez,3584.1469268973983,-8072.757193178796,6917.820205428625,11973.628339007895,-187500.02235174447,-187500.02235174447,-187500.02235174447,-187500.02235174447
talvez,3486.7603763056254,-8124.054446703726,6546.557730025975,11999.601066064963,-187500.02235174447,-187500.02235174447,-187500.02235174447,-187500.02235174447
talvez,3698.4090445529278,-8107.089472662148,6987.289427195719,11931.495300709641,-187500.02235174447,-187500.02235174447,-187500.02235174447,-187500.02235174447
talvez,3789.3135892526616,-8052.350050491101,7346.8619402482445,11912.049283033524,-187500.02235174447,-187500.02235174447,-187500.02235174447,-187500.02235174447
talvez,3625.2070814617973,-8061.916597117973,7018.581869433149,11963.74886795865,-187500.02235174447,-187500.02235174447,-187500.02235174447,-187500.02235174447
talvez,3480.479536113684,-8116.410150100011,6556.481904564132,11997.835278252993,-187500.02235174447,-187500.02235174447,-187500.02235174447,-187500.02235174447
talvez,3652.431506208361,-8119.181766412469,6876.380071208486,11940.592460702952,-187500.02235174447,-187500.02235174447,-187500.02235174447,-187500.02235174447
talvez,3801.9646766143655,-8059.122629061059,7367.514952124948,11904.382634685355,-187500.02235174447,-187500.02235174447,-187500.02235174447,-187500.02235174447
talvez,3653.4820381977606,-8053.445285969411,7115.610792113637,11953.958803887226,-187500.02235174447,-187500.02235174447,-187500.02235174447,-187500.02235174447
talvez,3483.8099460375247,-8112.543298309243,6595.508050383098,11997.052967197058,-187500.02235174447,-187500.02235174447,-187500.02235174447,-187500.02235174447
talvez,3609.6055638319926,-8130.871728762595,6756.842941861504,11951.65657420833,-187500.02235174447,-187500.02235174447,-187500.02235174447,-187500.02235174447
talvez,3797.4049207454827,-8074.746498435319,7289.485012231471,11902.706253851207,-187500.02235174447,-187500.02235174447,-187500.02235174447,-187500.02235174447
talvez,3711.238945870274,-8057.401544738001,7187.985740659922,11935.071579822492,-187500.02235174447,-187500.02235174447,-187500.02235174447,-187500.02235174447
talvez,3524.2889552460856,-8104.407263327511,6658.875245913893,11990.570961305018,-187500.02235174447,-187500.02235174447,-187500.02235174447,-187500.02235174447
talvez,3589.4219385888505,-8138.6501358330415,6672.2415890981665,11962.184245846778,-187500.02235174447,-187500.02235174447,-187500.02235174447,-187500.02235174447
talvez,3797.4719759788486,-8085.855315429607,7242.725162830969,11902.92977129576,-187500.02235174447,-187500.02235174447,-187500.02235174447,-187500.02235174447
talvez,3747.851103288067,-8054.004079580794,7259.19839849453,11925.2144605177,-187500.02235174447,-187500.02235174447,-187500.02235174447,-187500.02235174447
talvez,3541.924481621323,-8089.655111987008,6743.878930077426,11988.067565926023,-187500.02235174447,-187500.02235174447,-187500.02235174447,-187500.02235174447
talvez,3544.629042700415,-8133.620993330597,6601.386559174844,11979.998586177659,-187500.02235174447,-187500.02235174447,-187500.02235174447,-187500.02235174447
talvez,3761.5750743836256,-8093.767832966785,7159.777839157324,11910.194088243734,-187500.02235174447,-187500.02235174447,-187500.02235174447,-187500.02235174447
talvez,3760.0328040162094,-8052.886492358029,7304.505384505437,11918.35247496992,-187500.02235174447,-187500.02235174447,-187500.02235174447,-187500.02235174447
talvez,3560.9458161527896,-8080.893228160528,6837.756256789716,11979.059812910535,-187500.02235174447,-187500.02235174447,-187500.02235174447,-187500.02235174447
talvez,3498.897373544857,-8130.357638640123,6555.073744663447,11988.089917670479,-187500.02235174447,-187500.02235174447,-187500.02235174447,-187500.02235174447
talvez,3714.882280216489,-8101.590943526143,7060.871369942591,11918.64304764784,-187500.02235174447,-187500.02235174447,-187500.02235174447,-187500.02235174447
talvez,3772.0803942776197,-8052.97589933585,7331.506291807448,11909.277666721067,-187500.02235174447,-187500.02235174447,-187500.02235174447,-187500.02235174447
talvez,3598.027360204144,-8069.672652443965,6940.663688261949,11968.88976918337,-187500.02235174447,-187500.02235174447,-187500.02235174447,-187500.02235174447
talvez,3493.734120575681,-8126.446083360444,6545.44014280321,11992.672025283817,-187500.02235174447,-187500.02235174447,-187500.02235174447,-187500.02235174447
talvez,3688.7754426926904,-8117.08070243367,6954.0523831906785,11926.98024832967,-187500.02235174447,-187500.02235174447,-187500.02235174447,-187500.02235174447
talvez,3784.910295594966,-8061.603672695598,7337.0048209434535,11901.275742206066,-187500.02235174447,-187500.02235174447,-187500.02235174447,-187500.02235174447
talvez,3629.588023375037,-8065.828152397651,7033.624593451571,11954.852873665437,-187500.02235174447,-187500.02235174447,-187500.02235174447,-187500.02235174447
talvez,3482.0441582255553,-8119.449987345933,6561.958081955681,11997.052967197058,-187500.02235174447,-187500.02235174447,-187500.02235174447,-187500.02235174447
talvez,3640.272157224674,-8125.4402548599555,6842.517178358696,11940.771274658595,-187500.02235174447,-187500.02235174447,-187500.02235174447,-187500.02235174447
talvez,3785.983179328821,-8067.236312298336,7317.06706488932,11899.062919504991,-187500.02235174447,-187500.02235174447,-187500.02235174447,-187500.02235174447
talvez,3668.5471139606375,-8058.005041838293,7124.909117807045,11943.855815393426,-187500.02235174447,-187500.02235174447,-187500.02235174447,-187500.02235174447
talvez,3491.0295594965887,-8108.072949418181,6612.40596919131,11999.377548620409,-187500.02235174447,-187500.02235174447,-187500.02235174447,-187500.02235174447
talvez,3602.408302117384,-8133.4868828638655,6742.515473665652,11955.03168762108,-187500.02235174447,-187500.02235174447,-187500.02235174447,-187500.02235174447
talvez,3783.658597905469,-8078.300425803713,7278.4208987260945,11897.431242159753,-187500.02235174447,-187500.02235174447,-187500.02235174447,-187500.02235174447
talvez,3698.341989319562,-8055.367535992567,7199.966275687966,11931.137672798357,-187500.02235174447,-187500.02235174447,-187500.02235174447,-187500.02235174447
talvez,3511.5931643954714,-8100.920391192483,6677.293083345066,11989.833353737993,-187500.02235174447,-187500.02235174447,-187500.02235174447,-187500.02235174447
talvez,3562.0634033755546,-8138.761894555319,6648.369926019898,11965.760524959627,-187500.02235174447,-187500.02235174447,-187500.02235174447,-187500.02235174447
talvez,3765.2184087298406,-8091.957341665905,7211.835051993734,11896.827745059461,-187500.02235174447,-187500.02235174447,-187500.02235174447,-187500.02235174447
talvez,3727.1533879224526,-8057.155675548992,7259.690136872547,11914.21740224569,-187500.02235174447,-187500.02235174447,-187500.02235174447,-187500.02235174447
talvez,3537.342374007985,-8089.588056753642,6764.487238465219,11978.523371043608,-187500.02235174447,-187500.02235174447,-187500.02235174447,-187500.02235174447
talvez,3529.765132637636,-8136.996106743349,6583.438108377231,11978.143391387868,-187500.02235174447,-187500.02235174447,-187500.02235174447,-187500.02235174447
talvez,3744.1183619640306,-8104.675484260975,7123.83623407319,11907.042492275536,-187500.02235174447,-187500.02235174447,-187500.02235174447,-187500.02235174447
talvez,3751.114457978542,-8061.558969206688,7302.11374784872,11907.556582398009,-187500.02235174447,-187500.02235174447,-187500.02235174447,-187500.02235174447
talvez,3565.70673772177,-8083.106050861604,6865.472419914297,11970.36498431742,-187500.02235174447,-187500.02235174447,-187500.02235174447,-187500.02235174447
talvez,3498.9197252893123,-8134.492711364354,6549.932843438726,11983.105478656946,-187500.02235174447,-187500.02235174447,-187500.02235174447,-187500.02235174447
talvez,3709.2943441026623,-8115.672542532986,7017.15135778801,11907.69069286474,-187500.02235174447,-187500.02235174447,-187500.02235174447,-187500.02235174447
talvez,3770.8286965881225,-8064.889379130528,7320.777454468901,11893.653797346808,-187500.02235174447,-187500.02235174447,-187500.02235174447,-187500.02235174447
talvez,3604.732883540736,-8077.8980944035175,6962.300176894686,11954.741114943161,-187500.02235174447,-187500.02235174447,-187500.02235174447,-187500.02235174447
talvez,3484.771071049103,-8131.765798540807,6543.316727079956,11987.441717081276,-187500.02235174447,-187500.02235174447,-187500.02235174447,-187500.02235174447
talvez,3671.7434134177465,-8128.100112450137,6913.2604495597425,11920.364131970899,-187500.02235174447,-187500.02235174447,-187500.02235174447,-187500.02235174447
talvez,3788.46422296336,-8072.5560274786985,7324.778416726401,11892.916189779782,-187500.02235174447,-187500.02235174447,-187500.02235174447,-187500.02235174447
talvez,3639.2216252352746,-8071.55019897821,7054.434067539462,11942.492358981654,-187500.02235174447,-187500.02235174447,-187500.02235174447,-187500.02235174447
talvez,3477.0150157231114,-8122.914507736506,6567.747183769606,11988.581656048496,-187500.02235174447,-187500.02235174447,-187500.02235174447,-187500.02235174447
talvez,3616.1322732129424,-8138.225452688391,6802.574611017062,11932.74699839914,-187500.02235174447,-187500.02235174447,-187500.02235174447,-187500.02235174447
talvez,3776.3048739796727,-8082.390795039034,7300.459718759027,11888.378785655355,-187500.02235174447,-187500.02235174447,-187500.02235174447,-187500.02235174447
talvez,3668.1000790715316,-8067.728050676353,7145.450370961473,11930.310658253511,-187500.02235174447,-187500.02235174447,-187500.02235174447,-187500.02235174447
talvez,3481.2394954251645,-8111.1798418974695,6628.610983921407,11988.268731626122,-187500.02235174447,-187500.02235174447,-187500.02235174447,-187500.02235174447
talvez,3570.1323831239206,-8139.4100951445225,6705.255115658655,11949.622565462896,-187500.02235174447,-187500.02235174447,-187500.02235174447,-187500.02235174447
talvez,3763.1620482399526,-8090.012739898293,7253.096372258231,11893.676149091263,-187500.02235174447,-187500.02235174447,-187500.02235174447,-187500.02235174447
talvez,3694.8104136956235,-8068.063326843182,7216.461863095983,11920.699408137729,-187500.02235174447,-187500.02235174447,-187500.02235174447,-187500.02235174447
talvez,3511.3025917175523,-8106.396568584034,6696.269714387622,11981.742022245173,-187500.02235174447,-187500.02235174447,-187500.02235174447,-187500.02235174447
talvez,3547.735935179703,-8146.070914992204,6609.2096697342,11954.495245754153,-187500.02235174447,-187500.02235174447,-187500.02235174447,-187500.02235174447
talvez,3761.396260427983,-8104.809594727707,7167.869170650145,11887.194143199224,-187500.02235174447,-187500.02235174447,-187500.02235174447,-187500.02235174447
talvez,3736.6752310604134,-8069.583245466143,7264.674575886081,11909.657646376807,-187500.02235174447,-187500.02235174447,-187500.02235174447,-187500.02235174447
talvez,3540.091638575988,-8098.4393475579445,6786.280189309143,11974.231836108189,-187500.02235174447,-187500.02235174447,-187500.02235174447,-187500.02235174447
talvez,3513.2248417407086,-8147.881406293083,6571.859904749383,11976.42230706481,-187500.02235174447,-187500.02235174447,-187500.02235174447,-187500.02235174447
talvez,3732.6966205473686,-8114.532603565765,7106.31246642023,11907.087195764447,-187500.02235174447,-187500.02235174447,-187500.02235174447,-187500.02235174447
talvez,3761.5974261280808,-8069.896169888517,7311.121500864208,11898.794698571528,-187500.02235174447,-187500.02235174447,-187500.02235174447,-187500.02235174447
talvez,3573.7533657256804,-8086.771736952274,6880.425736954897,11958.764428945116,-187500.02235174447,-187500.02235174447,-187500.02235174447,-187500.02235174447
talvez,3476.6797395562817,-8140.885310278572,6540.321593322944,11982.501981556652,-187500.02235174447,-187500.02235174447,-187500.02235174447,-187500.02235174447
talvez,3699.0572451421317,-8124.926164737483,7006.131947771543,11915.334989468454,-187500.02235174447,-187500.02235174447,-187500.02235174447,-187500.02235174447
talvez,3793.135737554519,-8059.033222083238,7323.236146358985,11902.840364317939,-187500.02235174447,-187500.02235174447,-187500.02235174447,-187500.02235174447
talvez,3629.945651286322,-8068.68917568793,7001.706302369393,11963.190074347267,-187500.02235174447,-187500.02235174447,-187500.02235174447,-187500.02235174447
talvez,3460.631187037371,-8163.505275667343,6553.285605107022,11966.520484271108,-187500.02235174447,-187500.02235174447,-187500.02235174447,-187500.02235174447
talvez,3653.2361690087523,-8135.386781142567,6871.954425806335,11927.337876240956,-187500.02235174447,-187500.02235174447,-187500.02235174447,-187500.02235174447
talvez,3785.2232200173403,-8057.066268571171,7335.194329642574,11912.898649322826,-187500.02235174447,-187500.02235174447,-187500.02235174447,-187500.02235174447
talvez,3644.5189886711823,-8086.615274741087,7084.675977787492,11939.206652546723,-187500.02235174447,-187500.02235174447,-187500.02235174447,-187500.02235174447
talvez,3503.546536391561,-8110.285772119257,6602.794719075528,12010.732234803705,-187500.02235174447,-187500.02235174447,-187500.02235174447,-187500.02235174447
talvez,3589.310179866574,-8167.327423969201,6747.388153956909,11919.045379048035,-187500.02235174447,-187500.02235174447,-187500.02235174447,-187500.02235174447
talvez,3747.046440487676,-8113.817347743196,7249.609500123203,11871.771439525062,-187500.02235174447,-187500.02235174447,-187500.02235174447,-187500.02235174447
talvez,3670.1117360725093,-8085.74355670733,7134.989754556389,11928.74603614164,-187500.02235174447,-187500.02235174447,-187500.02235174447,-187500.02235174447
talvez,3475.3833383778738,-8131.497577607343,6622.397198962832,11971.013184906626,-187500.02235174447,-187500.02235174447,-187500.02235174447,-187500.02235174447
talvez,3542.438571743795,-8183.308921254746,6651.3427080324545,11924.83448086196,-187500.02235174447,-187500.02235174447,-187500.02235174447,-187500.02235174447
talvez,3766.917141308444,-8142.651098090541,7193.260752351374,11852.191311382212,-187500.02235174447,-187500.02235174447,-187500.02235174447,-187500.02235174447
talvez,3710.680152258891,-8086.0564811297045,7219.144072430619,11888.53524786654,-187500.02235174447,-187500.02235174447,-187500.02235174447,-187500.02235174447
talvez,3519.528033677105,-8121.528699580276,6720.029618743613,11957.825655677994,-187500.02235174447,-187500.02235174447,-187500.02235174447,-187500.02235174447
talvez,3497.8915450443683,-8209.035779122803,6572.597512316408,11915.938486568748,-187500.02235174447,-187500.02235174447,-187500.02235174447,-187500.02235174447
talvez,3736.5187688492265,-8145.780342314285,7091.850887757646,11882.232055930144,-187500.02235174447,-187500.02235174447,-187500.02235174447,-187500.02235174447
talvez,3711.596573781559,-8131.788150285262,7242.948680275522,11870.63150055784,-187500.02235174447,-187500.02235174447,-187500.02235174447,-187500.02235174447
talvez,3498.8526700559464,-8178.257427007846,6809.078968653556,11926.510861696108,-187500.02235174447,-187500.02235174447,-187500.02235174447,-187500.02235174447
talvez,3483.2064489372315,-8222.066846140247,6557.577140042441,11922.331085482965,-187500.02235174447,-187500.02235174447,-187500.02235174447,-187500.02235174447
talvez,3711.64127727047,-8200.273895296323,7105.306637919741,11840.389590309811,-187500.02235174447,-187500.02235174447,-187500.02235174447,-187500.02235174447
talvez,3743.850141030567,-8160.241920976869,7300.370311781206,11837.282697830522,-187500.02235174447,-187500.02235174447,-187500.02235174447,-187500.02235174447
talvez,3561.7728306976355,-8165.248711734857,6797.411358047886,11865.892930733316,-187500.02235174447,-187500.02235174447,-187500.02235174447,-187500.02235174447
talvez,3494.6281903538934,-8215.96481990395,6461.107010973336,11860.68497427523,-187500.02235174447,-187500.02235174447,-187500.02235174447,-187500.02235174447
talvez,3699.1243003754976,-8211.785043690807,6961.987252472312,11806.95138060467,-187500.02235174447,-187500.02235174447,-187500.02235174447,-187500.02235174447
talvez,3767.8559145755667,-8165.114601268126,7312.596715998258,11795.775508377017,-187500.02235174447,-187500.02235174447,-187500.02235174447,-187500.02235174447
talvez,3605.0681597075654,-8185.588799189187,6990.91040979748,11837.953250164182,-187500.02235174447,-187500.02235174447,-187500.02235174447,-187500.02235174447
talvez,3477.6185128234047,-8240.685849271518,6492.891191588783,11856.169921895256,-187500.02235174447,-187500.02235174447,-187500.02235174447,-187500.02235174447
talvez,3662.0427563241433,-8256.041497712315,6817.483224568752,11800.3352642459,-187500.02235174447,-187500.02235174447,-187500.02235174447,-187500.02235174447
talvez,3843.181293389952,-8185.298226511268,7364.430411390115,11780.933950058694,-187500.02235174447,-187500.02235174447,-187500.02235174447,-187500.02235174447
talvez,3751.8073620566565,-8149.200159215947,7171.311339296262,11847.653907257785,-187500.02235174447,-187500.02235174447,-187500.02235174447,-187500.02235174447
talvez,3527.418199469829,-8230.269936355346,6596.446823650221,11851.006668926082,-187500.02235174447,-187500.02235174447,-187500.02235174447,-187500.02235174447
talvez,3580.637703017915,-8254.901558745094,6768.734069911728,11839.339058320411,-187500.02235174447,-187500.02235174447,-187500.02235174447,-187500.02235174447
talvez,3785.3126269951617,-8207.806433177762,7270.15075327763,11801.765775891039,-187500.02235174447,-187500.02235174447,-187500.02235174447,-187500.02235174447
talvez,3790.453528219882,-8167.930921069494,7201.597953033203,11791.372214719322,-187500.02235174447,-187500.02235174447,-187500.02235174447,-187500.02235174447
talvez,3598.675560793348,-8212.47794776892,6652.594405721951,11862.651927787296,-187500.02235174447,-187500.02235174447,-187500.02235174447,-187500.02235174447
talvez,3629.588023375037,-8258.991927980414,6629.437998466254,11870.005651713092,-187500.02235174447,-187500.02235174447,-187500.02235174447,-187500.02235174447
talvez,3827.289203082228,-8207.381750033112,7222.273316654363,11800.514078201542,-187500.02235174447,-187500.02235174447,-187500.02235174447,-187500.02235174447
talvez,3809.1619383289744,-8160.331327954689,7260.137171761653,11805.945552104182,-187500.02235174447,-187500.02235174447,-187500.02235174447,-187500.02235174447
talvez,3537.5882431969935,-8205.57125873223,6736.1675782403445,11879.125163450857,-187500.02235174447,-187500.02235174447,-187500.02235174447,-187500.02235174447
talvez,3544.7631531671473,-8274.772259565862,6598.324370184466,11883.371994897367,-187500.02235174447,-187500.02235174447,-187500.02235174447,-187500.02235174447
talvez,3776.3048739796727,-8216.76948270434,7169.567903228749,11834.108750117868,-187500.02235174447,-187500.02235174447,-187500.02235174447,-187500.02235174447
talvez,3724.717047776824,-8161.650080877553,7281.661901672113,11825.77154943604,-187500.02235174447,-187500.02235174447,-187500.02235174447,-187500.02235174447
talvez,3541.1421705653875,-8200.966799374437,6815.628029778962,11881.941483252225,-187500.02235174447,-187500.02235174447,-187500.02235174447,-187500.02235174447
talvez,3526.9041093473566,-8252.420515110554,6563.880331978838,11922.55460292752,-187500.02235174447,-187500.02235174447,-187500.02235174447,-187500.02235174447
talvez,3705.047512656154,-8233.019200923349,7019.542994444728,11864.954157466193,-187500.02235174447,-187500.02235174447,-187500.02235174447,-187500.02235174447
talvez,3769.0852605206087,-8174.547037428265,7330.276945862406,11825.257459313567,-187500.02235174447,-187500.02235174447,-187500.02235174447,-187500.02235174447
talvez,3578.4248803168393,-8194.440089993488,6913.707484448849,11913.189222000745,-187500.02235174447,-187500.02235174447,-187500.02235174447,-187500.02235174447
talvez,3462.441678338251,-8255.080372700737,6490.946589821171,11945.666306694307,-187500.02235174447,-187500.02235174447,-187500.02235174447,-187500.02235174447
talvez,3659.6734714118807,-8248.576015064242,6885.79015562417,11866.675241789251,-187500.02235174447,-187500.02235174447,-187500.02235174447,-187500.02235174447
talvez,3741.682021818402,-8188.695691668474,7289.328550020284,11833.48290127312,-187500.02235174447,-187500.02235174447,-187500.02235174447,-187500.02235174447
talvez,3598.2285259042415,-8194.23892429339,7017.397226977018,11899.599361371918,-187500.02235174447,-187500.02235174447,-187500.02235174447,-187500.02235174447
talvez,3480.032501224578,-8252.085238943726,6547.541206782009,11937.485568223665,-187500.02235174447,-187500.02235174447,-187500.02235174447,-187500.02235174447
talvez,3622.055485493599,-8246.25143364089,6819.763102503193,11889.652835089308,-187500.02235174447,-187500.02235174447,-187500.02235174447,-187500.02235174447
talvez,3792.08520556512,-8178.324482241212,7308.931029907589,11845.083456645425,-187500.02235174447,-187500.02235174447,-187500.02235174447,-187500.02235174447
talvez,3648.8999305844227,-8172.222456004913,7119.276478204308,11872.866675003372,-187500.02235174447,-187500.02235174447,-187500.02235174447,-187500.02235174447
talvez,3447.600120019927,-8236.193148636003,6579.928884497748,11908.204782987212,-187500.02235174447,-187500.02235174447,-187500.02235174447,-187500.02235174447
talvez,3539.018754842133,-8268.849047285205,6665.580769250485,11830.823043682938,-187500.02235174447,-187500.02235174447,-187500.02235174447,-187500.02235174447
talvez,3766.335995952606,-8201.346779030178,7252.336412946751,11814.707435930663,-187500.02235174447,-187500.02235174447,-187500.02235174447,-187500.02235174447
talvez,3684.372149034995,-8176.536342684787,7194.266580851863,11868.686898790229,-187500.02235174447,-187500.02235174447,-187500.02235174447,-187500.02235174447
talvez,3448.091858397944,-8222.737398473906,6637.305812514522,11886.97062575467,-187500.02235174447,-187500.02235174447,-187500.02235174447,-187500.02235174447
talvez,3506.519318404117,-8251.682907543529,6609.16496624529,11868.575140067953,-187500.02235174447,-187500.02235174447,-187500.02235174447,-187500.02235174447
talvez,3742.017297985232,-8190.170906802525,7203.833127478734,11823.469319757143,-187500.02235174447,-187500.02235174447,-187500.02235174447,-187500.02235174447
talvez,3688.3284078035845,-8171.775421115807,7236.578433105759,11818.2390115546,-187500.02235174447,-187500.02235174447,-187500.02235174447,-187500.02235174447
talvez,3456.4290590797737,-8210.153366345568,6705.121005191923,11849.263232858568,-187500.02235174447,-187500.02235174447,-187500.02235174447,-187500.02235174447
talvez,3462.4640300827064,-8246.273785385345,6541.036849145514,11886.992977499125,-187500.02235174447,-187500.02235174447,-187500.02235174447,-187500.02235174447
talvez,3696.9338294188774,-8215.517785014843,7114.180280468498,11824.318686046445,-187500.02235174447,-187500.02235174447,-187500.02235174447,-187500.02235174447
talvez,3733.9483182368663,-8155.346888941156,7321.470358547015,11832.320610561444,-187500.02235174447,-187500.02235174447,-187500.02235174447,-187500.02235174447
talvez,3523.149016278865,-8183.644197421575,6844.886463270958,11882.92496000826,-187500.02235174447,-187500.02235174447,-187500.02235174447,-187500.02235174447
talvez,3432.87032042388,-8239.68002077103,6504.782319639006,11898.437070660242,-187500.02235174447,-187500.02235174447,-187500.02235174447,-187500.02235174447
talvez,3647.7376398727465,-8202.218497063936,6999.247610479309,11836.813311196962,-187500.02235174447,-187500.02235174447,-187500.02235174447,-187500.02235174447
talvez,3725.722876277313,-8150.876540050094,7326.275983604906,11848.905604947282,-187500.02235174447,-187500.02235174447,-187500.02235174447,-187500.02235174447
talvez,3541.9468333657783,-8173.116525783125,6944.150560396977,11924.275687250578,-187500.02235174447,-187500.02235174447,-187500.02235174447,-187500.02235174447
talvez,3431.953898901212,-8224.212613607957,6531.515006007553,11934.870414122393,-187500.02235174447,-187500.02235174447,-187500.02235174447,-187500.02235174447
talvez,3566.1314208664207,-8224.793758963795,6836.4822073557625,11818.261363299056,-187500.02235174447,-187500.02235174447,-187500.02235174447,-187500.02235174447
talvez,3704.2204981113077,-8160.286624465779,7303.164279838119,11788.95822631815,-187500.02235174447,-187500.02235174447,-187500.02235174447,-187500.02235174447
talvez,3578.4248803168393,-8153.715211595919,7042.989974378344,11915.737320868651,-187500.02235174447,-187500.02235174447,-187500.02235174447,-187500.02235174447
talvez,3401.4661194641735,-8228.146520632092,6501.787185881995,11948.214405562212,-187500.02235174447,-187500.02235174447,-187500.02235174447,-187500.02235174447
talvez,3570.981749413222,-8223.989096163405,6778.568837472062,11927.114358796402,-187500.02235174447,-187500.02235174447,-187500.02235174447,-187500.02235174447
talvez,3739.335088650595,-8152.910548795528,7302.11374784872,11873.201951170202,-187500.02235174447,-187500.02235174447,-187500.02235174447,-187500.02235174447
talvez,3621.1614157153867,-8144.014554502315,7137.336687724196,11882.2544076746,-187500.02235174447,-187500.02235174447,-187500.02235174447,-187500.02235174447
talvez,3425.024858120067,-8188.628636435108,6598.771405073572,11941.55358571453,-187500.02235174447,-187500.02235174447,-187500.02235174447,-187500.02235174447
talvez,3517.181100509298,-8220.345761817189,6675.75081297765,11920.922925582281,-187500.02235174447,-187500.02235174447,-187500.02235174447,-187500.02235174447
talvez,3721.8783762310004,-8161.158342499536,7240.937023274544,11854.53824455002,-187500.02235174447,-187500.02235174447,-187500.02235174447,-187500.02235174447
talvez,3642.641442136937,-8137.353734654634,7200.547421043804,11866.496427833608,-187500.02235174447,-187500.02235174447,-187500.02235174447,-187500.02235174447
talvez,3433.7420384576367,-8178.279778752301,6665.3125483170215,11906.97543704217,-187500.02235174447,-187500.02235174447,-187500.02235174447,-187500.02235174447
talvez,3508.419216682818,-8205.034816865304,6608.248544722623,11935.853890878427,-187500.02235174447,-187500.02235174447,-187500.02235174447,-187500.02235174447
talvez,3748.0299172437094,-8165.4722291794105,7192.299627339796,11891.664492090285,-187500.02235174447,-187500.02235174447,-187500.02235174447,-187500.02235174447
talvez,3693.2010880948415,-8127.630725816575,7277.750346392435,11872.598454069908,-187500.02235174447,-187500.02235174447,-187500.02235174447,-187500.02235174447
talvez,3491.11896647441,-8157.9620430424275,6792.471622523263,11928.723684397184,-187500.02235174447,-187500.02235174447,-187500.02235174447,-187500.02235174447
talvez,3458.5301230585724,-8202.509069741855,6558.113581909369,11948.147350328845,-187500.02235174447,-187500.02235174447,-187500.02235174447,-187500.02235174447
talvez,3695.1233381179977,-8168.109735025137,7104.83725128618,11889.25050368911,-187500.02235174447,-187500.02235174447,-187500.02235174447,-187500.02235174447
talvez,3748.2534346882626,-8129.3741618840895,7342.50335007946,11894.681977591752,-187500.02235174447,-187500.02235174447,-187500.02235174447,-187500.02235174447
talvez,3552.452153259773,-8143.366353913111,6913.729836193304,11928.07548380798,-187500.02235174447,-187500.02235174447,-187500.02235174447,-187500.02235174447
talvez,3460.832352737469,-8192.696653925974,6558.0688784204585,11938.200824046235,-187500.02235174447,-187500.02235174447,-187500.02235174447,-187500.02235174447
talvez,3680.058262355121,-8177.877447352105,7027.29904977072,11899.867582305382,-187500.02235174447,-187500.02235174447,-187500.02235174447,-187500.02235174447
talvez,3756.590635370092,-8124.970868226394,7359.557731098858,11882.947311752714,-187500.02235174447,-187500.02235174447,-187500.02235174447,-187500.02235174447
talvez,3628.6492501079147,-8126.2672694048015,7034.25044229632,11939.564280458007,-187500.02235174447,-187500.02235174447,-187500.02235174447,-187500.02235174447
talvez,3472.2093906652203,-8177.810392118739,6606.572163888474,11964.978213903692,-187500.02235174447,-187500.02235174447,-187500.02235174447,-187500.02235174447
talvez,3591.7241682677472,-8187.0193108343265,6881.610379411028,11901.521611395076,-187500.02235174447,-187500.02235174447,-187500.02235174447,-187500.02235174447
talvez,3727.4439606003716,-8131.385818885067,7309.936858408077,11884.131954208846,-187500.02235174447,-187500.02235174447,-187500.02235174447,-187500.02235174447
talvez,3614.0759127230544,-8121.193423413447,7091.850887757646,11918.754806370116,-187500.02235174447,-187500.02235174447,-187500.02235174447,-187500.02235174447
talvez,3489.152012962343,-8167.193313502469,6646.090048085457,11993.834315995493,-187500.02235174447,-187500.02235174447,-187500.02235174447,-187500.02235174447
talvez,3633.6783926103585,-8191.042624836282,6834.314088143598,11940.279536280577,-187500.02235174447,-187500.02235174447,-187500.02235174447,-187500.02235174447
talvez,3810.7042086963907,-8130.938783995961,7333.517948808426,11872.419640114265,-187500.02235174447,-187500.02235174447,-187500.02235174447,-187500.02235174447
talvez,3677.44310825385,-8108.296466862735,7256.069154270787,11918.2630679921,-187500.02235174447,-187500.02235174447,-187500.02235174447,-187500.02235174447
talvez,3475.808021522525,-8176.134011284592,6750.830322603027,11987.173496147812,-187500.02235174447,-187500.02235174447,-187500.02235174447,-187500.02235174447
talvez,3558.1294963514206,-8198.664569695542,6706.506813348153,11948.013239862114,-187500.02235174447,-187500.02235174447,-187500.02235174447,-187500.02235174447
talvez,3780.5293536817258,-8144.573348113699,7284.947608107043,11889.697538578217,-187500.02235174447,-187500.02235174447,-187500.02235174447,-187500.02235174447
talvez,3775.723728623835,-8109.5928680411425,7368.789001558901,11935.898594367338,-187500.02235174447,-187500.02235174447,-187500.02235174447,-187500.02235174447
talvez,3556.4978190061834,-8153.894025551561,6867.148800748444,12000.830412010004,-187500.02235174447,-187500.02235174447,-187500.02235174447,-187500.02235174447
talvez,3527.3958477253736,-8211.606229735164,6601.431262663754,11957.825655677994,-187500.02235174447,-187500.02235174447,-187500.02235174447,-187500.02235174447
talvez,3724.7393995212797,-8158.744354098363,7182.844839435201,11900.06874800548,-187500.02235174447,-187500.02235174447,-187500.02235174447,-187500.02235174447
$SILENCE,3720.917251219422,-8146.696763836952,7333.383838341694,11910.395253943832,-187500.02235174447,-187500.02235174447,-187500.02235174447,-187500.02235174447
$SILENCE,3571.9428744248003,-8171.037813548782,6884.180830023388,11967.973347660703,-187500.02235174447,-187500.02235174447,-187500.02235174447,-187500.02235174447
$SILENCE,3455.1326579013657,-8283.645902114618,6485.917447318727,11917.88308833636,-187500.02235174447,-187500.02235174447,-187500.02235174447,-187500.02235174447
$SILENCE,3703.3487800775506,-8206.510031999354,7069.677957257982,11905.299056208021,-187500.02235174447,-187500.02235174447,-187500.02235174447,-187500.02235174447
$SILENCE,3780.685815892913,-8144.483941135877,7374.756917328467,11903.868544562882,-187500.02235174447,-187500.02235174447,-187500.02235174447,-187500.02235174447
$SILENCE,3586.583267043027,-8156.866807564117,6983.087299238122,11940.525405469585,-187500.02235174447,-187500.02235174447,-187500.02235174447,-187500.02235174447
$SILENCE,3447.3766025753744,-8249.403029609088,6521.769645425039,11945.241623549655,-187500.02235174447,-187500.02235174447,-187500.02235174447,-187500.02235174447
$SILENCE,3675.274989041685,-8280.382547424144,6914.825071671614,11848.927956691738,-187500.02235174447,-187500.02235174447,-187500.02235174447,-187500.02235174447
$SILENCE,3798.209583545874,-8189.47800272441,7343.509178579949,11867.703422034196,-187500.02235174447,-187500.02235174447,-187500.02235174447,-187500.02235174447
$SILENCE,3631.3985146759173,-8180.671415409019,7049.516683759294,11937.351457756933,-187500.02235174447,-187500.02235174447,-187500.02235174447,-187500.02235174447
$SILENCE,3473.192867421254,-8259.304852402789,6613.16592850279,11953.154141086834,-187500.02235174447,-187500.02235174447,-187500.02235174447,-187500.02235174447
$SILENCE,3644.988375304744,-8245.424419096043,6912.589897226084,11918.039550547546,-187500.02235174447,-187500.02235174447,-187500.02235174447,-187500.02235174447
$SILENCE,3789.0230165747425,-8166.2992437242565,7342.302184379361,11870.363279624376,-187500.02235174447,-187500.02235174447,-187500.02235174447,-187500.02235174447
$SILENCE,3663.048584824632,-8158.52083665381,7120.751693338358,11905.679035863763,-187500.02235174447,-187500.02235174447,-187500.02235174447,-187500.02235174447
$SILENCE,3469.8177540085026,-8220.681037984019,6594.748091071617,11940.771274658595,-187500.02235174447,-187500.02235174447,-187500.02235174447,-187500.02235174447
$SILENCE,3560.1411533523983,-8291.133736507147,6716.14041520839,11873.939558737226,-187500.02235174447,-187500.02235174447,-187500.02235174447,-187500.02235174447
$SILENCE,3775.5449146681926,-8227.58772702071,7300.124442592197,11846.513968290565,-187500.02235174447,-187500.02235174447,-187500.02235174447,-187500.02235174447
$SILENCE,3691.6364659829696,-8173.451801949955,7238.992421506932,11909.344721954432,-187500.02235174447,-187500.02235174447,-187500.02235174447,-187500.02235174447
$SILENCE,3498.7185595892147,-8214.601363492175,6717.526223364619,11963.07831562499,-187500.02235174447,-187500.02235174447,-187500.02235174447,-187500.02235174447
$SILENCE,3577.9778454277334,-8256.890864001616,6704.316342391532,11915.35734121291,-187500.02235174447,-187500.02235174447,-187500.02235174447,-187500.02235174447
$SILENCE,3801.94232486991,-8197.077595839215,7298.3810065246835,11858.673317274252,-187500.02235174447,-187500.02235174447,-187500.02235174447,-187500.02235174447
$SILENCE,3769.9346268099102,-8150.161284227524,7332.333306352295,11902.952123040215,-187500.02235174447,-187500.02235174447,-187500.02235174447,-187500.02235174447
$SILENCE,3579.18483962832,-8156.620938375108,6829.039076452145,11967.481609282686,-187500.02235174447,-187500.02235174447,-187500.02235174447,-187500.02235174447
$SILENCE,3517.963411565234,-8276.985082266938,6603.174698731268,11898.571181126974,-187500.02235174447,-187500.02235174447,-187500.02235174447,-187500.02235174447
$SILENCE,3784.954999083877,-8232.01337242286,7177.011034132366,11854.471189316653,-187500.02235174447,-187500.02235174447,-187500.02235174447,-187500.02235174447
$SILENCE,3803.3057812816837,-8163.885255323084,7357.233149675507,11865.132971421835,-187500.02235174447,-187500.02235174447,-187500.02235174447,-187500.02235174447
$SILENCE,3626.9058140404004,-8176.312825240234,6924.458673531852,11946.962707872714,-187500.02235174447,-187500.02235174447,-187500.02235174447,-187500.02235174447
$SILENCE,3571.2052668577753,-8224.078503141225,6643.206673050723,11974.075373897002,-187500.02235174447,-187500.02235174447,-187500.02235174447,-187500.02235174447
$SILENCE,3777.6459786469914,-8202.91140114205,7115.186108968986,11889.317558922477,-187500.02235174447,-187500.02235174447,-187500.02235174447,-187500.02235174447
$SILENCE,3813.8334529201334,-8158.096153509159,7403.434205464627,11877.627596572353,-187500.02235174447,-187500.02235174447,-187500.02235174447,-187500.02235174447
$SILENCE,3642.4179246923836,-8158.073801764704,7035.5244917302725,11941.128902569879,-187500.02235174447,-187500.02235174447,-187500.02235174447,-187500.02235174447
$SILENCE,3520.869138344424,-8204.543078487288,6619.625582650374,11980.535028044585,-187500.02235174447,-187500.02235174447,-187500.02235174447,-187500.02235174447
$SILENCE,3718.6150215405255,-8176.692804895974,7014.402093220007,11921.54877442703,-187500.02235174447,-187500.02235174447,-187500.02235174447,-187500.02235174447
$SILENCE,3810.32422904065,-8140.415923645011,7405.691731654612,11868.999823212604,-187500.02235174447,-187500.02235174447,-187500.02235174447,-187500.02235174447
$SILENCE,3657.7735731331795,-8151.100057494647,7136.241452245886,11926.801434374027,-187500.02235174447,-187500.02235174447,-187500.02235174447,-187500.02235174447
$SILENCE,3530.0780570600105,-8188.203953290457,6677.315435089521,11989.60983629344,-187500.02235174447,-187500.02235174447,-187500.02235174447,-187500.02235174447
$SILENCE,3661.215741779297,-8199.893915640583,6891.914533604924,11924.521556439586,-187500.02235174447,-187500.02235174447,-187500.02235174447,-187500.02235174447
$SILENCE,3829.0326391497424,-8134.179786941981,7391.565429158858,11882.790849541529,-187500.02235174447,-187500.02235174447,-187500.02235174447,-187500.02235174447
$SILENCE,3721.9677832088214,-8106.4636238174,7258.863122327701,11937.97730660168,-187500.02235174447,-187500.02235174447,-187500.02235174447,-187500.02235174447
$SILENCE,3523.081961045499,-8169.5849501591865,6705.545688336574,11971.191998862267,-187500.02235174447,-187500.02235174447,-187500.02235174447,-187500.02235174447
$SILENCE,3602.4530056062945,-8222.446825795987,6776.691290937816,11908.629466131863,-187500.02235174447,-187500.02235174447,-187500.02235174447,-187500.02235174447
$SILENCE,3815.889813410022,-8168.400307703056,7350.728792039013,11859.232110885634,-187500.02235174447,-187500.02235174447,-187500.02235174447,-187500.02235174447
$SILENCE,3746.532350365204,-8124.479129848377,7296.145832079153,11908.69652136523,-187500.02235174447,-187500.02235174447,-187500.02235174447,-187500.02235174447
$SILENCE,3546.216016556742,-8141.824083545695,6787.554238743096,11986.301778114055,-187500.02235174447,-187500.02235174447,-187500.02235174447,-187500.02235174447
$SILENCE,3578.5813425280267,-8195.691787682985,6712.631191328906,11958.65267022284,-187500.02235174447,-187500.02235174447,-187500.02235174447,-187500.02235174447
$SILENCE,3764.659615118458,-8171.507200182343,7254.459828670005,11863.791866754516,-187500.02235174447,-187500.02235174447,-187500.02235174447,-187500.02235174447
$SILENCE,3757.819981315134,-8123.719170536897,7371.448859149082,11886.054204232003,-187500.02235174447,-187500.02235174447,-187500.02235174447,-187500.02235174447
$SILENCE,3576.6590925048704,-8127.854243261128,6893.814431883626,11981.116173400424,-187500.02235174447,-187500.02235174447,-187500.02235174447,-187500.02235174447
$SILENCE,3544.6513944448707,-8177.184543273991,6652.348536532943,11972.08606864048,-187500.02235174447,-187500.02235174447,-187500.02235174447,-187500.02235174447
$SILENCE,3727.9356989783882,-8188.695691668474,7150.390106486096,11857.1981021402,-187500.02235174447,-187500.02235174447,-187500.02235174447,-187500.02235174447
$SILENCE,3758.5128853932483,-8135.498539864843,7377.372071429739,11870.810314513483,-187500.02235174447,-187500.02235174447,-187500.02235174447,-187500.02235174447
$SILENCE,3576.860258204968,-8145.780342314285,6961.51786583875,11945.80041716104,-187500.02235174447,-187500.02235174447,-187500.02235174447,-187500.02235174447
$SILENCE,3517.31521097603,-8175.374051973111,6644.883053884871,11984.357176346442,-187500.02235174447,-187500.02235174447,-187500.02235174447,-187500.02235174447
$SILENCE,3718.793835496168,-8161.292452966268,7092.007349968833,11904.673207363274,-187500.02235174447,-187500.02235174447,-187500.02235174447,-187500.02235174447
$SILENCE,3766.64892037498,-8124.881461248573,7398.382711217727,11878.186390183735,-187500.02235174447,-187500.02235174447,-187500.02235174447,-187500.02235174447
$SILENCE,3612.8018632891017,-8122.6239350585865,7071.823724725691,11948.102646839936,-187500.02235174447,-187500.02235174447,-187500.02235174447,-187500.02235174447
$SILENCE,3477.9090855013237,-8173.272987994313,6626.241699009144,11968.330975571987,-187500.02235174447,-187500.02235174447,-187500.02235174447,-187500.02235174447
$SILENCE,3656.5218754436823,-8187.689863167985,6946.788066242703,11891.977416512658,-187500.02235174447,-187500.02235174447,-187500.02235174447,-187500.02235174447
$SILENCE,3793.1804410434297,-8124.6802955484745,7403.7471298870005,11871.279701147045,-187500.02235174447,-187500.02235174447,-187500.02235174447,-187500.02235174447
$SILENCE,3654.8678463539895,-8110.151661652525,7154.949862354978,11925.84030936245,-187500.02235174447,-187500.02235174447,-187500.02235174447,-187500.02235174447
$SILENCE,3494.449376398251,-8153.402287173544,6659.791667436561,11985.608874035941,-187500.02235174447,-187500.02235174447,-187500.02235174447,-187500.02235174447
$SILENCE,3619.4179796478725,-8185.074709066715,6861.1361814899665,11931.942335598747,-187500.02235174447,-187500.02235174447,-187500.02235174447,-187500.02235174447
$SILENCE,3764.011414529254,-8138.694839321953,7363.0669549783415,11876.241788416122,-187500.02235174447,-187500.02235174447,-187500.02235174447,-187500.02235174447
$SILENCE,3679.343006532551,-8106.687141261953,7224.441435866527,11917.078425535969,-187500.02235174447,-187500.02235174447,-187500.02235174447,-187500.02235174447
$SILENCE,3490.6942833297594,-8158.18556048698,6680.958769435736,11959.814960934516,-187500.02235174447,-187500.02235174447,-187500.02235174447,-187500.02235174447
$SILENCE,3575.496801793194,-8189.030967835304,6766.968282099758,11931.115321053901,-187500.02235174447,-187500.02235174447,-187500.02235174447,-187500.02235174447
$SILENCE,3788.2183537743517,-8123.361542625612,7361.368222399738,11893.676149091263,-187500.02235174447,-187500.02235174447,-187500.02235174447,-187500.02235174447
$SILENCE,3731.467274602327,-8089.9903881538385,7315.122463121708,11922.956934327714,-187500.02235174447,-187500.02235174447,-187500.02235174447,-187500.02235174447
$SILENCE,3506.832242826491,-8153.223473217902,6752.506703437174,11961.916024913315,-187500.02235174447,-187500.02235174447,-187500.02235174447,-187500.02235174447
$SILENCE,3545.277243289619,-8184.337101499689,6679.818830468515,11961.021955135102,-187500.02235174447,-187500.02235174447,-187500.02235174447,-187500.02235174447
$SILENCE,3759.921045293933,-8133.442179374955,7271.313043989307,11890.010463000592,-187500.02235174447,-187500.02235174447,-187500.02235174447,-187500.02235174447
$SILENCE,3756.4341731589047,-8072.667786200976,7388.570295401847,11919.738283126151,-187500.02235174447,-187500.02235174447,-187500.02235174447,-187500.02235174447
$SILENCE,3513.8059870965467,-8148.574310371198,6846.696954571838,11946.69448693925,-187500.02235174447,-187500.02235174447,-187500.02235174447,-187500.02235174447
$SILENCE,3486.8497832834464,-8193.52366847082,6608.695579611729,11962.497170269153,-187500.02235174447,-187500.02235174447,-187500.02235174447,-187500.02235174447
$SILENCE,3714.0329139271876,-8160.3760314436,7137.761370868847,11890.189276956235,-187500.02235174447,-187500.02235174447,-187500.02235174447,-187500.02235174447
$SILENCE,3751.1591614674526,-8106.374216839578,7378.646120863691,11886.322425165466,-187500.02235174447,-187500.02235174447,-187500.02235174447,-187500.02235174447
$SILENCE,3577.6202175164485,-8113.415016343,6976.337072412619,11957.244510322156,-187500.02235174447,-187500.02235174447,-187500.02235174447,-187500.02235174447
$SILENCE,3473.7963645215473,-8186.3711102451225,6608.0250272780695,11974.142429130368,-187500.02235174447,-187500.02235174447,-187500.02235174447,-187500.02235174447
$SILENCE,3682.628712967481,-8166.612168146631,7040.307765043708,11909.523535910075,-187500.02235174447,-187500.02235174447,-187500.02235174447,-187500.02235174447
$SILENCE,3766.0007197857763,-8093.611370755598,7392.928885570632,11893.58674211344,-187500.02235174447,-187500.02235174447,-187500.02235174447,-187500.02235174447
$SILENCE,3595.993351458711,-8106.12834765057,7054.67993672847,11938.245527535144,-187500.02235174447,-187500.02235174447,-187500.02235174447,-187500.02235174447
$SILENCE,3450.572902032483,-8182.034871820792,6578.8560007638935,11962.854798180439,-187500.02235174447,-187500.02235174447,-187500.02235174447,-187500.02235174447
$SILENCE,3626.4811308957496,-8176.71515664043,6915.674437960915,11914.575030156975,-187500.02235174447,-187500.02235174447,-187500.02235174447,-187500.02235174447
$SILENCE,3765.732498852313,-8102.641475515542,7395.722853627545,11892.558561868496,-187500.02235174447,-187500.02235174447,-187500.02235174447,-187500.02235174447
$SILENCE,3630.437389664339,-8100.138080136548,7157.319147267241,11937.865547879404,-187500.02235174447,-187500.02235174447,-187500.02235174447,-187500.02235174447
$SILENCE,3460.4747248261842,-8157.626766875597,6631.449655467231,11986.927626958803,-187500.02235174447,-187500.02235174447,-187500.02235174447,-187500.02235174447
$SILENCE,3578.022548916644,-8177.139839785081,6806.106186641001,11935.809187389516,-187500.02235174447,-187500.02235174447,-187500.02235174447,-187500.02235174447
$SILENCE,3750.086277733598,-8115.4043215995225,7347.666603048636,11880.01923322907,-187500.02235174447,-187500.02235174447,-187500.02235174447,-187500.02235174447
$SILENCE,3660.3887272344505,-8094.706606233908,7243.239252953441,11926.756730885118,-187500.02235174447,-187500.02235174447,-187500.02235174447,-187500.02235174447
$SILENCE,3462.240512638153,-8137.510196865821,6698.1249091774125,11988.335786859489,-187500.02235174447,-187500.02235174447,-187500.02235174447,-187500.02235174447
$SILENCE,3525.0042110686554,-8177.899799096561,6710.530127350107,11952.952975386737,-187500.02235174447,-187500.02235174447,-187500.02235174447,-187500.02235174447
$SILENCE,3735.2894229041844,-8128.345981639145,7282.891247617155,11883.68491931974,-187500.02235174447,-187500.02235174447,-187500.02235174447,-187500.02235174447
$SILENCE,3688.551925248137,-8095.3324550786565,7303.790128682867,11920.542945926542,-187500.02235174447,-187500.02235174447,-187500.02235174447,-187500.02235174447
$SILENCE,3483.318207659508,-8136.906699765528,6781.787488673626,11978.948054188259,-187500.02235174447,-187500.02235174447,-187500.02235174447,-187500.02235174447
$SILENCE,3481.1724401917986,-8179.598531675164,6635.160045046812,11951.053077108036,-187500.02235174447,-187500.02235174447,-187500.02235174447,-187500.02235174447
$SILENCE,3698.297285830651,-8135.878519520584,7199.027502420843,11884.82485828696,-187500.02235174447,-187500.02235174447,-187500.02235174447,-187500.02235174447
$SILENCE,3708.8920127024667,-8092.829059699662,7350.952309483566,11899.755823583106,-187500.02235174447,-187500.02235174447,-187500.02235174447,-187500.02235174447
$SILENCE,3540.2704525316303,-8114.554955310221,6895.446109228863,11977.003452420648,-187500.02235174447,-187500.02235174447,-187500.02235174447,-187500.02235174447
$SILENCE,3485.8886582718683,-8170.031985048293,6616.541041915541,11983.641920523873,-187500.02235174447,-187500.02235174447,-187500.02235174447,-187500.02235174447
$SILENCE,3696.1515183629417,-8142.94167076846,7122.025742772311,11914.463271434697,-187500.02235174447,-187500.02235174447,-187500.02235174447,-187500.02235174447
$SILENCE,3734.6188705705254,-8092.896114933028,7374.198123717085,11908.093024264936,-187500.02235174447,-187500.02235174447,-187500.02235174447,-187500.02235174447
$SILENCE,3527.306440747552,-8115.896059977539,6953.940624468401,11952.818864920006,-187500.02235174447,-187500.02235174447,-187500.02235174447,-187500.02235174447
$SILENCE,3434.8819774248577,-8167.036851291282,6566.227265146646,11977.606949520941,-187500.02235174447,-187500.02235174447,-187500.02235174447,-187500.02235174447
$SILENCE,3661.081631312565,-8143.165188213014,7013.217450763876,11929.93067859777,-187500.02235174447,-187500.02235174447,-187500.02235174447,-187500.02235174447
$SILENCE,3755.8977312919774,-8082.4131467834895,7400.394368218705,11904.248524218623,-187500.02235174447,-187500.02235174447,-187500.02235174447,-187500.02235174447
$SILENCE,3601.1119009389763,-8087.241123585835,7092.052053457744,11957.423324277797,-187500.02235174447,-187500.02235174447,-187500.02235174447,-187500.02235174447
$SILENCE,3443.934433929257,-8146.585005114675,6608.0250272780695,12001.18803992129,-187500.02235174447,-187500.02235174447,-187500.02235174447,-187500.02235174447
$SILENCE,3595.5910200585154,-8154.609281374131,6884.963141079324,11948.929661384782,-187500.02235174447,-187500.02235174447,-187500.02235174447,-187500.02235174447
$SILENCE,3735.8035130266567,-8094.88542018955,7361.167056699641,11908.1600794983,-187500.02235174447,-187500.02235174447,-187500.02235174447,-187500.02235174447
$SILENCE,3625.721171584269,-8079.328606048657,7181.749603956891,11961.17841734629,-187500.02235174447,-187500.02235174447,-187500.02235174447,-187500.02235174447
$SILENCE,3450.7293642436703,-8119.785263512763,6674.834391454982,12013.481499371708,-187500.02235174447,-187500.02235174447,-187500.02235174447,-187500.02235174447
$SILENCE,3555.961377139256,-8144.349830669145,6795.824384191559,11951.3212980415,-187500.02235174447,-187500.02235174447,-187500.02235174447,-187500.02235174447
$SILENCE,3752.008527756754,-8087.1740683524695,7341.229300645507,11908.87533532087,-187500.02235174447,-187500.02235174447,-187500.02235174447,-187500.02235174447
$SILENCE,3664.0991168140313,-8071.036108855737,7258.840770583245,11955.03168762108,-187500.02235174447,-187500.02235174447,-187500.02235174447,-187500.02235174447
$SILENCE,3477.3726436343964,-8112.051559931227,6732.90422354987,12017.437758140297,-187500.02235174447,-187500.02235174447,-187500.02235174447,-187500.02235174447
$SILENCE,3542.1703508103315,-8144.953327769438,6708.607877326951,11984.066603668523,-187500.02235174447,-187500.02235174447,-187500.02235174447,-187500.02235174447
$SILENCE,3765.5983883855806,-8096.159469623503,7279.158506293119,11927.270821007589,-187500.02235174447,-187500.02235174447,-187500.02235174447,-187500.02235174447
$SILENCE,3718.0338761846874,-8059.16733254997,7329.584041784292,11964.620585992407,-187500.02235174447,-187500.02235174447,-187500.02235174447,-187500.02235174447
$SILENCE,3501.31136194603,-8090.325664320668,6827.966192718291,12026.087883244501,-187500.02235174447,-187500.02235174447,-187500.02235174447,-187500.02235174447
$SILENCE,3483.318207659508,-8137.979583499383,6644.033687595569,12015.694322072784,-187500.02235174447,-187500.02235174447,-187500.02235174447,-187500.02235174447
$SILENCE,3712.3565330930396,-8102.440309815444,7194.512450040871,11945.308678783022,-187500.02235174447,-187500.02235174447,-187500.02235174447,-187500.02235174447
$SILENCE,3725.298193132662,-8061.849541884607,7373.482867894515,11954.584652731974,-187500.02235174447,-187500.02235174447,-187500.02235174447,-187500.02235174447
$SILENCE,3533.0508390725663,-8078.121611848071,6924.2351560872985,12009.636999325396,-187500.02235174447,-187500.02235174447,-187500.02235174447,-187500.02235174447
$SILENCE,3462.3969748493405,-8124.613240315109,6606.706274355206,12018.801214552072,-187500.02235174447,-187500.02235174447,-187500.02235174447,-187500.02235174447
$SILENCE,3671.25167503973,-8107.581211040165,7098.288190160774,11958.31739405601,-187500.02235174447,-187500.02235174447,-187500.02235174447,-187500.02235174447
$SILENCE,3723.398294853961,-8054.384059236534,7413.1348625582295,11965.916987170815,-187500.02235174447,-187500.02235174447,-187500.02235174447,-187500.02235174447
$SILENCE,3527.954641336756,-8062.430687240445,7039.279584798764,12024.366798921443,-187500.02235174447,-187500.02235174447,-187500.02235174447,-187500.02235174447
$SILENCE,3404.1483287988103,-8113.415016343,6611.198974990723,12047.590261410507,-187500.02235174447,-187500.02235174447,-187500.02235174447,-187500.02235174447
$SILENCE,3638.104038012509,-8109.235240129858,6982.819078304658,11977.338728587476,-187500.02235174447,-187500.02235174447,-187500.02235174447,-187500.02235174447
$SILENCE,3772.303911722173,-8050.696021401409,7389.285551224417,11944.83929214946,-187500.02235174447,-187500.02235174447,-187500.02235174447,-187500.02235174447
$SILENCE,3623.307183183096,-8053.177065035948,7110.335780422185,11991.867362483426,-187500.02235174447,-187500.02235174447,-187500.02235174447,-187500.02235174447
$SILENCE,3476.0091872226226,-8108.855260474117,6624.364152474899,12037.397865938887,-187500.02235174447,-187500.02235174447,-187500.02235174447,-187500.02235174447
$SILENCE,3586.046825176099,-8120.902850735528,6894.216763283821,12009.681702814307,-187500.02235174447,-187500.02235174447,-187500.02235174447,-187500.02235174447
$SILENCE,3679.9465036328443,-8058.608538938587,7389.106737268775,11975.03649890858,-187500.02235174447,-187500.02235174447,-187500.02235174447,-187500.02235174447
$SILENCE,3592.484127579228,-8047.790294622218,7192.031406406332,11986.055908925047,-187500.02235174447,-187500.02235174447,-187500.02235174447,-187500.02235174447
$SILENCE,3486.335693160974,-8109.458757574411,6666.966577406714,12029.172423979333,-187500.02235174447,-187500.02235174447,-187500.02235174447,-187500.02235174447
$SILENCE,3574.1333453814204,-8128.4353886169665,6764.934273354325,12001.500964343664,-187500.02235174447,-187500.02235174447,-187500.02235174447,-187500.02235174447
$SILENCE,3759.831638316112,-8060.30727151719,7319.168128868119,11952.46123700872,-187500.02235174447,-187500.02235174447,-187500.02235174447,-187500.02235174447
$SILENCE,3678.5606954766154,-8044.035201553727,7285.998140096443,11985.318301358022,-187500.02235174447,-187500.02235174447,-187500.02235174447,-187500.02235174447
$SILENCE,3437.5641867594945,-8082.189629338936,6781.8321921625375,12065.114029063467,-187500.02235174447,-187500.02235174447,-187500.02235174447,-187500.02235174447
$SILENCE,3457.9489777027343,-8115.516080321799,6703.534031335596,12042.538767163607,-187500.02235174447,-187500.02235174447,-187500.02235174447,-187500.02235174447
$SILENCE,3733.50128334776,-8082.994292139327,7258.192569994041,11958.675021967296,-187500.02235174447,-187500.02235174447,-187500.02235174447,-187500.02235174447
$SILENCE,3723.4877018317825,-8051.657146412987,7330.16518714013,11962.74303945816,-187500.02235174447,-187500.02235174447,-187500.02235174447,-187500.02235174447
$SILENCE,3529.8098361265465,-8082.323739805668,6841.578405091573,12026.199641966778,-187500.02235174447,-187500.02235174447,-187500.02235174447,-187500.02235174447
$SILENCE,3502.1383764908765,-8122.758045525318,6626.8675478538935,12027.406636167365,-187500.02235174447,-187500.02235174447,-187500.02235174447,-187500.02235174447
$SILENCE,3729.9920594682767,-8089.141021864537,7174.284121308819,11973.740097730173,-187500.02235174447,-187500.02235174447,-187500.02235174447,-187500.02235174447
$SILENCE,3750.2427399447847,-8051.098352801604,7385.977493045032,11972.063716896024,-187500.02235174447,-187500.02235174447,-187500.02235174447,-187500.02235174447
$SILENCE,3557.011909128655,-8074.12064959057,6953.717107023848,12031.251136213677,-187500.02235174447,-187500.02235174447,-187500.02235174447,-187500.02235174447
$SILENCE,3465.414460350807,-8126.110807193614,6610.439015679242,12057.514435948664,-187500.02235174447,-187500.02235174447,-187500.02235174447,-187500.02235174447
$SILENCE,3661.729831901769,-8108.676446518475,7075.310596860719,11997.879981741904,-187500.02235174447,-187500.02235174447,-187500.02235174447,-187500.02235174447
$SILENCE,3733.6130420700365,-8056.418067981967,7394.024121048942,11974.790629719571,-187500.02235174447,-187500.02235174447,-187500.02235174447,-187500.02235174447
$SILENCE,3605.2916771521186,-8065.8058006531965,7040.620689466083,12023.71859833224,-187500.02235174447,-187500.02235174447,-187500.02235174447,-187500.02235174447
$SILENCE,3484.368739648907,-8120.366408868601,6605.409873176798,12061.135418550422,-187500.02235174447,-187500.02235174447,-187500.02235174447,-187500.02235174447
$SILENCE,3657.862980111001,-8121.03696120226,6959.975595471335,12003.289103900088,-187500.02235174447,-187500.02235174447,-187500.02235174447,-187500.02235174447
$SILENCE,3766.1571819969636,-8063.5035709743,7398.628580406736,11978.769240232616,-187500.02235174447,-187500.02235174447,-187500.02235174447,-187500.02235174447
$SILENCE,3612.2207179332636,-8060.083754072637,7147.953766340467,12029.820624568538,-187500.02235174447,-187500.02235174447,-187500.02235174447,-187500.02235174447
$SILENCE,3456.5855212909605,-8115.22550764388,6675.974330422203,12078.726241436749,-187500.02235174447,-187500.02235174447,-187500.02235174447,-187500.02235174447
$SILENCE,3580.9059239513786,-8125.6190688155975,6869.875713571992,12043.1422642639,-187500.02235174447,-187500.02235174447,-187500.02235174447,-187500.02235174447
$SILENCE,3734.3282978926063,-8069.896169888517,7384.479926166526,11991.576789805507,-187500.02235174447,-187500.02235174447,-187500.02235174447,-187500.02235174447
$SILENCE,3631.510273398194,-8054.40641098099,7229.537633602337,12005.814851023539,-187500.02235174447,-187500.02235174447,-187500.02235174447,-187500.02235174447
$SILENCE,3499.4338154117845,-8108.855260474117,6689.340673606476,12050.33952597851,-187500.02235174447,-187500.02235174447,-187500.02235174447,-187500.02235174447
$SILENCE,3576.3014645935855,-8132.2575369188235,6760.039241318613,12034.2909734596,-187500.02235174447,-187500.02235174447,-187500.02235174447,-187500.02235174447
$SILENCE,3759.0269755157206,-8079.127440348559,7301.465547259516,11985.541818802574,-187500.02235174447,-187500.02235174447,-187500.02235174447,-187500.02235174447
$SILENCE,3696.8444224410564,-8054.272300514258,7289.373253509195,12002.730310288705,-187500.02235174447,-187500.02235174447,-187500.02235174447,-187500.02235174447
$SILENCE,3483.2064489372315,-8096.964132423894,6754.540712182607,12057.827360371037,-187500.02235174447,-187500.02235174447,-187500.02235174447,-187500.02235174447
$SILENCE,3513.895394074368,-8134.850339275639,6677.337786833977,12062.789447640116,-187500.02235174447,-187500.02235174447,-187500.02235174447,-187500.02235174447
$SILENCE,3744.7218590643242,-8093.633722500053,7252.716392602491,11995.153068918356,-187500.02235174447,-187500.02235174447,-187500.02235174447,-187500.02235174447
$SILENCE,3726.59459431107,-8058.608538938587,7362.754030555968,12005.546630090073,-187500.02235174447,-187500.02235174447,-187500.02235174447,-187500.02235174447
$SILENCE,3528.6251936704152,-8087.308178819201,6877.810582853625,12062.43181972883,-187500.02235174447,-187500.02235174447,-187500.02235174447,-187500.02235174447
$SILENCE,3489.8449170404574,-8132.346943896645,6623.671248396784,12061.358935994976,-187500.02235174447,-187500.02235174447,-187500.02235174447,-187500.02235174447
$SILENCE,3714.4128935829276,-8108.385873840556,7142.5893476711935,11993.99077820668,-187500.02235174447,-187500.02235174447,-187500.02235174447,-187500.02235174447
$SILENCE,3746.3088329206507,-8054.317004003168,7386.849211078788,11994.348406117966,-187500.02235174447,-187500.02235174447,-187500.02235174447,-187500.02235174447
$SILENCE,3557.6824614623147,-8071.013757111283,6969.989176987312,12044.326906720033,-187500.02235174447,-187500.02235174447,-187500.02235174447,-187500.02235174447
$SILENCE,3464.8780184838797,-8129.821196773196,6598.100852739913,12061.895377861903,-187500.02235174447,-187500.02235174447,-187500.02235174447,-187500.02235174447
$SILENCE,3662.6239016799814,-8118.824138501184,7032.4175992509845,11989.60983629344,-187500.02235174447,-187500.02235174447,-187500.02235174447,-187500.02235174447
$SILENCE,3755.853027803067,-8056.194550537414,7400.349664729794,11981.518504800619,-187500.02235174447,-187500.02235174447,-187500.02235174447,-187500.02235174447
$SILENCE,3600.4637003497724,-8062.363632007079,7073.790678237758,12042.918746819347,-187500.02235174447,-187500.02235174447,-187500.02235174447,-187500.02235174447
$SILENCE,3454.7526782456257,-8119.449987345933,6609.589649389941,12077.63100595844,-187500.02235174447,-187500.02235174447,-187500.02235174447,-187500.02235174447
$SILENCE,3625.2294332062525,-8121.3945891135445,6926.447978788374,12009.435833625297,-187500.02235174447,-187500.02235174447,-187500.02235174447,-187500.02235174447
$SILENCE,3766.2018854858743,-8059.971995350361,7392.303036725883,11965.715821470718,-187500.02235174447,-187500.02235174447,-187500.02235174447,-187500.02235174447
$SILENCE,3639.2216252352746,-8061.089582573126,7161.364813013651,12006.66421731284,-187500.02235174447,-187500.02235174447,-187500.02235174447,-187500.02235174447
$SILENCE,3467.6049313074273,-8117.840661745151,6644.41366725131,12054.698116147294,-187500.02235174447,-187500.02235174447,-187500.02235174447,-187500.02235174447
$SILENCE,3591.4559473342833,-8135.677353820486,6813.01287567769,12015.783729050605,-187500.02235174447,-187500.02235174447,-187500.02235174447,-187500.02235174447
$SILENCE,3775.6119699015585,-8074.858257157595,7345.140855925186,11967.302795327043,-187500.02235174447,-187500.02235174447,-187500.02235174447,-187500.02235174447
$SILENCE,3675.766727419702,-8062.922425618462,7233.67270632657,12000.629246309907,-187500.02235174447,-187500.02235174447,-187500.02235174447,-187500.02235174447
$SILENCE,3478.7808035350804,-8105.591905783643,6704.003417969158,12064.130552307433,-187500.02235174447,-187500.02235174447,-187500.02235174447,-187500.02235174447
$SILENCE,3542.5056269771612,-8131.4305223739775,6717.436816386798,12034.156862992868,-187500.02235174447,-187500.02235174447,-187500.02235174447,-187500.02235174447
$SILENCE,3759.3175481936396,-8080.021510126771,7307.20994558453,11960.597271990451,-187500.02235174447,-187500.02235174447,-187500.02235174447,-187500.02235174447
$SILENCE,3704.9804574227883,-8048.997288822805,7335.484902320493,11983.686624012784,-187500.02235174447,-187500.02235174447,-187500.02235174447,-187500.02235174447
$SILENCE,3487.4979838726504,-8095.6230277565755,6781.787488673626,12048.126703277434,-187500.02235174447,-187500.02235174447,-187500.02235174447,-187500.02235174447
$SILENCE,3507.2792777155973,-8137.621955588098,6652.907330144326,12030.737046091206,-187500.02235174447,-187500.02235174447,-187500.02235174447,-187500.02235174447
$SILENCE,3735.2223676708186,-8100.518059792288,7175.982853887422,11972.13077212939,-187500.02235174447,-187500.02235174447,-187500.02235174447,-187500.02235174447
$SILENCE,3740.1397514509863,-8056.2392540263245,7336.401323843161,11976.578769275997,-187500.02235174447,-187500.02235174447,-187500.02235174447,-187500.02235174447
$SILENCE,3539.8681211314347,-8086.168239851981,6862.432582668374,12036.883775816415,-187500.02235174447,-187500.02235174447,-187500.02235174447,-187500.02235174447
$SILENCE,3474.0869371994663,-8136.347906154145,6582.298169410011,12045.37743870943,-187500.02235174447,-187500.02235174447,-187500.02235174447,-187500.02235174447
$SILENCE,3693.044625883654,-8106.4636238174,7091.605018568638,11979.283330355089,-187500.02235174447,-187500.02235174447,-187500.02235174447,-187500.02235174447
talvez,3745.235949186796,-8054.719335403363,7365.995033501988,11972.309586085032,-187500.02235174447,-187500.02235174447,-187500.02235174447,-187500.02235174447
talvez,3557.0789643620215,-8067.370422765068,6970.749136298792,12019.784691308105,-187500.02235174447,-187500.02235174447,-187500.02235174447,-187500.02235174447
talvez,3444.2026548627205,-8125.686124048963,6568.529494825541,12040.86238632946,-187500.02235174447,-187500.02235174447,-187500.02235174447,-187500.02235174447
talvez,3649.6151864069925,-8119.785263512763,6980.963883514868,11976.645824509362,-187500.02235174447,-187500.02235174447,-187500.02235174447,-187500.02235174447
talvez,3757.4400016593936,-8064.64350994152,7370.621844604236,11949.89078639636,-187500.02235174447,-187500.02235174447,-187500.02235174447,-187500.02235174447
talvez,3606.2528021636967,-8070.432611755445,7062.011308909811,12001.791537021583,-187500.02235174447,-187500.02235174447,-187500.02235174447,-187500.02235174447
talvez,3450.9975851771337,-8124.054446703726,6583.125183954858,12046.092694532,-187500.02235174447,-187500.02235174447,-187500.02235174447,-187500.02235174447
talvez,3609.2702876651633,-8129.463568861911,6863.796039080148,11994.683682284794,-187500.02235174447,-187500.02235174447,-187500.02235174447,-187500.02235174447
talvez,3749.5945393555808,-8066.766925664774,7344.939690225088,11954.025859120591,-187500.02235174447,-187500.02235174447,-187500.02235174447,-187500.02235174447
talvez,3616.1993284463083,-8059.457905227889,7150.077182063721,11989.743946760173,-187500.02235174447,-187500.02235174447,-187500.02235174447,-187500.02235174447
talvez,3435.9995646476227,-8116.0525221887265,6640.859739882915,12052.86527310196,-187500.02235174447,-187500.02235174447,-187500.02235174447,-187500.02235174447
talvez,3563.1362871094093,-8129.485920606366,6773.606750202984,12013.794423794083,-187500.02235174447,-187500.02235174447,-187500.02235174447,-187500.02235174447
talvez,3749.751001566768,-8071.527847233755,7306.785262439878,11947.521501484098,-187500.02235174447,-187500.02235174447,-187500.02235174447,-187500.02235174447
talvez,3667.9436168603443,-8056.373364493056,7230.47640686946,11976.93639718728,-187500.02235174447,-187500.02235174447,-187500.02235174447,-187500.02235174447
talvez,3472.6564255543267,-8104.764891238796,6701.634133056896,12038.358990950464,-187500.02235174447,-187500.02235174447,-187500.02235174447,-187500.02235174447
talvez,3516.2646789866308,-8139.365391655611,6662.831504682482,12015.873136028426,-187500.02235174447,-187500.02235174447,-187500.02235174447,-187500.02235174447
talvez,3738.8657020170335,-8086.2352950853465,7235.237328438441,11954.763466687617,-187500.02235174447,-187500.02235174447,-187500.02235174447,-187500.02235174447
talvez,3692.239963083263,-8051.344221990612,7287.5180587194045,11968.532141272086,-187500.02235174447,-187500.02235174447,-187500.02235174447,-187500.02235174447
talvez,3479.898390757846,-8087.2858270747465,6782.547447985107,12031.18408098031,-187500.02235174447,-187500.02235174447,-187500.02235174447,-187500.02235174447
talvez,3486.0227687386,-8138.739542810863,6601.2748004525665,12033.463958914752,-187500.02235174447,-187500.02235174447,-187500.02235174447,-187500.02235174447
talvez,3710.4566348143385,-8099.355769080612,7155.374545499629,11969.828542450494,-187500.02235174447,-187500.02235174447,-187500.02235174447,-187500.02235174447
talvez,3721.699562275358,-8057.848579627107,7338.8823674776995,11970.499094784152,-187500.02235174447,-187500.02235174447,-187500.02235174447,-187500.02235174447
talvez,3528.8040076260577,-8085.78826019624,6883.97966432329,12023.00334250967,-187500.02235174447,-187500.02235174447,-187500.02235174447,-187500.02235174447
talvez,3449.8799979543687,-8133.397475886045,6566.741355269117,12031.47465365823,-187500.02235174447,-187500.02235174447,-187500.02235174447,-187500.02235174447
talvez,3668.2341895382633,-8107.514155806799,7051.863616927102,11961.379583046388,-187500.02235174447,-187500.02235174447,-187500.02235174447,-187500.02235174447
talvez,3748.432248643905,-8064.911730874984,7353.902739751666,11952.55064398654,-187500.02235174447,-187500.02235174447,-187500.02235174447,-187500.02235174447
talvez,3568.8583336899683,-8087.889324175039,6980.248627692298,12006.083071957002,-187500.02235174447,-187500.02235174447,-187500.02235174447,-187500.02235174447
talvez,3447.1083816419105,-8141.712324823418,6544.9260526807375,12044.550424164585,-187500.02235174447,-187500.02235174447,-187500.02235174447,-187500.02235174447
talvez,3632.6502123654145,-8128.03305721677,6919.407179284952,11973.2260076077,-187500.02235174447,-187500.02235174447,-187500.02235174447,-187500.02235174447
talvez,3755.607158614059,-8066.677518686953,7357.389611886694,11936.926774612282,-187500.02235174447,-187500.02235174447,-187500.02235174447,-187500.02235174447
talvez,3615.215851690275,-8071.393736767022,7093.393158125063,11991.532086316596,-187500.02235174447,-187500.02235174447,-187500.02235174447,-187500.02235174447
talvez,3446.5942915194382,-8130.871728762595,6584.041605477525,12033.799235081582,-187500.02235174447,-187500.02235174447,-187500.02235174447,-187500.02235174447
talvez,3590.763043256169,-8142.271118434802,6819.181957147355,11985.318301358022,-187500.02235174447,-187500.02235174447,-187500.02235174447,-187500.02235174447
talvez,3757.529408637215,-8082.435498527944,7333.562652297337,11946.918004383804,-187500.02235174447,-187500.02235174447,-187500.02235174447,-187500.02235174447
talvez,3650.442200951839,-8076.60169322511,7163.801153159279,11981.585560033986,-187500.02235174447,-187500.02235174447,-187500.02235174447,-187500.02235174447
talvez,3465.7273847731813,-8132.928089252483,6624.967649575192,12023.38332216541,-187500.02235174447,-187500.02235174447,-187500.02235174447,-187500.02235174447
talvez,3554.1285340939207,-8161.672432622008,6713.413502384842,11989.65453978235,-187500.02235174447,-187500.02235174447,-187500.02235174447,-187500.02235174447
talvez,3757.17178072593,-8109.212888385402,7281.751308649935,11930.668286164795,-187500.02235174447,-187500.02235174447,-187500.02235174447,-187500.02235174447
talvez,3694.4751375287938,-8089.0516148867155,7235.796122049824,11949.242585807157,-187500.02235174447,-187500.02235174447,-187500.02235174447,-187500.02235174447
talvez,3519.192757510276,-8127.854243261128,6701.164746423334,12011.402787137366,-187500.02235174447,-187500.02235174447,-187500.02235174447,-187500.02235174447
talvez,3556.8107434285575,-8172.825953105206,6631.3155450005,11994.37075786242,-187500.02235174447,-187500.02235174447,-187500.02235174447,-187500.02235174447
talvez,3775.120231523542,-8123.60741181462,7201.3520838441955,11918.2630679921,-187500.02235174447,-187500.02235174447,-187500.02235174447,-187500.02235174447
talvez,3766.3806994415168,-8080.736765949341,7284.969959851499,11940.391295002853,-187500.02235174447,-187500.02235174447,-187500.02235174447,-187500.02235174447
talvez,3594.2275636467416,-8110.084606419159,6813.169337888878,12015.604915094962,-187500.02235174447,-187500.02235174447,-187500.02235174447,-187500.02235174447
talvez,3549.412316013851,-8175.038775806282,6598.145556228824,12022.04221749809,-187500.02235174447,-187500.02235174447,-187500.02235174447,-187500.02235174447
talvez,3766.403051185972,-8139.432446888977,7137.671963891025,11959.613795234418,-187500.02235174447,-187500.02235174447,-187500.02235174447,-187500.02235174447
talvez,3784.552667683681,-8085.765908451785,7336.200158143063,11956.84217892196,-187500.02235174447,-187500.02235174447,-187500.02235174447,-187500.02235174447
talvez,3597.5803253150375,-8116.454853588922,6900.385844753486,12004.876077756415,-187500.02235174447,-187500.02235174447,-187500.02235174447,-187500.02235174447
talvez,3505.513489903628,-8188.71804341293,6543.540244524508,12012.430967382308,-187500.02235174447,-187500.02235174447,-187500.02235174447,-187500.02235174447
talvez,3724.8735099880114,-8164.175828001003,7005.86372683808,11952.707106197728,-187500.02235174447,-187500.02235174447,-187500.02235174447,-187500.02235174447
talvez,3834.173540374463,-8093.007873655305,7374.466344650548,11954.472894009697,-187500.02235174447,-187500.02235174447,-187500.02235174447,-187500.02235174447
talvez,3682.5169542452045,-8123.5627083257095,7046.588605235649,12018.957676763259,-187500.02235174447,-187500.02235174447,-187500.02235174447,-187500.02235174447
talvez,3549.0770398470213,-8179.866752608628,6598.145556228824,12045.779770109626,-187500.02235174447,-187500.02235174447,-187500.02235174447,-187500.02235174447
talvez,3724.8288064991007,-8182.124278798614,6928.504339278262,11974.2765395971,-187500.02235174447,-187500.02235174447,-187500.02235174447,-187500.02235174447
talvez,3858.916921486488,-8125.820234515695,7355.422658374627,11937.843196134949,-187500.02235174447,-187500.02235174447,-187500.02235174447,-187500.02235174447
talvez,3740.0950479620756,-8132.190481685458,7127.79249284178,11990.99564444967,-187500.02235174447,-187500.02235174447,-187500.02235174447,-187500.02235174447
talvez,3578.827211717035,-8190.170906802525,6630.823806622482,12016.208412195256,-187500.02235174447,-187500.02235174447,-187500.02235174447,-187500.02235174447
talvez,3717.184509895386,-8195.736491171896,6840.483169613263,11941.17360605879,-187500.02235174447,-187500.02235174447,-187500.02235174447,-187500.02235174447
talvez,3907.8001866102445,-8142.89696727955,7367.425545147127,11927.539041941052,-187500.02235174447,-187500.02235174447,-187500.02235174447,-187500.02235174447
talvez,3825.8586914370885,-8136.884348021073,7251.53175014636,11981.786725734082,-187500.02235174447,-187500.02235174447,-187500.02235174447,-187500.02235174447
talvez,3605.3140288965737,-8196.228229549914,6692.447566085764,12012.699188315772,-187500.02235174447,-187500.02235174447,-187500.02235174447,-187500.02235174447
talvez,3687.3225793030956,-8228.48179679892,6732.256022960666,11979.775068733104,-187500.02235174447,-187500.02235174447,-187500.02235174447,-187500.02235174447
talvez,3936.879806146599,-8171.596607160164,7339.709382022546,11911.199916744223,-187500.02235174447,-187500.02235174447,-187500.02235174447,-187500.02235174447
talvez,3902.7039888744343,-8144.126313224592,7328.30999235034,11931.137672798357,-187500.02235174447,-187500.02235174447,-187500.02235174447,-187500.02235174447
talvez,3697.8055474526345,-8176.04460430677,6803.893363939926,12035.050932771079,-187500.02235174447,-187500.02235174447,-187500.02235174447,-187500.02235174447
talvez,3698.1631753639194,-8225.464311297454,6693.028711441602,11997.701167786261,-187500.02235174447,-187500.02235174447,-187500.02235174447,-187500.02235174447
talvez,3939.6961259479676,-8173.630615905598,7266.149791020131,11920.07355929298,-187500.02235174447,-187500.02235174447,-187500.02235174447,-187500.02235174447
talvez,3956.3481755671714,-8139.723019566896,7418.27576378295,11972.488400040675,-187500.02235174447,-187500.02235174447,-187500.02235174447,-187500.02235174447
talvez,3736.764638038235,-8208.499337255877,6916.277935061209,12050.42893295633,-187500.02235174447,-187500.02235174447,-187500.02235174447,-187500.02235174447
talvez,3696.106814874031,-8245.469122584955,6661.98213839318,12038.113121761457,-187500.02235174447,-187500.02235174447,-187500.02235174447,-187500.02235174447
talvez,3957.0634313897413,-8188.271008523823,7198.80398497629,11925.482681451163,-187500.02235174447,-187500.02235174447,-187500.02235174447,-187500.02235174447
talvez,4001.453995877981,-8153.737563340374,7442.326240816861,11931.160024542813,-187500.02235174447,-187500.02235174447,-187500.02235174447,-187500.02235174447
talvez,3813.4534732643933,-8189.746223657874,7036.195044063931,12041.354124707475,-187500.02235174447,-187500.02235174447,-187500.02235174447,-187500.02235174447
talvez,3710.4789865587936,-8259.72953554744,6669.291158830066,12008.787633036094,-187500.02235174447,-187500.02235174447,-187500.02235174447,-187500.02235174447
talvez,3916.0926838031633,-8235.477892813431,7096.768271537813,11913.904477823315,-187500.02235174447,-187500.02235174447,-187500.02235174447,-187500.02235174447
talvez,4004.516184868358,-8175.798735117762,7446.5954240078245,11902.259218962101,-187500.02235174447,-187500.02235174447,-187500.02235174447,-187500.02235174447
talvez,3859.6992325424235,-8169.696708881464,7128.597155642171,11958.429152778286,-187500.02235174447,-187500.02235174447,-187500.02235174447,-187500.02235174447
talvez,3741.1232282070196,-8225.240793852901,6697.677874288306,12072.020718100157,-187500.02235174447,-187500.02235174447,-187500.02235174447,-187500.02235174447
talvez,3894.4338434259707,-8257.20378842399,6993.100880754099,12015.80608079506,-187500.02235174447,-187500.02235174447,-187500.02235174447,-187500.02235174447
talvez,3988.1770596715287,-8224.257317096868,7427.797606920912,11958.920891156304,-187500.02235174447,-187500.02235174447,-187500.02235174447,-187500.02235174447
talvez,3904.805052853233,-8158.766705842818,7258.460790927505,12035.967354293747,-187500.02235174447,-187500.02235174447,-187500.02235174447,-187500.02235174447
talvez,3750.466257389338,-8216.523613515332,6750.807970858571,12100.58624751404,-187500.02235174447,-187500.02235174447,-187500.02235174447,-187500.02235174447
talvez,3896.8254800826885,-8252.129942432635,6934.94164168139,12060.800142383594,-187500.02235174447,-187500.02235174447,-187500.02235174447,-187500.02235174447
talvez,4089.743386476444,-8196.965837116937,7473.95395922112,12017.99655175168,-187500.02235174447,-187500.02235174447,-187500.02235174447,-187500.02235174447
talvez,3965.288873349294,-8188.695691668474,7361.301167166373,12056.642717914907,-187500.02235174447,-187500.02235174447,-187500.02235174447,-187500.02235174447
talvez,3743.201940441363,-8248.151331919591,6811.001218676713,12126.06723619309,-187500.02235174447,-187500.02235174447,-187500.02235174447,-187500.02235174447
talvez,3801.271772536251,-8270.816000797273,6788.448308521308,12103.201401615312,-187500.02235174447,-187500.02235174447,-187500.02235174447,-187500.02235174447
talvez,3987.2382864044057,-8189.165078302036,7361.994071244487,12008.98879873619,-187500.02235174447,-187500.02235174447,-187500.02235174447,-187500.02235174447
talvez,3982.3432543686936,-8150.027173760793,7432.178548834151,12069.651433187895,-187500.02235174447,-187500.02235174447,-187500.02235174447,-187500.02235174447
talvez,3799.170708557452,-8210.555697745765,6932.907632935958,12132.236317662755,-187500.02235174447,-187500.02235174447,-187500.02235174447,-187500.02235174447
talvez,3781.1775542709297,-8257.87434075765,6763.950796598291,12122.44625359133,-187500.02235174447,-187500.02235174447,-187500.02235174447,-187500.02235174447
talvez,4001.3422371557044,-8222.916212429549,7313.557841009837,12090.3044450646,-187500.02235174447,-187500.02235174447,-187500.02235174447,-187500.02235174447
talvez,4030.84653983671,-8168.065031536225,7471.651729542224,12060.621328427951,-187500.02235174447,-187500.02235174447,-187500.02235174447,-187500.02235174447
talvez,3861.5767790766695,-8172.3789182161,7018.872442111068,12115.897192465925,-187500.02235174447,-187500.02235174447,-187500.02235174447,-187500.02235174447
talvez,3783.4574322053713,-8250.319451131756,6732.166615982845,12139.724152055282,-187500.02235174447,-187500.02235174447,-187500.02235174447,-187500.02235174447
talvez,3997.005998731375,-8235.813168980261,7233.4044853931055,12084.448288017307,-187500.02235174447,-187500.02235174447,-187500.02235174447,-187500.02235174447
talvez,4059.903807628609,-8184.582970688698,7513.002456784542,12084.850619417504,-187500.02235174447,-187500.02235174447,-187500.02235174447,-187500.02235174447
talvez,3888.175354978485,-8199.983322618404,7116.638972358582,12136.572556087083,-187500.02235174447,-187500.02235174447,-187500.02235174447,-187500.02235174447
talvez,3743.5148648637373,-8261.830599526238,6696.269714387622,12128.458872849807,-187500.02235174447,-187500.02235174447,-187500.02235174447,-187500.02235174447
talvez,3951.1849225979954,-8237.131921903125,7131.681696377003,12096.674692234361,-187500.02235174447,-187500.02235174447,-187500.02235174447,-187500.02235174447
talvez,4066.4975722429244,-8175.977549073405,7533.25313726105,12077.988633869725,-187500.02235174447,-187500.02235174447,-187500.02235174447,-187500.02235174447
talvez,3885.4707938993924,-8196.451746994466,7206.962371702478,12113.282038364654,-187500.02235174447,-187500.02235174447,-187500.02235174447,-187500.02235174447
talvez,3749.7733533112237,-8259.796590780807,6728.612688614451,12160.757143587727,-187500.02235174447,-187500.02235174447,-187500.02235174447,-187500.02235174447
talvez,3932.096532833163,-8272.4029746536,7027.433160237451,12108.118785395478,-187500.02235174447,-187500.02235174447,-187500.02235174447,-187500.02235174447
talvez,4124.098017704251,-8210.801566934773,7531.554404682447,12073.2500640452,-187500.02235174447,-187500.02235174447,-187500.02235174447,-187500.02235174447
talvez,3975.2801031208164,-8185.074709066715,7338.815312244334,12110.465718563286,-187500.02235174447,-187500.02235174447,-187500.02235174447,-187500.02235174447
talvez,3775.2766937347287,-8242.473988827944,6782.39098577392,12166.74741110175,-187500.02235174447,-187500.02235174447,-187500.02235174447,-187500.02235174447
talvez,3860.9509302319207,-8292.02780628536,6890.1934492818655,12126.35780887101,-187500.02235174447,-187500.02235174447,-187500.02235174447,-187500.02235174447
talvez,4057.9145023720866,-8247.793704008307,7418.678095183146,12024.411502410354,-187500.02235174447,-187500.02235174447,-187500.02235174447,-187500.02235174447
talvez,3994.6590655635678,-8207.806433177762,7374.309882439361,12089.29861656411,-187500.02235174447,-187500.02235174447,-187500.02235174447,-187500.02235174447
talvez,3786.877249107033,-8248.620718553153,6843.858283026014,12111.091567408033,-187500.02235174447,-187500.02235174447,-187500.02235174447,-187500.02235174447
talvez,3860.5038953428148,-8292.430137685555,6793.2762853236545,12062.789447640116,-187500.02235174447,-187500.02235174447,-187500.02235174447,-187500.02235174447
talvez,4096.471261557492,-8247.369020863654,7364.676280579124,12025.462034399752,-187500.02235174447,-187500.02235174447,-187500.02235174447,-187500.02235174447
talvez,4076.734671203455,-8207.806433177762,7462.7333835045565,12131.319896140087,-187500.02235174447,-187500.02235174447,-187500.02235174447,-187500.02235174447
talvez,3883.906171787521,-8238.763599248363,6967.865761264058,12113.907887209403,-187500.02235174447,-187500.02235174447,-187500.02235174447,-187500.02235174447
talvez,3862.5155523437925,-8297.794556354827,6781.809840418082,12071.77484891115,-187500.02235174447,-187500.02235174447,-187500.02235174447,-187500.02235174447
talvez,4056.171066304573,-8257.851989013194,7324.867823704222,11981.56320828953,-187500.02235174447,-187500.02235174447,-187500.02235174447,-187500.02235174447
talvez,4085.80947945231,-8206.375921532623,7545.367782755827,12050.317174234055,-187500.02235174447,-187500.02235174447,-187500.02235174447,-187500.02235174447
talvez,3894.0538637702307,-8249.403029609088,7090.867411001613,12133.599774074528,-187500.02235174447,-187500.02235174447,-187500.02235174447,-187500.02235174447
talvez,3809.921897640455,-8303.360140724199,6741.017906787147,12054.943985336302,-187500.02235174447,-187500.02235174447,-187500.02235174447,-187500.02235174447
talvez,4031.830016592743,-8278.035614256336,7206.850612980201,11997.723519530717,-187500.02235174447,-187500.02235174447,-187500.02235174447,-187500.02235174447
talvez,4066.251703053916,-8219.898726928082,7532.403770971749,12017.817737796038,-187500.02235174447,-187500.02235174447,-187500.02235174447,-187500.02235174447
talvez,3841.61667127808,-8235.924927702537,7155.016917588344,12065.449305230297,-187500.02235174447,-187500.02235174447,-187500.02235174447,-187500.02235174447
talvez,3679.2312478102745,-8300.387358711643,6704.606915069451,12080.62613971545,-187500.02235174447,-187500.02235174447,-187500.02235174447,-187500.02235174447
talvez,3870.942160003443,-8286.484573660442,7073.008367181822,11989.878057226904,-187500.02235174447,-187500.02235174447,-187500.02235174447,-187500.02235174447
talvez,3962.8301814592105,-8221.396293806589,7484.347520392838,11941.330068269977,-187500.02235174447,-187500.02235174447,-187500.02235174447,-187500.02235174447
talvez,3758.3117196931507,-8227.543023531798,7193.081938395731,11952.975327131191,-187500.02235174447,-187500.02235174447,-187500.02235174447,-187500.02235174447
talvez,3592.528831068138,-8277.63328285614,6696.493231832174,12039.342467706498,-187500.02235174447,-187500.02235174447,-187500.02235174447,-187500.02235174447
talvez,3750.5333126227038,-8274.34757642121,6934.762827725748,12056.843883615004,-187500.02235174447,-187500.02235174447,-187500.02235174447,-187500.02235174447
talvez,3916.807939625733,-8211.449767523976,7465.057964927908,11973.404821563343,-187500.02235174447,-187500.02235174447,-187500.02235174447,-187500.02235174447
talvez,3801.875269636544,-8198.664569695542,7315.591849755269,12001.322150388021,-187500.02235174447,-187500.02235174447,-187500.02235174447,-187500.02235174447
talvez,3622.2790029381517,-8249.604195309186,6786.190782331322,12093.67955847735,-187500.02235174447,-187500.02235174447,-187500.02235174447,-187500.02235174447
talvez,3715.4187220834165,-8274.369928165666,6859.996242522746,12055.05574405858,-187500.02235174447,-187500.02235174447,-187500.02235174447,-187500.02235174447
talvez,3910.7506168783448,-8208.991075633892,7446.081333885352,12002.305627144055,-187500.02235174447,-187500.02235174447,-187500.02235174447,-187500.02235174447
talvez,3845.0811916686525,-8185.4323369779995,7426.836481909333,12033.642772870395,-187500.02235174447,-187500.02235174447,-187500.02235174447,-187500.02235174447
talvez,3610.2090609322863,-8239.545910304298,6840.058486468612,12046.852653843482,-187500.02235174447,-187500.02235174447,-187500.02235174447,-187500.02235174447
talvez,3636.9640990452885,-8262.769372793362,6726.668086846839,12039.118950261945,-187500.02235174447,-187500.02235174447,-187500.02235174447,-187500.02235174447
talvez,3866.047127967731,-8199.111604584647,7305.242992072463,11986.480592069698,-187500.02235174447,-187500.02235174447,-187500.02235174447,-187500.02235174447
talvez,3855.1841801624514,-8158.677298864997,7416.75584515999,12026.66902860034,-187500.02235174447,-187500.02235174447,-187500.02235174447,-187500.02235174447
talvez,3631.443218164828,-8204.85600290966,6920.860042674547,12055.05574405858,-187500.02235174447,-187500.02235174447,-187500.02235174447,-187500.02235174447
talvez,3602.3859503729286,-8242.96572720596,6701.522374334619,12062.543578451106,-187500.02235174447,-187500.02235174447,-187500.02235174447,-187500.02235174447
talvez,3859.207494164407,-8197.926962128517,7265.546293919837,12051.792389368104,-187500.02235174447,-187500.02235174447,-187500.02235174447,-187500.02235174447
talvez,3876.418337394993,-8150.764781327818,7478.401956367727,12019.918801774837,-187500.02235174447,-187500.02235174447,-187500.02235174447,-187500.02235174447
talvez,3669.1282593164756,-8185.409985233544,7043.213491822898,12064.555235452084,-187500.02235174447,-187500.02235174447,-187500.02235174447,-187500.02235174447
talvez,3560.1635050968534,-8264.982195494436,6662.898559915849,12065.62811918594,-187500.02235174447,-187500.02235174447,-187500.02235174447,-187500.02235174447
talvez,3803.9763336153433,-8229.509977043865,7136.755542368358,12024.1879849658,-187500.02235174447,-187500.02235174447,-187500.02235174447,-187500.02235174447
talvez,3900.8934975735547,-8116.834833244662,7497.110366476819,12000.450432354264,-187500.02235174447,-187500.02235174447,-187500.02235174447,-187500.02235174447
talvez,3735.4458851153718,-8128.793016528251,7152.4017634870725,12044.52807242013,-187500.02235174447,-187500.02235174447,-187500.02235174447,-187500.02235174447
talvez,3606.0739882080543,-8205.10187209867,6719.694342576783,12129.35294262802,-187500.02235174447,-187500.02235174447,-187500.02235174447,-187500.02235174447
talvez,3771.9909872997987,-8211.829747179718,7038.318459787186,12033.978049037225,-187500.02235174447,-187500.02235174447,-187500.02235174447,-187500.02235174447
talvez,3902.8604510856217,-8151.435333661478,7479.027805212475,11980.624435022406,-187500.02235174447,-187500.02235174447,-187500.02235174447,-187500.02235174447
talvez,3799.7295021688346,-8142.494635879355,7273.212942268007,12078.078040847546,-187500.02235174447,-187500.02235174447,-187500.02235174447,-187500.02235174447
talvez,3615.439369134828,-8205.124223843124,6743.253081232677,12113.930238953859,-187500.02235174447,-187500.02235174447,-187500.02235174447,-187500.02235174447
talvez,3753.953129524366,-8216.881241426616,6942.071848162634,12079.933235637336,-187500.02235174447,-187500.02235174447,-187500.02235174447,-187500.02235174447
talvez,3935.091666590174,-8145.780342314285,7493.6681978307015,12040.504758418174,-187500.02235174447,-187500.02235174447,-187500.02235174447,-187500.02235174447
talvez,3836.14049388653,-8119.9864292128605,7383.384690688216,12080.402622270898,-187500.02235174447,-187500.02235174447,-187500.02235174447,-187500.02235174447
talvez,3640.67448862487,-8186.3711102451225,6858.3198616885975,12131.990448473745,-187500.02235174447,-187500.02235174447,-187500.02235174447,-187500.02235174447
talvez,3688.0378351256654,-8219.809319950262,6864.801867580637,12090.684424720339,-187500.02235174447,-187500.02235174447,-187500.02235174447,-187500.02235174447
talvez,3917.9478785929537,-8166.56746465772,7426.903537142699,11997.254132897155,-187500.02235174447,-187500.02235174447,-187500.02235174447,-187500.02235174447
talvez,3854.1336481730523,-8133.062199719215,7428.669324954668,12030.33471469101,-187500.02235174447,-187500.02235174447,-187500.02235174447,-187500.02235174447
talvez,3663.137991802453,-8152.284699950779,6947.123342409533,12140.26059392221,-187500.02235174447,-187500.02235174447,-187500.02235174447,-187500.02235174447
talvez,3725.566414066126,-8181.140802042581,6855.637652353961,12146.340268414053,-187500.02235174447,-187500.02235174447,-187500.02235174447,-187500.02235174447
talvez,3906.9508203209425,-8148.484903393377,7376.790926073901,12035.609726382461,-187500.02235174447,-187500.02235174447,-187500.02235174447,-187500.02235174447
talvez,3873.400851893527,-8143.254595190835,7507.772148582,12030.111197246457,-187500.02235174447,-187500.02235174447,-187500.02235174447,-187500.02235174447
talvez,3731.757847280246,-8137.197272443447,7078.216323639909,12142.182843945366,-187500.02235174447,-187500.02235174447,-187500.02235174447,-187500.02235174447
talvez,3668.8600383830117,-8210.935677401505,6729.0597235035575,12119.808747745605,-187500.02235174447,-187500.02235174447,-187500.02235174447,-187500.02235174447
talvez,3871.947988503932,-8202.352607530667,7228.66591556858,12045.19862475379,-187500.02235174447,-187500.02235174447,-187500.02235174447,-187500.02235174447
talvez,3921.68061991699,-8161.024232032804,7532.448474460659,12046.897357332393,-187500.02235174447,-187500.02235174447,-187500.02235174447,-187500.02235174447
talvez,3761.2174464723407,-8154.229301718391,7140.532987181305,12113.371445342476,-187500.02235174447,-187500.02235174447,-187500.02235174447,-187500.02235174447
talvez,3676.817259409101,-8165.896912324061,6791.577552745051,12169.519027414206,-187500.02235174447,-187500.02235174447,-187500.02235174447,-187500.02235174447
talvez,3878.295883929239,-8151.345926683656,7217.4900433409275,12108.230544117754,-187500.02235174447,-187500.02235174447,-187500.02235174447,-187500.02235174447
talvez,3958.44923954597,-8150.13893248307,7605.6951410407,12063.10237206249,-187500.02235174447,-187500.02235174447,-187500.02235174447,-187500.02235174447
talvez,3798.7013219238906,-8173.630615905598,7300.459718759027,12118.154718655911,-187500.02235174447,-187500.02235174447,-187500.02235174447,-187500.02235174447
talvez,3611.0360754771327,-8244.329183617734,6644.994812607148,12119.92050646788,-187500.02235174447,-187500.02235174447,-187500.02235174447,-187500.02235174447
talvez,3779.1882490144076,-8240.238814382412,6953.04655469019,12066.455133730786,-187500.02235174447,-187500.02235174447,-187500.02235174447,-187500.02235174447
talvez,3931.49303573287,-8186.102889311659,7503.637075857768,12038.38134269492,-187500.02235174447,-187500.02235174447,-187500.02235174447,-187500.02235174447
talvez,3807.5079092392816,-8183.890066610583,7270.128401533175,12050.741857378705,-187500.02235174447,-187500.02235174447,-187500.02235174447,-187500.02235174447
talvez,3650.1292765294647,-8229.487625299409,6716.833319286504,12109.258724362699,-187500.02235174447,-187500.02235174447,-187500.02235174447,-187500.02235174447
talvez,3776.08135653512,-8252.241701154911,6879.59872241005,12088.672767719361,-187500.02235174447,-187500.02235174447,-187500.02235174447,-187500.02235174447
talvez,3920.6971431609563,-8200.206840062958,7428.646973210213,12005.256057412154,-187500.02235174447,-187500.02235174447,-187500.02235174447,-187500.02235174447
talvez,3846.8693312250775,-8194.395386504577,7403.769481631456,12031.854633313971,-187500.02235174447,-187500.02235174447,-187500.02235174447,-187500.02235174447
talvez,3656.924206843878,-8253.851026755694,6845.5793673490725,12093.456041032798,-187500.02235174447,-187500.02235174447,-187500.02235174447,-187500.02235174447
talvez,3691.9493904053443,-8313.016094328892,6851.681393585372,12052.708810890772,-187500.02235174447,-187500.02235174447,-187500.02235174447,-187500.02235174447
talvez,3917.456140214937,-8247.994869708404,7389.352606457783,12008.117080702434,-187500.02235174447,-187500.02235174447,-187500.02235174447,-187500.02235174447
talvez,3859.6768807979684,-8207.359398288656,7359.8930072656885,12011.559249348551,-187500.02235174447,-187500.02235174447,-187500.02235174447,-187500.02235174447
talvez,3661.0145760791993,-8247.056096441282,6851.323765674087,12058.05087781559,-187500.02235174447,-187500.02235174447,-187500.02235174447,-187500.02235174447
talvez,3675.6996721863356,-8291.31255046279,6717.883851275904,12052.820569613048,-187500.02235174447,-187500.02235174447,-187500.02235174447,-187500.02235174447
talvez,3903.0169132968085,-8243.591576050709,7303.343093793762,11994.70603402925,-187500.02235174447,-187500.02235174447,-187500.02235174447,-187500.02235174447
talvez,3925.949803107954,-8190.930866114005,7485.845087271344,12008.80998478055,-187500.02235174447,-187500.02235174447,-187500.02235174447,-187500.02235174447
talvez,3717.631544784492,-8245.983212707426,7000.09697676861,12037.643735127895,-187500.02235174447,-187500.02235174447,-187500.02235174447,-187500.02235174447
talvez,3659.896988856434,-8305.997646569926,6702.930534235303,12054.273433002643,-187500.02235174447,-187500.02235174447,-187500.02235174447,-187500.02235174447
talvez,3889.047073012242,-8250.118285431658,7237.070171483776,11996.807098008048,-187500.02235174447,-187500.02235174447,-187500.02235174447,-187500.02235174447
talvez,3949.9555766529534,-8201.994979619381,7532.359067482837,11996.158897418845,-187500.02235174447,-187500.02235174447,-187500.02235174447,-187500.02235174447
talvez,3747.135847465497,-8232.974497434438,7121.2881352052855,12061.783619139627,-187500.02235174447,-187500.02235174447,-187500.02235174447,-187500.02235174447
talvez,3621.496691882216,-8298.956847066504,6693.073414930513,12062.409467984375,-187500.02235174447,-187500.02235174447,-187500.02235174447,-187500.02235174447
$SILENCE,3851.4067353495047,-8272.179457209046,7098.087024460677,11995.778917763106,-187500.02235174447,-187500.02235174447,-187500.02235174447,-187500.02235174447
$SILENCE,3956.4375825449924,-8205.504203498866,7495.523392620492,11978.456315810243,-187500.02235174447,-187500.02235174447,-187500.02235174447,-187500.02235174447
$SILENCE,3807.306743539184,-8215.808357692762,7208.012903691877,12029.217127468244,-187500.02235174447,-187500.02235174447,-187500.02235174447,-187500.02235174447
$SILENCE,3647.3129567280957,-8280.270788701868,6738.559214897063,12067.080982575535,-187500.02235174447,-187500.02235174447,-187500.02235174447,-187500.02235174447
$SILENCE,3811.75474068579,-8251.39233486561,7025.510910214295,12033.419255425842,-187500.02235174447,-187500.02235174447,-187500.02235174447,-187500.02235174447
$SILENCE,3925.614526941124,-8218.222346093935,7479.921874990688,11973.695394241262,-187500.02235174447,-187500.02235174447,-187500.02235174447,-187500.02235174447
$SILENCE,3805.2950865382063,-8213.14850010258,7293.150698322142,12011.358083648454,-187500.02235174447,-187500.02235174447,-187500.02235174447,-187500.02235174447
$SILENCE,3635.600642633515,-8244.575052806742,6768.354090255987,12059.593148183007,-187500.02235174447,-187500.02235174447,-187500.02235174447,-187500.02235174447
$SILENCE,3743.8724927750222,-8274.995777010416,6871.775611850693,12009.636999325396,-187500.02235174447,-187500.02235174447,-187500.02235174447,-187500.02235174447
$SILENCE,3905.073273786697,-8242.116360916658,7379.450783664082,11924.74507388414,-187500.02235174447,-187500.02235174447,-187500.02235174447,-187500.02235174447
$SILENCE,3867.0976599571304,-8176.692804895974,7367.872580036233,12002.082109699502,-187500.02235174447,-187500.02235174447,-187500.02235174447,-187500.02235174447
$SILENCE,3634.5501106441156,-8269.787820552328,6813.079930911056,12043.879871830926,-187500.02235174447,-187500.02235174447,-187500.02235174447,-187500.02235174447
$SILENCE,3681.10879434452,-8312.07732106177,6769.695194923305,11999.3328451315,-187500.02235174447,-187500.02235174447,-187500.02235174447,-187500.02235174447
$SILENCE,3931.850663644155,-8217.507090271365,7383.027062776931,11960.46316152372,-187500.02235174447,-187500.02235174447,-187500.02235174447,-187500.02235174447
$SILENCE,3882.1403839755517,-8192.406081248055,7450.641089754235,11977.539894287574,-187500.02235174447,-187500.02235174447,-187500.02235174447,-187500.02235174447
$SILENCE,3667.697747671336,-8224.212613607957,6944.396429585985,12033.463958914752,-187500.02235174447,-187500.02235174447,-187500.02235174447,-187500.02235174447
$SILENCE,3667.6083406935145,-8245.58088130723,6792.784546945638,12055.905110347881,-187500.02235174447,-187500.02235174447,-187500.02235174447,-187500.02235174447
$SILENCE,3860.436840109449,-8227.207747364968,7245.943814032533,11951.500111997142,-187500.02235174447,-187500.02235174447,-187500.02235174447,-187500.02235174447
$SILENCE,3848.6127672925913,-8208.924020400527,7393.621789648747,11928.209594274711,-187500.02235174447,-187500.02235174447,-187500.02235174447,-187500.02235174447
$SILENCE,3652.990299819744,-8253.716916288962,6969.251569420287,11984.245417624166,-187500.02235174447,-187500.02235174447,-187500.02235174447,-187500.02235174447
$SILENCE,3585.7562524981804,-8287.557457394298,6660.439868025765,12027.09371174499,-187500.02235174447,-187500.02235174447,-187500.02235174447,-187500.02235174447
$SILENCE,3790.207659030874,-8264.803381538795,7138.901309836067,11937.776140901584,-187500.02235174447,-187500.02235174447,-187500.02235174447,-187500.02235174447
$SILENCE,3902.9722098078983,-8190.439127735988,7489.287255917461,11945.956879372226,-187500.02235174447,-187500.02235174447,-187500.02235174447,-187500.02235174447
$SILENCE,3733.9930217257765,-8188.76274690184,7136.442617945983,12006.261885912643,-187500.02235174447,-187500.02235174447,-187500.02235174447,-187500.02235174447
$SILENCE,3601.603639316993,-8234.293250357301,6698.214316155233,12046.115046276456,-187500.02235174447,-187500.02235174447,-187500.02235174447,-187500.02235174447
$SILENCE,3773.846182089589,-8246.005564451882,7037.15616907551,11995.354234618455,-187500.02235174447,-187500.02235174447,-187500.02235174447,-187500.02235174447
$SILENCE,3884.487317143359,-8205.705369198962,7481.486497102559,11917.905440080815,-187500.02235174447,-187500.02235174447,-187500.02235174447,-187500.02235174447
$SILENCE,3727.958050722844,-8191.400252747567,7170.149048584587,11960.932548157281,-187500.02235174447,-187500.02235174447,-187500.02235174447,-187500.02235174447
$SILENCE,3553.033298615611,-8274.504038632398,6672.576865264996,12001.433909110297,-187500.02235174447,-187500.02235174447,-187500.02235174447,-187500.02235174447
$SILENCE,3716.2904401171736,-8268.849047285205,6923.519900264729,11981.94318794527,-187500.02235174447,-187500.02235174447,-187500.02235174447,-187500.02235174447
$SILENCE,3904.715645875412,-8196.183526061002,7435.777179691456,11936.904422867827,-187500.02235174447,-187500.02235174447,-187500.02235174447,-187500.02235174447
$SILENCE,3784.5079641947705,-8169.204970503447,7298.3810065246835,11980.199751877755,-187500.02235174447,-187500.02235174447,-187500.02235174447,-187500.02235174447
$SILENCE,3579.2518948616857,-8226.716008986952,6753.959566826769,12035.252098471177,-187500.02235174447,-187500.02235174447,-187500.02235174447,-187500.02235174447
$SILENCE,3663.8085441361127,-8261.92000650406,6812.096454155023,11997.075318941514,-187500.02235174447,-187500.02235174447,-187500.02235174447,-187500.02235174447
$SILENCE,3887.10247124463,-8191.5343632142985,7398.248600750995,11949.421399762798,-187500.02235174447,-187500.02235174447,-187500.02235174447,-187500.02235174447
$SILENCE,3782.27278974924,-8197.636389450598,7313.311971820828,11936.636201934363,-187500.02235174447,-187500.02235174447,-187500.02235174447,-187500.02235174447
$SILENCE,3592.6852932793254,-8228.504148543376,6799.735939471238,12001.053929454558,-187500.02235174447,-187500.02235174447,-187500.02235174447,-187500.02235174447
$SILENCE,3633.521930399171,-8259.707183802984,6727.85272930297,12001.679778299305,-187500.02235174447,-187500.02235174447,-187500.02235174447,-187500.02235174447
$SILENCE,3847.76340100329,-8217.462386782454,7298.313951291318,11943.118207826401,-187500.02235174447,-187500.02235174447,-187500.02235174447,-187500.02235174447
$SILENCE,3836.296956097717,-8168.109735025137,7416.42056899316,11970.342632572965,-187500.02235174447,-187500.02235174447,-187500.02235174447,-187500.02235174447
$SILENCE,3629.8785960529563,-8199.849212151672,6925.218632843332,12017.147185462378,-187500.02235174447,-187500.02235174447,-187500.02235174447,-187500.02235174447
$SILENCE,3588.3714065994513,-8247.369020863654,6688.290141617077,12023.964467521248,-187500.02235174447,-187500.02235174447,-187500.02235174447,-187500.02235174447
$SILENCE,3808.8043104176895,-8222.133901373614,7218.42881660805,11954.517597498609,-187500.02235174447,-187500.02235174447,-187500.02235174447,-187500.02235174447
$SILENCE,3855.653566796013,-8167.930921069494,7450.752848476512,11957.311565555521,-187500.02235174447,-187500.02235174447,-187500.02235174447,-187500.02235174447
$SILENCE,3671.7434134177465,-8184.3818049886,7024.415674735985,12011.738063304194,-187500.02235174447,-187500.02235174447,-187500.02235174447,-187500.02235174447
$SILENCE,3553.6814992048144,-8252.465218599466,6652.862626655416,12019.337656418998,-187500.02235174447,-187500.02235174447,-187500.02235174447,-187500.02235174447
$SILENCE,3765.956016296866,-8225.374904319633,7107.921792021012,11956.976289388693,-187500.02235174447,-187500.02235174447,-187500.02235174447,-187500.02235174447
$SILENCE,3870.6068838366136,-8152.284699950779,7480.883000002265,11952.103609097436,-187500.02235174447,-187500.02235174447,-187500.02235174447,-187500.02235174447
$SILENCE,3690.496527015749,-8177.944502585471,7126.943126552478,12000.159859676345,-187500.02235174447,-187500.02235174447,-187500.02235174447,-187500.02235174447
$SILENCE,3534.548405951072,-8245.335012118223,6632.902518856826,12025.640848355395,-187500.02235174447,-187500.02235174447,-187500.02235174447,-187500.02235174447
$SILENCE,3725.3876001104836,-8236.707238758474,6974.168953200455,11968.46508603872,-187500.02235174447,-187500.02235174447,-187500.02235174447,-187500.02235174447
$SILENCE,3872.327968159672,-8174.122354283614,7441.253357083006,11940.681867680772,-187500.02235174447,-187500.02235174447,-187500.02235174447,-187500.02235174447
$SILENCE,3721.990134953277,-8177.51981944082,7208.147014158609,11981.674967011806,-187500.02235174447,-187500.02235174447,-187500.02235174447,-187500.02235174447
$SILENCE,3534.280185017608,-8231.074599155736,6693.475746330709,12029.462996657252,-187500.02235174447,-187500.02235174447,-187500.02235174447,-187500.02235174447
$SILENCE,3681.086442600065,-8248.307794130778,6879.129335776489,11985.810039736038,-187500.02235174447,-187500.02235174447,-187500.02235174447,-187500.02235174447
$SILENCE,3904.782701108778,-8187.153421301058,7445.746057718523,11944.995754360647,-187500.02235174447,-187500.02235174447,-187500.02235174447,-187500.02235174447
$SILENCE,3793.4486619768936,-8163.795848345262,7305.757082194935,11973.762449474627,-187500.02235174447,-187500.02235174447,-187500.02235174447,-187500.02235174447
$SILENCE,3582.761118741169,-8213.729645458418,6754.317194738054,12019.114138974446,-187500.02235174447,-187500.02235174447,-187500.02235174447,-187500.02235174447
$SILENCE,3661.863942368501,-8238.763599248363,6802.820480206071,12003.244400411177,-187500.02235174447,-187500.02235174447,-187500.02235174447,-187500.02235174447
$SILENCE,3855.3853458625495,-8189.8356306356945,7329.092303406275,11952.260071308621,-187500.02235174447,-187500.02235174447,-187500.02235174447,-187500.02235174447
$SILENCE,3790.8335078756227,-8157.403249431044,7349.208873416052,11983.641920523873,-187500.02235174447,-187500.02235174447,-187500.02235174447,-187500.02235174447
$SILENCE,3596.5521450700935,-8184.270046266323,6840.192596935344,12045.086866031512,-187500.02235174447,-187500.02235174447,-187500.02235174447,-187500.02235174447
$SILENCE,3598.340284626518,-8237.646012025596,6703.712845291239,12021.461072142252,-187500.02235174447,-187500.02235174447,-187500.02235174447,-187500.02235174447
$SILENCE,3799.0365980907204,-8199.156308073558,7263.400526452127,11947.208577061723,-187500.02235174447,-187500.02235174447,-187500.02235174447,-187500.02235174447
$SILENCE,3802.299952781195,-8148.931938282483,7410.139728801219,11966.878112182392,-187500.02235174447,-187500.02235174447,-187500.02235174447,-187500.02235174447
$SILENCE,3608.7785492871467,-8189.299188768768,6930.806568957159,12007.871211513426,-187500.02235174447,-187500.02235174447,-187500.02235174447,-187500.02235174447
$SILENCE,3565.9749586552334,-8237.19897713649,6661.579806992985,12017.840089540494,-187500.02235174447,-187500.02235174447,-187500.02235174447,-187500.02235174447
$SILENCE,3798.2542870347843,-8201.324427285723,7182.129583612631,11951.343649785955,-187500.02235174447,-187500.02235174447,-187500.02235174447,-187500.02235174447
$SILENCE,3838.2192061208734,-8149.937766782972,7438.057057625897,11943.229966548679,-187500.02235174447,-187500.02235174447,-187500.02235174447,-187500.02235174447
$SILENCE,3648.6764131398695,-8168.33325246969,7040.955965632912,12010.687531314796,-187500.02235174447,-187500.02235174447,-187500.02235174447,-187500.02235174447
$SILENCE,3555.8049149280687,-8214.355494303167,6644.637184695863,12050.116008533956,-187500.02235174447,-187500.02235174447,-187500.02235174447,-187500.02235174447
$SILENCE,3765.0619465186533,-8197.122299328124,7067.621596768093,11979.79742047756,-187500.02235174447,-187500.02235174447,-187500.02235174447,-187500.02235174447
$SILENCE,3845.170598646474,-8154.452819162944,7438.749961704012,11947.163873572812,-187500.02235174447,-187500.02235174447,-187500.02235174447,-187500.02235174447
$SILENCE,3699.2584108422293,-8155.905682552539,7137.090818535187,12007.871211513426,-187500.02235174447,-187500.02235174447,-187500.02235174447,-187500.02235174447
$SILENCE,3548.764115424647,-8206.644142466086,6670.162876863823,12048.014944555158,-187500.02235174447,-187500.02235174447,-187500.02235174447,-187500.02235174447
$SILENCE,3700.8006812096455,-8211.941505901994,6958.1651041704545,11983.016071679125,-187500.02235174447,-187500.02235174447,-187500.02235174447,-187500.02235174447
$SILENCE,3849.1492091595187,-8144.662755091519,7440.471046027071,11955.702239954739,-187500.02235174447,-187500.02235174447,-187500.02235174447,-187500.02235174447
$SILENCE,3724.1806059098967,-8130.715266551408,7239.685325585047,12001.076281199013,-187500.02235174447,-187500.02235174447,-187500.02235174447,-187500.02235174447
$SILENCE,3551.826304415024,-8187.153421301058,6721.437778644297,12051.457113201275,-187500.02235174447,-187500.02235174447,-187500.02235174447,-187500.02235174447
$SILENCE,3675.8114309086122,-8205.928886643516,6870.322748461098,12014.867307527937,-187500.02235174447,-187500.02235174447,-187500.02235174447,-187500.02235174447
$SILENCE,3859.296901142228,-8139.99124050036,7406.339932243816,11963.659460980829,-187500.02235174447,-187500.02235174447,-187500.02235174447,-187500.02235174447
$SILENCE,3770.7392896103015,-8120.724036779886,7316.709436978035,12001.56801957703,-187500.02235174447,-187500.02235174447,-187500.02235174447,-187500.02235174447
$SILENCE,3563.158638853865,-8171.216627504424,6785.833154420037,12060.844845872503,-187500.02235174447,-187500.02235174447,-187500.02235174447,-187500.02235174447
$SILENCE,3611.7736830441577,-8204.14074708709,6773.137363569423,12040.705924118272,-187500.02235174447,-187500.02235174447,-187500.02235174447,-187500.02235174447
$SILENCE,3852.300805127717,-8144.394534158056,7353.679222307113,11986.033557180592,-187500.02235174447,-187500.02235174447,-187500.02235174447,-187500.02235174447
$SILENCE,3809.072531351153,-8106.083644161659,7399.232077507028,12012.676836571318,-187500.02235174447,-187500.02235174447,-187500.02235174447,-187500.02235174447
$SILENCE,3595.143985169409,-8149.8036563162395,6897.278952274198,12081.810782171582,-187500.02235174447,-187500.02235174447,-187500.02235174447,-187500.02235174447
$SILENCE,3573.0604616475657,-8193.076633581715,6714.128758207412,12065.114029063467,-187500.02235174447,-187500.02235174447,-187500.02235174447,-187500.02235174447
$SILENCE,3817.141511099519,-8147.501426637344,7284.858201129223,12010.933400503804,-187500.02235174447,-187500.02235174447,-187500.02235174447,-187500.02235174447
$SILENCE,3846.8693312250775,-8104.384911583056,7479.296026145938,12020.410540152854,-187500.02235174447,-187500.02235174447,-187500.02235174447,-187500.02235174447
$SILENCE,3638.729886857258,-8131.877557263084,6960.959072227368,12080.648491459906,-187500.02235174447,-187500.02235174447,-187500.02235174447,-187500.02235174447
$SILENCE,3583.4987263081944,-8186.304055011757,6651.700335943739,12076.24519780221,-187500.02235174447,-187500.02235174447,-187500.02235174447,-187500.02235174447
$SILENCE,3804.2892580377174,-8160.845418077161,7161.364813013651,12007.558287091051,-187500.02235174447,-187500.02235174447,-187500.02235174447,-187500.02235174447
$SILENCE,3846.757572502801,-8096.5618010236985,7485.621569826791,12028.703037345773,-187500.02235174447,-187500.02235174447,-187500.02235174447,-187500.02235174447
$SILENCE,3622.502520382705,-8111.403359342023,7105.798376297757,12104.028416160158,-187500.02235174447,-187500.02235174447,-187500.02235174447,-187500.02235174447
$SILENCE,3497.064530499522,-8172.043642049271,6680.332920590988,12117.30535236661,-187500.02235174447,-187500.02235174447,-187500.02235174447,-187500.02235174447
$SILENCE,3688.663683970414,-8151.927072039494,7080.049166685244,12059.414334227364,-187500.02235174447,-187500.02235174447,-187500.02235174447,-187500.02235174447
$SILENCE,3740.0279927287097,-8100.60746677011,7471.42821209767,12024.165633221344,-187500.02235174447,-187500.02235174447,-187500.02235174447,-187500.02235174447
$SILENCE,3635.108904255498,-8108.050597673727,7162.638862447604,12045.57860440953,-187500.02235174447,-187500.02235174447,-187500.02235174447,-187500.02235174447
$SILENCE,3595.054578191588,-8164.958139056938,6660.08224011448,12069.584377954528,-187500.02235174447,-187500.02235174447,-187500.02235174447,-187500.02235174447
$SILENCE,3768.660577375958,-8175.910493840039,6935.969821926335,12026.445511155785,-187500.02235174447,-187500.02235174447,-187500.02235174447,-187500.02235174447
$SILENCE,3846.802275991711,-8118.019475700793,7441.990964650031,12004.406691122853,-187500.02235174447,-187500.02235174447,-187500.02235174447,-187500.02235174447
$SILENCE,3754.4448679023826,-8104.586077283154,7286.087547074265,12067.438610486819,-187500.02235174447,-187500.02235174447,-187500.02235174447,-187500.02235174447
$SILENCE,3525.115969790932,-8157.85028432015,6720.789578055093,12099.669825991372,-187500.02235174447,-187500.02235174447,-187500.02235174447,-187500.02235174447
$SILENCE,3648.9893375622437,-8186.438165478488,6829.933146230358,12058.609671426973,-187500.02235174447,-187500.02235174447,-187500.02235174447,-187500.02235174447
$SILENCE,3829.166749616474,-8126.84841476064,7398.382711217727,12014.75554880566,-187500.02235174447,-187500.02235174447,-187500.02235174447,-187500.02235174447
$SILENCE,3741.659670073947,-8098.640513258042,7337.049524432365,12039.141302006401,-187500.02235174447,-187500.02235174447,-187500.02235174447,-187500.02235174447
$SILENCE,3519.3715714659184,-8139.432446888977,6814.577497789562,12114.287866865143,-187500.02235174447,-187500.02235174447,-187500.02235174447,-187500.02235174447
$SILENCE,3577.1955343717977,-8176.402232218055,6752.506703437174,12086.258779318188,-187500.02235174447,-187500.02235174447,-187500.02235174447,-187500.02235174447
$SILENCE,3846.779924247256,-8133.688048563964,7317.134120122686,12005.770147534628,-187500.02235174447,-187500.02235174447,-187500.02235174447,-187500.02235174447
$SILENCE,3852.099639427619,-8109.637571530053,7394.046472793398,12021.95281052027,-187500.02235174447,-187500.02235174447,-187500.02235174447,-187500.02235174447
$SILENCE,3624.0671424945767,-8148.194330715458,6902.062225587634,12093.2548753327,-187500.02235174447,-187500.02235174447,-187500.02235174447,-187500.02235174447
$SILENCE,3567.114897622454,-8188.695691668474,6700.382435367398,12112.790299986638,-187500.02235174447,-187500.02235174447,-187500.02235174447,-187500.02235174447
$SILENCE,3783.971522327843,-8149.826008060695,7241.920500030577,12046.33856372101,-187500.02235174447,-187500.02235174447,-187500.02235174447,-187500.02235174447
$SILENCE,3818.9296506559435,-8103.93787669395,7438.861720426288,12032.793406581093,-187500.02235174447,-187500.02235174447,-187500.02235174447,-187500.02235174447
$SILENCE,3638.953404301811,-8125.037923459759,7002.376854703052,12089.902113664402,-187500.02235174447,-187500.02235174447,-187500.02235174447,-187500.02235174447
$SILENCE,3546.0372026010996,-8179.263255508335,6669.313510574521,12107.895267950926,-187500.02235174447,-187500.02235174447,-187500.02235174447,-187500.02235174447
$SILENCE,3736.9434519938773,-8157.738525597874,7141.337649981696,12041.756456107672,-187500.02235174447,-187500.02235174447,-187500.02235174447,-187500.02235174447
$SILENCE,3820.5389762567256,-8106.821251728685,7463.068659671386,12026.423159411332,-187500.02235174447,-187500.02235174447,-187500.02235174447,-187500.02235174447
$SILENCE,3672.1904483068524,-8122.579231569676,7103.742015807869,12080.2014565708,-187500.02235174447,-187500.02235174447,-187500.02235174447,-187500.02235174447
$SILENCE,3565.5949789994934,-8174.4576304504435,6706.439758114786,12115.852488977014,-187500.02235174447,-187500.02235174447,-187500.02235174447,-187500.02235174447
$SILENCE,3714.0329139271876,-8167.685051880486,7036.977355119867,12069.62908144344,-187500.02235174447,-187500.02235174447,-187500.02235174447,-187500.02235174447
$SILENCE,3836.051086908709,-8111.671580275486,7448.85295019781,12034.961525793258,-187500.02235174447,-187500.02235174447,-187500.02235174447,-187500.02235174447
$SILENCE,3701.3147713321177,-8113.660885532008,7195.406519819084,12083.464811261274,-187500.02235174447,-187500.02235174447,-187500.02235174447,-187500.02235174447
$SILENCE,3557.8389236735015,-8173.161229272036,6689.117156161923,12111.270381363676,-187500.02235174447,-187500.02235174447,-187500.02235174447,-187500.02235174447
$SILENCE,3712.0883121595757,-8186.460517222944,6907.538402979184,12053.602880668985,-187500.02235174447,-187500.02235174447,-187500.02235174447,-187500.02235174447
$SILENCE,3856.6370435520466,-8119.829967001673,7435.821883180366,12024.769130321638,-187500.02235174447,-187500.02235174447,-187500.02235174447,-187500.02235174447
$SILENCE,3730.9755362243104,-8100.808632470207,7299.811518169823,12084.671805461861,-187500.02235174447,-187500.02235174447,-187500.02235174447,-187500.02235174447
$SILENCE,3547.7582869241583,-8155.168074985514,6764.464886720763,12126.894250737936,-187500.02235174447,-187500.02235174447,-187500.02235174447,-187500.02235174447
$SILENCE,3647.558825917104,-8185.275874766812,6826.401570606419,12091.86906717647,-187500.02235174447,-187500.02235174447,-187500.02235174447,-187500.02235174447
$SILENCE,3849.663299281991,-8128.770664783796,7382.535324398915,12033.2404414702,-187500.02235174447,-187500.02235174447,-187500.02235174447,-187500.02235174447
$SILENCE,3774.561437912159,-8109.145833152036,7345.6325943032025,12043.566947408552,-187500.02235174447,-187500.02235174447,-187500.02235174447,-187500.02235174447
$SILENCE,3582.3587873409733,-8144.349830669145,6837.309221900609,12108.67757900686,-187500.02235174447,-187500.02235174447,-187500.02235174447,-187500.02235174447
$SILENCE,3629.0292297636547,-8182.772479387818,6751.657337147873,12102.530849281651,-187500.02235174447,-187500.02235174447,-187500.02235174447,-187500.02235174447
$SILENCE,3856.838209252144,-8139.968888755905,7316.485919533482,12034.603897881974,-187500.02235174447,-187500.02235174447,-187500.02235174447,-187500.02235174447
$SILENCE,3837.4368950649377,-8100.138080136548,7420.354476017294,12051.233595756721,-187500.02235174447,-187500.02235174447,-187500.02235174447,-187500.02235174447
$SILENCE,3613.9418022563223,-8135.833816031673,6930.560699768151,12113.885535464948,-187500.02235174447,-187500.02235174447,-187500.02235174447,-187500.02235174447
$SILENCE,3577.3072930940743,-8187.153421301058,6684.870324715415,12103.313160337588,-187500.02235174447,-187500.02235174447,-187500.02235174447,-187500.02235174447
