WORD,Channel_1,Channel_2,Channel_3,Channel_4,Channel_5,Channel_6,Channel_7,Channel_8
não,14569.381126091615,-14591.129373446629,-22381.3828684548,-6721.773054811127,-187500.02235174447,-187500.02235174447,-187500.02235174447,-187500.02235174447
não,14568.129428402119,-14616.27508595885,-22319.580295035877,-6738.961546297258,-187500.02235174447,-187500.02235174447,-187500.02235174447,-187500.02235174447
não,14450.268679889285,-14667.415877272591,-22671.575566718053,-6754.786581371615,-187500.02235174447,-187500.02235174447,-187500.02235174447,-187500.02235174447
não,14465.24434867434,-14643.030124071853,-22708.54535204713,-6684.758565993138,-187500.02235174447,-187500.02235174447,-187500.02235174447,-187500.02235174447
não,14579.439411096504,-14604.94275152001,-22404.963958855147,-6650.560396976519,-187500.02235174447,-187500.02235174447,-187500.02235174447,-187500.02235174447
não,14596.98553049392,-14596.31497816026,-22276.687297426142,-6701.9470574792695,-187500.02235174447,-187500.02235174447,-187500.02235174447,-187500.02235174447
não,14481.762287826812,-14635.609344912691,-22598.351251882465,-6741.196720742789,-187500.02235174447,-187500.02235174447,-187500.02235174447,-187500.02235174447
não,14462.830360273167,-14632.725969877956,-22718.335416118553,-6676.086089144479,-187500.02235174447,-187500.02235174447,-187500.02235174447,-187500.02235174447
não,14549.175149104018,-14604.585123608724,-22466.051276451504,-6684.8032694820495,-187500.02235174447,-187500.02235174447,-187500.02235174447,-187500.02235174447
não,14594.012748481364,-14602.439356141014,-22268.238338022034,-6678.969464179214,-187500.02235174447,-187500.02235174447,-187500.02235174447,-187500.02235174447
não,14489.563046641713,-14663.079638848263,-22539.27559128709,-6710.127795949912,-187500.02235174447,-187500.02235174447,-187500.02235174447,-187500.02235174447
não,14446.468883331881,-14647.545176451824,-22740.374236151485,-6727.517453136141,-187500.02235174447,-187500.02235174447,-187500.02235174447,-187500.02235174447
não,14516.92158185501,-14609.904838789087,-22541.086082587968,-6708.026731971113,-187500.02235174447,-187500.02235174447,-187500.02235174447,-187500.02235174447
não,14573.739716260401,-14599.913609017565,-22294.211065079104,-6735.318211951043,-187500.02235174447,-187500.02235174447,-187500.02235174447,-187500.02235174447
não,14481.605825615625,-14644.684153161545,-22497.50018090012,-6779.3064450390875,-187500.02235174447,-187500.02235174447,-187500.02235174447,-187500.02235174447
não,14422.261944086784,-14639.923231592564,-22761.139006750465,-6728.925613036825,-187500.02235174447,-187500.02235174447,-187500.02235174447,-187500.02235174447
não,14499.040186290764,-14606.105042231686,-22587.018917443624,-6666.720708217706,-187500.02235174447,-187500.02235174447,-187500.02235174447,-187500.02235174447
não,14583.730946031923,-14590.41411762406,-22285.739753930542,-6662.69739421575,-187500.02235174447,-187500.02235174447,-187500.02235174447,-187500.02235174447
não,14529.706779683445,-14628.814414598277,-22403.86872337684,-6715.559269852552,-187500.02235174447,-187500.02235174447,-187500.02235174447,-187500.02235174447
não,14442.378514096561,-14650.003868341908,-22719.58711380805,-6732.412485171853,-187500.02235174447,-187500.02235174447,-187500.02235174447,-187500.02235174447
não,14483.349261683139,-14625.349894207704,-22637.019769790146,-6701.142394678878,-187500.02235174447,-187500.02235174447,-187500.02235174447,-187500.02235174447
não,14571.437486581504,-14598.773670050345,-22328.36453060681,-6687.574885794507,-187500.02235174447,-187500.02235174447,-187500.02235174447,-187500.02235174447
não,14537.172262331518,-14628.479138431447,-22352.683228574184,-6723.8964705343815,-187500.02235174447,-187500.02235174447,-187500.02235174447,-187500.02235174447
não,14429.973295923864,-14662.744362681433,-22702.420974066375,-6725.930479279814,-187500.02235174447,-187500.02235174447,-187500.02235174447,-187500.02235174447
não,14455.342525880638,-14633.37417046716,-22689.30050007111,-6690.972350951713,-187500.02235174447,-187500.02235174447,-187500.02235174447,-187500.02235174447
não,14556.417114307538,-14592.403422880581,-22378.208920742145,-6672.174533864801,-187500.02235174447,-187500.02235174447,-187500.02235174447,-187500.02235174447
não,14539.049808865764,-14616.208030725484,-22326.08465267237,-6728.1880054698,-187500.02235174447,-187500.02235174447,-187500.02235174447,-187500.02235174447
não,14424.787691210235,-14656.530577722859,-22667.932232371837,-6741.196720742789,-187500.02235174447,-187500.02235174447,-187500.02235174447,-187500.02235174447
não,14449.62047930008,-14635.341123979226,-22715.362634105997,-6685.585580537985,-187500.02235174447,-187500.02235174447,-187500.02235174447,-187500.02235174447
não,14565.201349878473,-14592.135201947118,-22413.032938603516,-6655.187208078767,-187500.02235174447,-187500.02235174447,-187500.02235174447,-187500.02235174447
não,14575.594911050192,-14606.708539331978,-22273.222777035568,-6709.591354082984,-187500.02235174447,-187500.02235174447,-187500.02235174447,-187500.02235174447
não,14446.58064205416,-14640.906708348599,-22605.45910661925,-6725.885775790904,-187500.02235174447,-187500.02235174447,-187500.02235174447,-187500.02235174447
não,14439.897470462021,-14636.637525157634,-22740.955381507323,-6698.281371388599,-187500.02235174447,-187500.02235174447,-187500.02235174447,-187500.02235174447
não,14542.53668100079,-14600.137126462118,-22474.321421899967,-6672.152182120345,-187500.02235174447,-187500.02235174447,-187500.02235174447,-187500.02235174447
não,14603.93692301952,-14595.219742681951,-22244.612544132775,-6676.667234500317,-187500.02235174447,-187500.02235174447,-187500.02235174447,-187500.02235174447
não,14485.115049495107,-14635.6540484016,-22527.3174080035,-6734.267679961644,-187500.02235174447,-187500.02235174447,-187500.02235174447,-187500.02235174447
não,14431.582621524647,-14644.930022350554,-22743.950515264336,-6697.007321954647,-187500.02235174447,-187500.02235174447,-187500.02235174447,-187500.02235174447
não,14507.19857301695,-14602.975798007941,-22538.292114531054,-6649.085181842468,-187500.02235174447,-187500.02235174447,-187500.02235174447,-187500.02235174447
não,14562.563844032748,-14599.332463661727,-22292.02059412248,-6707.624400570918,-187500.02235174447,-187500.02235174447,-187500.02235174447,-187500.02235174447
não,14478.43187790297,-14637.844519358221,-22489.96764301868,-6772.444459491308,-187500.02235174447,-187500.02235174447,-187500.02235174447,-187500.02235174447
não,14420.13852836353,-14658.497531234925,-22750.857204301024,-6730.601993870973,-187500.02235174447,-187500.02235174447,-187500.02235174447,-187500.02235174447
não,14494.078099021686,-14609.346045177705,-22590.84106574548,-6677.203676367245,-187500.02235174447,-187500.02235174447,-187500.02235174447,-187500.02235174447
não,14579.238245396406,-14590.950559490986,-22296.490943013545,-6683.8644962149265,-187500.02235174447,-187500.02235174447,-187500.02235174447,-187500.02235174447
não,14528.477433738404,-14623.60645814019,-22394.52569419452,-6725.1258164794235,-187500.02235174447,-187500.02235174447,-187500.02235174447,-187500.02235174447
não,14439.293973361728,-14651.054400331308,-22722.26932314269,-6714.396979140875,-187500.02235174447,-187500.02235174447,-187500.02235174447,-187500.02235174447
não,14478.34247092515,-14620.007827282887,-22647.458034450774,-6665.580769250485,-187500.02235174447,-187500.02235174447,-187500.02235174447,-187500.02235174447
não,14569.470533069436,-14586.279044899828,-22325.212934638614,-6633.036629323558,-187500.02235174447,-187500.02235174447,-187500.02235174447,-187500.02235174447
não,14553.287870083794,-14617.45972841498,-22324.050643926937,-6674.387356565876,-187500.02235174447,-187500.02235174447,-187500.02235174447,-187500.02235174447
não,14448.055857188208,-14655.971784111474,-22679.30927029959,-6709.904278505359,-187500.02235174447,-187500.02235174447,-187500.02235174447,-187500.02235174447
não,14459.030563715765,-14617.124452248152,-22693.63673849544,-6706.998551726169,-187500.02235174447,-187500.02235174447,-187500.02235174447,-187500.02235174447
não,14551.231509593907,-14577.114829673152,-22398.549008196474,-6715.38045589691,-187500.02235174447,-187500.02235174447,-187500.02235174447,-187500.02235174447
não,14550.315088071238,-14597.991358994408,-22313.344158332846,-6747.85754059047,-187500.02235174447,-187500.02235174447,-187500.02235174447,-187500.02235174447
não,14435.114197148587,-14652.864891632187,-22648.597973417996,-6737.173406740833,-187500.02235174447,-187500.02235174447,-187500.02235174447,-187500.02235174447
não,14446.223014142874,-14646.584051440246,-22717.9107329739,-6689.832411984493,-187500.02235174447,-187500.02235174447,-187500.02235174447,-187500.02235174447
não,14541.21792807793,-14599.60068459519,-22438.133947626826,-6666.810115195527,-187500.02235174447,-187500.02235174447,-187500.02235174447,-187500.02235174447
não,14570.901044714576,-14585.809658266266,-22275.010916591993,-6703.221106913222,-187500.02235174447,-187500.02235174447,-187500.02235174447,-187500.02235174447
não,14455.186063669451,-14643.834786872243,-22590.70695527875,-6754.630119160428,-187500.02235174447,-187500.02235174447,-187500.02235174447,-187500.02235174447
não,14428.56513602318,-14637.062208302284,-22745.671599587393,-6708.741987793683,-187500.02235174447,-187500.02235174447,-187500.02235174447,-187500.02235174447
não,14524.185898802985,-14598.12546946114,-22503.35633794741,-6676.778993222594,-187500.02235174447,-187500.02235174447,-187500.02235174447,-187500.02235174447
não,14582.07691694223,-14598.438393883514,-22274.07214332487,-6701.902353990359,-187500.02235174447,-187500.02235174447,-187500.02235174447,-187500.02235174447
não,14473.961529011909,-14659.27984229086,-22533.330027261978,-6727.629211858418,-187500.02235174447,-187500.02235174447,-187500.02235174447,-187500.02235174447
não,14440.411560584495,-14657.446999245525,-22748.420864155396,-6686.054967171546,-187500.02235174447,-187500.02235174447,-187500.02235174447,-187500.02235174447
não,14510.663093407524,-14607.26733294336,-22553.60305948294,-6674.856743199438,-187500.02235174447,-187500.02235174447,-187500.02235174447,-187500.02235174447
não,14575.304338372272,-14585.36262337716,-22278.676602682663,-6698.214316155233,-187500.02235174447,-187500.02235174447,-187500.02235174447,-187500.02235174447
não,14497.319101967705,-14620.432510427538,-22454.00368619009,-6743.163674254856,-187500.02235174447,-187500.02235174447,-187500.02235174447,-187500.02235174447
não,14419.244458585317,-14644.125359550162,-22754.053503758136,-6733.731238094716,-187500.02235174447,-187500.02235174447,-187500.02235174447,-187500.02235174447
não,14483.8186483167,-14605.278027686838,-22605.347347896975,-6675.437888555275,-187500.02235174447,-187500.02235174447,-187500.02235174447,-187500.02235174447
não,14576.109001172663,-14586.45785885547,-22295.619224979786,-6669.2241035967,-187500.02235174447,-187500.02235174447,-187500.02235174447,-187500.02235174447
não,14525.214079047928,-14620.700731361001,-22386.836694101894,-6716.498043119675,-187500.02235174447,-187500.02235174447,-187500.02235174447,-187500.02235174447
não,14426.553479022203,-14647.209900284995,-22721.062328942102,-6708.026731971113,-187500.02235174447,-187500.02235174447,-187500.02235174447,-187500.02235174447
não,14484.243331461352,-14615.381016180638,-22644.976990816234,-6654.248434811644,-187500.02235174447,-187500.02235174447,-187500.02235174447,-187500.02235174447
não,14561.312146343249,-14581.07108844174,-22345.128338948292,-6655.835408667971,-187500.02235174447,-187500.02235174447,-187500.02235174447,-187500.02235174447
não,14544.481282768404,-14607.021463754352,-22336.701731288642,-6703.6457900578735,-187500.02235174447,-187500.02235174447,-187500.02235174447,-187500.02235174447
não,14442.04323792973,-14645.33235375075,-22683.62315697946,-6714.061702974046,-187500.02235174447,-187500.02235174447,-187500.02235174447,-187500.02235174447
não,14462.33862189515,-14621.259524972384,-22696.006023407703,-6669.335862318977,-187500.02235174447,-187500.02235174447,-187500.02235174447,-187500.02235174447
não,14557.825274208222,-14586.12258268864,-22389.00481331406,-6654.449600511743,-187500.02235174447,-187500.02235174447,-187500.02235174447,-187500.02235174447
não,14557.400591063571,-14614.352835935693,-22285.627995208266,-6693.207525397244,-187500.02235174447,-187500.02235174447,-187500.02235174447,-187500.02235174447
não,14444.546633308726,-14653.066057332286,-22619.71951958174,-6708.674932560317,-187500.02235174447,-187500.02235174447,-187500.02235174447,-187500.02235174447
não,14422.105481875597,-14642.001943826908,-22739.97190475129,-6685.160897393334,-187500.02235174447,-187500.02235174447,-187500.02235174447,-187500.02235174447
não,14527.359846515637,-14607.669664343557,-22470.476921853653,-6655.254263312133,-187500.02235174447,-187500.02235174447,-187500.02235174447,-187500.02235174447
não,14577.830085495722,-14605.03215849783,-22268.506558955498,-6680.578789779996,-187500.02235174447,-187500.02235174447,-187500.02235174447,-187500.02235174447
não,14484.332738439172,-14632.144824522118,-22567.997582912158,-6699.913048733837,-187500.02235174447,-187500.02235174447,-187500.02235174447,-187500.02235174447
não,14417.881002173544,-14686.079583892773,-22756.467492159307,-6707.892621504381,-187500.02235174447,-187500.02235174447,-187500.02235174447,-187500.02235174447
não,14538.848643165666,-14637.486891446935,-22438.938610427216,-6607.555640644508,-187500.02235174447,-187500.02235174447,-187500.02235174447,-187500.02235174447
não,14605.054510242286,-14586.055527455275,-22227.222886946547,-6628.45452171022,-187500.02235174447,-187500.02235174447,-187500.02235174447,-187500.02235174447
não,14432.47669130286,-14701.211714889017,-22611.67289157783,-6771.058651335079,-187500.02235174447,-187500.02235174447,-187500.02235174447,-187500.02235174447
não,14389.18136229293,-14714.242781906461,-22842.745225756793,-6735.5193776511405,-187500.02235174447,-187500.02235174447,-187500.02235174447,-187500.02235174447
não,14490.457116419926,-14680.134019867663,-22627.67674060783,-6661.0880686149685,-187500.02235174447,-187500.02235174447,-187500.02235174447,-187500.02235174447
não,14586.636672811113,-14643.879490361154,-22324.56473404941,-6656.148333090346,-187500.02235174447,-187500.02235174447,-187500.02235174447,-187500.02235174447
não,14509.411395718027,-14680.7151652235,-22466.34184912942,-6723.09180773399,-187500.02235174447,-187500.02235174447,-187500.02235174447,-187500.02235174447
não,14441.23857512934,-14693.81328747431,-22757.518024148707,-6699.466013844731,-187500.02235174447,-187500.02235174447,-187500.02235174447,-187500.02235174447
não,14524.297657525261,-14656.172949811573,-22601.055812961557,-6624.3418007304435,-187500.02235174447,-187500.02235174447,-187500.02235174447,-187500.02235174447
não,14648.305135763305,-14635.050551301307,-22254.290849481924,-6608.986152289647,-187500.02235174447,-187500.02235174447,-187500.02235174447,-187500.02235174447
não,14571.50454181487,-14673.182627342061,-22399.264264019046,-6687.105499160945,-187500.02235174447,-187500.02235174447,-187500.02235174447,-187500.02235174447
não,14479.191837214452,-14701.077604422284,-22730.092433702044,-6684.713862504228,-187500.02235174447,-187500.02235174447,-187500.02235174447,-187500.02235174447
não,14520.25199177885,-14676.960072155009,-22654.543537443107,-6626.532271687063,-187500.02235174447,-187500.02235174447,-187500.02235174447,-187500.02235174447
não,14599.89125727311,-14643.432455472048,-22335.248867899045,-6617.435111693753,-187500.02235174447,-187500.02235174447,-187500.02235174447,-187500.02235174447
não,14597.052585727286,-14658.09519983473,-22286.83498940885,-6634.668306668796,-187500.02235174447,-187500.02235174447,-187500.02235174447,-187500.02235174447
não,14494.905113566532,-14698.305988109827,-22628.839031319505,-6640.099780571435,-187500.02235174447,-187500.02235174447,-187500.02235174447,-187500.02235174447
não,14511.154831785541,-14674.322566309282,-22645.647543149895,-6590.724777069661,-187500.02235174447,-187500.02235174447,-187500.02235174447,-187500.02235174447
não,14608.60843761068,-14642.717199649478,-22344.36837963681,-6573.849210005905,-187500.02235174447,-187500.02235174447,-187500.02235174447,-187500.02235174447
não,14607.423795154547,-14662.543196981336,-22239.963381286074,-6612.875355824871,-187500.02235174447,-187500.02235174447,-187500.02235174447,-187500.02235174447
não,14497.810840345723,-14682.056269890818,-22573.160835881336,-6621.480777440164,-187500.02235174447,-187500.02235174447,-187500.02235174447,-187500.02235174447
não,14487.350223940639,-14648.483949718948,-22676.224729564754,-6581.784079287539,-187500.02235174447,-187500.02235174447,-187500.02235174447,-187500.02235174447
não,14590.347062390694,-14628.36737970917,-22393.698679649675,-6562.159247655779,-187500.02235174447,-187500.02235174447,-187500.02235174447,-187500.02235174447
não,14637.665705402578,-14629.596725654214,-22204.133534924214,-6600.604248118908,-187500.02235174447,-187500.02235174447,-187500.02235174447,-187500.02235174447
não,14524.185898802985,-14665.515978993892,-22487.799523806516,-6619.402065205821,-187500.02235174447,-187500.02235174447,-187500.02235174447,-187500.02235174447
não,14504.806936360234,-14676.066002376796,-22668.78159866114,-6590.165983458279,-187500.02235174447,-187500.02235174447,-187500.02235174447,-187500.02235174447
não,14593.431603125526,-14637.866871102677,-22439.519755783054,-6550.871616705849,-187500.02235174447,-187500.02235174447,-187500.02235174447,-187500.02235174447
não,14642.694847905022,-14594.951521748486,-22195.952796453574,-6563.008613945081,-187500.02235174447,-187500.02235174447,-187500.02235174447,-187500.02235174447
não,14534.892384397077,-14653.893071877132,-22438.603334260384,-6638.0210683370915,-187500.02235174447,-187500.02235174447,-187500.02235174447,-187500.02235174447
não,14479.8176860592,-14680.312833823304,-22690.194569849322,-6606.035722021547,-187500.02235174447,-187500.02235174447,-187500.02235174447,-187500.02235174447
não,14560.663945754046,-14653.155464310106,-22505.45740192621,-6572.3963466163095,-187500.02235174447,-187500.02235174447,-187500.02235174447,-187500.02235174447
não,14644.28182176135,-14635.22936525695,-22210.88376174972,-6617.658629138306,-187500.02235174447,-187500.02235174447,-187500.02235174447,-187500.02235174447
não,14573.560902304758,-14677.340051810748,-22357.3770949098,-6690.301798618055,-187500.02235174447,-187500.02235174447,-187500.02235174447,-187500.02235174447
não,14485.427973917482,-14703.066909678808,-22672.849616152005,-6682.724557247706,-187500.02235174447,-187500.02235174447,-187500.02235174447,-187500.02235174447
não,14539.027457121309,-14668.131133095161,-22563.303716576545,-6639.719800915695,-187500.02235174447,-187500.02235174447,-187500.02235174447,-187500.02235174447
não,14628.412083198082,-14631.273106488361,-22247.384160445235,-6627.940431587748,-187500.02235174447,-187500.02235174447,-187500.02235174447,-187500.02235174447
não,14578.143009918096,-14669.204016829017,-22304.090536128348,-6686.591409038474,-187500.02235174447,-187500.02235174447,-187500.02235174447,-187500.02235174447
não,14469.133552209563,-14702.329302111782,-22657.650429922396,-6706.797386026071,-187500.02235174447,-187500.02235174447,-187500.02235174447,-187500.02235174447
não,14517.793299888766,-14663.034935359352,-22609.169496198832,-6632.164911289801,-187500.02235174447,-187500.02235174447,-187500.02235174447,-187500.02235174447
não,14623.785272095833,-14609.815431811267,-22283.772800418476,-6602.347684186421,-187500.02235174447,-187500.02235174447,-187500.02235174447,-187500.02235174447
não,14613.302303946293,-14635.497586190413,-22235.381273672734,-6660.50692325913,-187500.02235174447,-187500.02235174447,-187500.02235174447,-187500.02235174447
não,14498.637854890569,-14672.892054664142,-22583.397934841865,-6689.921818962314,-187500.02235174447,-187500.02235174447,-187500.02235174447,-187500.02235174447
não,14515.245201020862,-14651.769656153878,-22625.2404004622,-6640.8373881384605,-187500.02235174447,-187500.02235174447,-187500.02235174447,-187500.02235174447
não,14601.455879384981,-14627.518013419869,-22334.824184754394,-6625.2805739975665,-187500.02235174447,-187500.02235174447,-187500.02235174447,-187500.02235174447
não,14615.984513280931,-14632.591859411225,-22211.509610594465,-6687.172554394312,-187500.02235174447,-187500.02235174447,-187500.02235174447,-187500.02235174447
não,14521.146061557063,-14664.644260960134,-22527.719739403696,-6705.65744705885,-187500.02235174447,-187500.02235174447,-187500.02235174447,-187500.02235174447
não,14515.178145787497,-14663.124342337172,-22641.512470425663,-6629.974440333181,-187500.02235174447,-187500.02235174447,-187500.02235174447,-187500.02235174447
não,14590.54822809079,-14645.734685150945,-22394.86097036135,-6619.625582650374,-187500.02235174447,-187500.02235174447,-187500.02235174447,-187500.02235174447
não,14626.333370963737,-14622.243001728417,-22197.20449414307,-6684.602103781951,-187500.02235174447,-187500.02235174447,-187500.02235174447,-187500.02235174447
não,14534.422997763515,-14644.661801417089,-22454.38366584583,-6717.973258253724,-187500.02235174447,-187500.02235174447,-187500.02235174447,-187500.02235174447
não,14491.887628065066,-14678.6141012447,-22652.420121719853,-6667.257150084633,-187500.02235174447,-187500.02235174447,-187500.02235174447,-187500.02235174447
não,14574.454972082971,-14630.826071599255,-22437.217526104156,-6616.250469237622,-187500.02235174447,-187500.02235174447,-187500.02235174447,-187500.02235174447
não,14645.84644387322,-14599.421870639548,-22177.57966251131,-6637.88695787036,-187500.02235174447,-187500.02235174447,-187500.02235174447,-187500.02235174447
não,14567.570634790736,-14641.42079847107,-22373.738571851085,-6704.964542980736,-187500.02235174447,-187500.02235174447,-187500.02235174447,-187500.02235174447
não,14509.657264907035,-14631.384865210637,-22628.48140340822,-6656.952995890737,-187500.02235174447,-187500.02235174447,-187500.02235174447,-187500.02235174447
não,14583.865056498655,-14611.715330089966,-22467.884119496837,-6594.524573627064,-187500.02235174447,-187500.02235174447,-187500.02235174447,-187500.02235174447
não,14649.84740613072,-14613.101138246197,-22187.526188793923,-6628.633335665862,-187500.02235174447,-187500.02235174447,-187500.02235174447,-187500.02235174447
não,14566.520102801336,-14677.518865766391,-22334.33244637638,-6720.856633288459,-187500.02235174447,-187500.02235174447,-187500.02235174447,-187500.02235174447
não,14503.666997393013,-14652.373153254171,-22633.175269743835,-6730.512586893152,-187500.02235174447,-187500.02235174447,-187500.02235174447,-187500.02235174447
não,14572.465666826447,-14598.952484005988,-22511.045338040036,-6655.544835990052,-187500.02235174447,-187500.02235174447,-187500.02235174447,-187500.02235174447
não,14670.299252307326,-14612.408234168082,-22186.498008548977,-6619.558527417008,-187500.02235174447,-187500.02235174447,-187500.02235174447,-187500.02235174447
não,14623.919382562564,-14638.291554247327,-22229.21219220307,-6652.572053977497,-187500.02235174447,-187500.02235174447,-187500.02235174447,-187500.02235174447
não,14501.655340392035,-14660.553891724812,-22588.42707734431,-6626.532271687063,-187500.02235174447,-187500.02235174447,-187500.02235174447,-187500.02235174447
não,14543.96719264593,-14623.360588951182,-22586.974213954712,-6607.756806344606,-187500.02235174447,-187500.02235174447,-187500.02235174447,-187500.02235174447
não,14650.85323463121,-14601.254713684883,-22271.613451434787,-6675.348481577455,-187500.02235174447,-187500.02235174447,-187500.02235174447,-187500.02235174447
não,14643.588917683235,-14597.387861894114,-22191.750668495974,-6724.432912401308,-187500.02235174447,-187500.02235174447,-187500.02235174447,-187500.02235174447
não,14527.53866047128,-14630.267277987872,-22532.32419876149,-6739.587395142007,-187500.02235174447,-187500.02235174447,-187500.02235174447,-187500.02235174447
não,14548.504596770359,-14638.47036820297,-22593.724440780217,-6673.873266443404,-187500.02235174447,-187500.02235174447,-187500.02235174447,-187500.02235174447
não,14645.958202595497,-14599.533629361824,-22310.259617598014,-6642.714934672706,-187500.02235174447,-187500.02235174447,-187500.02235174447,-187500.02235174447
não,14681.452772790524,-14564.776666733822,-22127.489403186966,-6629.88503335536,-187500.02235174447,-187500.02235174447,-187500.02235174447,-187500.02235174447
não,14581.004033208375,-14582.792172764799,-22433.82006094695,-6648.571091719997,-187500.02235174447,-187500.02235174447,-187500.02235174447,-187500.02235174447
não,14568.308242357762,-14572.689184271001,-22573.27259460361,-6615.289344226044,-187500.02235174447,-187500.02235174447,-187500.02235174447,-187500.02235174447
não,14647.120493307173,-14558.942861430987,-22343.742530792064,-6613.344742458433,-187500.02235174447,-187500.02235174447,-187500.02235174447,-187500.02235174447
não,14684.894941436642,-14555.143064873584,-22137.502984702944,-6632.142559545346,-187500.02235174447,-187500.02235174447,-187500.02235174447,-187500.02235174447
não,14557.489998041392,-14611.60357136769,-22425.25934282057,-6676.868400200415,-187500.02235174447,-187500.02235174447,-187500.02235174447,-187500.02235174447
não,14512.294770752762,-14610.46363240047,-22625.598028373486,-6623.157158274313,-187500.02235174447,-187500.02235174447,-187500.02235174447,-187500.02235174447
não,14635.98932456843,-14541.39674203357,-22374.766752096028,-6564.684994779229,-187500.02235174447,-187500.02235174447,-187500.02235174447,-187500.02235174447
não,14708.073700436797,-14526.599887204158,-22118.079318771284,-6599.374902173866,-187500.02235174447,-187500.02235174447,-187500.02235174447,-187500.02235174447
não,14609.278989944338,-14604.518068375359,-22317.009844423515,-6639.272766026588,-187500.02235174447,-187500.02235174447,-187500.02235174447,-187500.02235174447
não,14543.45310252346,-14592.872809514143,-22594.23853090269,-6621.838405351449,-187500.02235174447,-187500.02235174447,-187500.02235174447,-187500.02235174447
não,14612.341178934716,-14547.87874792561,-22447.38756983132,-6596.290361439033,-187500.02235174447,-187500.02235174447,-187500.02235174447,-187500.02235174447
não,14699.982368943975,-14537.798111176267,-22146.510737718432,-6601.677131852763,-187500.02235174447,-187500.02235174447,-187500.02235174447,-187500.02235174447
não,14646.785217140345,-14562.742657988389,-22252.480358181045,-6637.55168170353,-187500.02235174447,-187500.02235174447,-187500.02235174447,-187500.02235174447
não,14560.529835287314,-14578.07595468473,-22583.576748797506,-6633.997754335136,-187500.02235174447,-187500.02235174447,-187500.02235174447,-187500.02235174447
não,14575.93018721702,-14569.649347025079,-22528.569105692997,-6613.143576758334,-187500.02235174447,-187500.02235174447,-187500.02235174447,-187500.02235174447
não,14665.560682482801,-14524.141195314074,-22214.638854818208,-6586.097965967413,-187500.02235174447,-187500.02235174447,-187500.02235174447,-187500.02235174447
não,14646.51699620688,-14510.372520729605,-22209.050918704383,-6655.097801100946,-187500.02235174447,-187500.02235174447,-187500.02235174447,-187500.02235174447
não,14538.513366998837,-14567.615338279646,-22550.496167003654,-6667.994757651658,-187500.02235174447,-187500.02235174447,-187500.02235174447,-187500.02235174447
não,14551.49973052737,-14560.93216668751,-22550.719684448206,-6604.314637698489,-187500.02235174447,-187500.02235174447,-187500.02235174447,-187500.02235174447
não,14659.391601013138,-14542.559032745246,-22246.624201133753,-6599.35255042941,-187500.02235174447,-187500.02235174447,-187500.02235174447,-187500.02235174447
não,14645.153539795107,-14559.948689931476,-22182.787618969396,-6655.321318545499,-187500.02235174447,-187500.02235174447,-187500.02235174447,-187500.02235174447
não,14538.82629142121,-14560.462780053947,-22514.01812005259,-6673.135658876379,-187500.02235174447,-187500.02235174447,-187500.02235174447,-187500.02235174447
não,14554.40545730656,-14537.820462920721,-22586.303661621056,-6627.269879254089,-187500.02235174447,-187500.02235174447,-187500.02235174447,-187500.02235174447
não,14635.385827468137,-14511.333645741182,-22311.265446098503,-6587.68493982374,-187500.02235174447,-187500.02235174447,-187500.02235174447,-187500.02235174447
não,14663.057287103808,-14490.01008153082,-22144.588487695277,-6612.40596919131,-187500.02235174447,-187500.02235174447,-187500.02235174447,-187500.02235174447
não,14557.780570719311,-14572.488018570903,-22476.78011379005,-6673.761507721128,-187500.02235174447,-187500.02235174447,-187500.02235174447,-187500.02235174447
não,14520.386102245582,-14556.014782907341,-22639.120833768946,-6664.485533772175,-187500.02235174447,-187500.02235174447,-187500.02235174447,-187500.02235174447
não,14609.36839692216,-14523.11301506913,-22378.790066097983,-6640.1891875492565,-187500.02235174447,-187500.02235174447,-187500.02235174447,-187500.02235174447
não,14689.09706939424,-14517.748596399857,-22135.938362591074,-6623.201861763223,-187500.02235174447,-187500.02235174447,-187500.02235174447,-187500.02235174447
não,14607.088518987719,-14537.932221643,-22366.295440947466,-6634.489492713153,-187500.02235174447,-187500.02235174447,-187500.02235174447,-187500.02235174447
não,14558.540530030792,-14555.813617207245,-22604.85560951896,-6632.053152567524,-187500.02235174447,-187500.02235174447,-187500.02235174447,-187500.02235174447
não,14623.51705116237,-14533.372465774115,-22420.43136601822,-6627.0463618095355,-187500.02235174447,-187500.02235174447,-187500.02235174447,-187500.02235174447
não,14691.198133373038,-14511.288942252273,-22145.750778406953,-6635.428265980276,-187500.02235174447,-187500.02235174447,-187500.02235174447,-187500.02235174447
não,14594.660949070569,-14569.135256902608,-22332.99134170906,-6695.84503124297,-187500.02235174447,-187500.02235174447,-187500.02235174447,-187500.02235174447
não,14522.956552857942,-14562.832064966211,-22616.277350935623,-6670.587560008474,-187500.02235174447,-187500.02235174447,-187500.02235174447,-187500.02235174447
não,14609.256638199884,-14524.007084847342,-22455.3000873685,-6588.266085179578,-187500.02235174447,-187500.02235174447,-187500.02235174447,-187500.02235174447
não,14695.422613075092,-14503.599942159646,-22147.248345285458,-6613.858832580904,-187500.02235174447,-187500.02235174447,-187500.02235174447,-187500.02235174447
não,14614.039911513319,-14560.507483542859,-22275.83793113684,-6697.454356843753,-187500.02235174447,-187500.02235174447,-187500.02235174447,-187500.02235174447
não,14530.265573294828,-14591.688167058011,-22605.637920574896,-6691.777013752105,-187500.02235174447,-187500.02235174447,-187500.02235174447,-187500.02235174447
não,14582.367489620148,-14521.034302834787,-22511.335910717957,-6634.042457824047,-187500.02235174447,-187500.02235174447,-187500.02235174447,-187500.02235174447
não,14668.801685428822,-14477.850732547133,-22202.97124421254,-6625.660553653307,-187500.02235174447,-187500.02235174447,-187500.02235174447,-187500.02235174447
não,14640.124397292662,-14527.784529660288,-22206.659282047665,-6675.7061094887395,-187500.02235174447,-187500.02235174447,-187500.02235174447,-187500.02235174447
não,14542.44727402297,-14544.548338001769,-22548.283344302577,-6712.497080862175,-187500.02235174447,-187500.02235174447,-187500.02235174447,-187500.02235174447
$SILENCE,14586.614321066658,-14536.457006508948,-22536.280457530076,-6649.286347542567,-187500.02235174447,-187500.02235174447,-187500.02235174447,-187500.02235174447
$SILENCE,14687.465392049002,-14506.416261961016,-22229.16748871416,-6582.320521154466,-187500.02235174447,-187500.02235174447,-187500.02235174447,-187500.02235174447
$SILENCE,14687.353633326726,-14530.600849461658,-22146.443682485067,-6652.035612110569,-187500.02235174447,-187500.02235174447,-187500.02235174447,-187500.02235174447
$SILENCE,14558.227605608417,-14577.293643628795,-22491.152285474815,-6734.1112177504565,-187500.02235174447,-187500.02235174447,-187500.02235174447,-187500.02235174447
$SILENCE,14564.530797544814,-14534.601811719158,-22574.680754504294,-6681.651673513851,-187500.02235174447,-187500.02235174447,-187500.02235174447,-187500.02235174447
$SILENCE,14649.601536941713,-14517.055692321741,-22303.844666939338,-6645.59830970744,-187500.02235174447,-187500.02235174447,-187500.02235174447,-187500.02235174447
$SILENCE,14691.823982217787,-14522.129538313096,-22130.61864741071,-6648.8840161423705,-187500.02235174447,-187500.02235174447,-187500.02235174447,-187500.02235174447
$SILENCE,14563.189692877495,-14585.116754188151,-22438.737444727118,-6713.99464774068,-187500.02235174447,-187500.02235174447,-187500.02235174447,-187500.02235174447
$SILENCE,14529.751483172357,-14568.934091202509,-22612.634016589407,-6689.921818962314,-187500.02235174447,-187500.02235174447,-187500.02235174447,-187500.02235174447
$SILENCE,14636.99515306892,-14478.029546502776,-22364.976688024606,-6629.750922888627,-187500.02235174447,-187500.02235174447,-187500.02235174447,-187500.02235174447
$SILENCE,14710.264171393415,-14490.323005953194,-22118.74987110494,-6667.637129740373,-187500.02235174447,-187500.02235174447,-187500.02235174447,-187500.02235174447
$SILENCE,14604.495716630903,-14553.086704383697,-22362.96503102363,-6727.271583947133,-187500.02235174447,-187500.02235174447,-187500.02235174447,-187500.02235174447
$SILENCE,14547.699933969967,-14565.491922556392,-22595.870208247925,-6683.171592136811,-187500.02235174447,-187500.02235174447,-187500.02235174447,-187500.02235174447
$SILENCE,14625.618115141167,-14530.10911108364,-22413.748194426084,-6631.047324067035,-187500.02235174447,-187500.02235174447,-187500.02235174447,-187500.02235174447
$SILENCE,14701.926970711587,-14502.974093314899,-22127.109423531227,-6631.472007211686,-187500.02235174447,-187500.02235174447,-187500.02235174447,-187500.02235174447
$SILENCE,14620.343103449715,-14557.422942808027,-22287.70670744261,-6693.788670753082,-187500.02235174447,-187500.02235174447,-187500.02235174447,-187500.02235174447
$SILENCE,14533.68539019649,-14565.581329534214,-22601.100516450468,-6683.260999114633,-187500.02235174447,-187500.02235174447,-187500.02235174447,-187500.02235174447
$SILENCE,14593.968044992453,-14548.191672347984,-22487.777172062062,-6650.135713831868,-187500.02235174447,-187500.02235174447,-187500.02235174447,-187500.02235174447
$SILENCE,14680.245778589939,-14522.442462735471,-22181.24534860198,-6655.522484245597,-187500.02235174447,-187500.02235174447,-187500.02235174447,-187500.02235174447
$SILENCE,14652.104932320706,-14509.187878273473,-22212.806011772875,-6677.516600789619,-187500.02235174447,-187500.02235174447,-187500.02235174447,-187500.02235174447
$SILENCE,14553.399628806072,-14550.940936915988,-22560.375638052898,-6691.709958518739,-187500.02235174447,-187500.02235174447,-187500.02235174447,-187500.02235174447
$SILENCE,14597.097289216197,-14534.624163463614,-22517.54969567653,-6660.238702325667,-187500.02235174447,-187500.02235174447,-187500.02235174447,-187500.02235174447
$SILENCE,14686.459563548515,-14509.63491316258,-22216.315235652357,-6662.540932004564,-187500.02235174447,-187500.02235174447,-187500.02235174447,-187500.02235174447
$SILENCE,14668.086429606252,-14542.581384489702,-22180.39598231268,-6720.543708866086,-187500.02235174447,-187500.02235174447,-187500.02235174447,-187500.02235174447
$SILENCE,14556.26065209635,-14573.046812182285,-22527.74209114815,-6728.500929892174,-187500.02235174447,-187500.02235174447,-187500.02235174447,-187500.02235174447
$SILENCE,14566.006012678865,-14570.454009825471,-22575.127789393402,-6667.458315784731,-187500.02235174447,-187500.02235174447,-187500.02235174447,-187500.02235174447
$SILENCE,14662.252624303417,-14527.695122682468,-22267.098399054816,-6625.302925742022,-187500.02235174447,-187500.02235174447,-187500.02235174447,-187500.02235174447
$SILENCE,14705.52560156889,-14503.06350029272,-22115.017129780907,-6630.287364755555,-187500.02235174447,-187500.02235174447,-187500.02235174447,-187500.02235174447
$SILENCE,14590.995262979897,-14568.576463291225,-22449.73450299913,-6684.3338828484875,-187500.02235174447,-187500.02235174447,-187500.02235174447,-187500.02235174447
$SILENCE,14571.750411003877,-14561.759181232355,-22575.105437648945,-6683.842144470471,-187500.02235174447,-187500.02235174447,-187500.02235174447,-187500.02235174447
$SILENCE,14681.18455185706,-14509.389043973571,-22300.89423667124,-6671.459278042231,-187500.02235174447,-187500.02235174447,-187500.02235174447,-187500.02235174447
$SILENCE,14703.268075378905,-14527.225736048906,-22126.75179561994,-6703.377569124409,-187500.02235174447,-187500.02235174447,-187500.02235174447,-187500.02235174447
$SILENCE,14580.35583261917,-14581.585178564213,-22420.163145084756,-6724.56702286804,-187500.02235174447,-187500.02235174447,-187500.02235174447,-187500.02235174447
$SILENCE,14542.7825501898,-14570.297547614284,-22610.063565977045,-6679.125926390401,-187500.02235174447,-187500.02235174447,-187500.02235174447,-187500.02235174447
$SILENCE,14631.474272188458,-14504.248142748851,-22378.47714167561,-6630.376771733377,-187500.02235174447,-187500.02235174447,-187500.02235174447,-187500.02235174447
$SILENCE,14702.597523045246,-14494.569837399702,-22115.79944083684,-6649.062830098013,-187500.02235174447,-187500.02235174447,-187500.02235174447,-187500.02235174447
$SILENCE,14612.519992890358,-14564.55314928927,-22332.94663822015,-6707.46793835973,-187500.02235174447,-187500.02235174447,-187500.02235174447,-187500.02235174447
$SILENCE,14553.936070672999,-14576.533684317314,-22586.974213954712,-6673.023900154102,-187500.02235174447,-187500.02235174447,-187500.02235174447,-187500.02235174447
$SILENCE,14638.112740291685,-14549.599832248668,-22413.68113919272,-6635.562376447007,-187500.02235174447,-187500.02235174447,-187500.02235174447,-187500.02235174447
$SILENCE,14703.737462012466,-14542.134349600596,-22146.734255162984,-6668.084164629479,-187500.02235174447,-187500.02235174447,-187500.02235174447,-187500.02235174447
$SILENCE,14633.821205356266,-14549.219852592929,-22277.559015459898,-6721.750703066672,-187500.02235174447,-187500.02235174447,-187500.02235174447,-187500.02235174447
$SILENCE,14559.747524231378,-14578.634748296112,-22584.56022555354,-6709.412540127342,-187500.02235174447,-187500.02235174447,-187500.02235174447,-187500.02235174447
$SILENCE,14615.090443502719,-14555.277175340318,-22476.44483762322,-6657.400030779842,-187500.02235174447,-187500.02235174447,-187500.02235174447,-187500.02235174447
$SILENCE,14708.990121959463,-14508.696139895457,-22165.66618271663,-6642.334955016966,-187500.02235174447,-187500.02235174447,-187500.02235174447,-187500.02235174447
$SILENCE,14660.866816147187,-14539.07216061022,-22215.39881412969,-6693.878077730904,-187500.02235174447,-187500.02235174447,-187500.02235174447,-187500.02235174447
$SILENCE,14558.205253863962,-14576.824256995233,-22558.900422918847,-6696.448528343264,-187500.02235174447,-187500.02235174447,-187500.02235174447,-187500.02235174447
$SILENCE,14608.027292254841,-14545.330649057705,-22506.17265774878,-6655.343670289954,-187500.02235174447,-187500.02235174447,-187500.02235174447,-187500.02235174447
$SILENCE,14701.189363144562,-14531.561974473236,-22206.90515123667,-6662.160952348823,-187500.02235174447,-187500.02235174447,-187500.02235174447,-187500.02235174447
$SILENCE,14685.744307725945,-14557.579405019213,-22170.270642074425,-6697.633170799395,-187500.02235174447,-187500.02235174447,-187500.02235174447,-187500.02235174447
$SILENCE,14574.209102893961,-14589.989434479408,-22514.934541575258,-6682.992778181169,-187500.02235174447,-187500.02235174447,-187500.02235174447,-187500.02235174447
$SILENCE,14589.207123423474,-14554.763085217844,-22566.36590556692,-6654.360193533921,-187500.02235174447,-187500.02235174447,-187500.02235174447,-187500.02235174447
$SILENCE,14672.33326105276,-14507.600904417146,-22294.233416823557,-6671.861609442426,-187500.02235174447,-187500.02235174447,-187500.02235174447,-187500.02235174447
$SILENCE,14686.101935637229,-14534.713570441434,-22167.990764139984,-6720.56606061054,-187500.02235174447,-187500.02235174447,-187500.02235174447,-187500.02235174447
$SILENCE,14598.416042139059,-14584.714422787956,-22453.668410023263,-6758.876950606937,-187500.02235174447,-187500.02235174447,-187500.02235174447,-187500.02235174447
$SILENCE,14593.163382192062,-14566.229530123417,-22573.04907715906,-6708.585525582496,-187500.02235174447,-187500.02235174447,-187500.02235174447,-187500.02235174447
$SILENCE,14685.051403647829,-14512.764157386322,-22309.65612049772,-6650.091010342957,-187500.02235174447,-187500.02235174447,-187500.02235174447,-187500.02235174447
$SILENCE,14723.362293644226,-14534.422997763515,-22106.94815003254,-6676.823696711504,-187500.02235174447,-187500.02235174447,-187500.02235174447,-187500.02235174447
$SILENCE,14616.185678981028,-14604.719234075455,-22388.356612724856,-6705.948019736769,-187500.02235174447,-187500.02235174447,-187500.02235174447,-187500.02235174447
$SILENCE,14570.565768547747,-14602.774632307845,-22594.149123924868,-6670.2746355861,-187500.02235174447,-187500.02235174447,-187500.02235174447,-187500.02235174447
$SILENCE,14663.504321992914,-14532.813672162732,-22374.699696862663,-6644.704239929229,-187500.02235174447,-187500.02235174447,-187500.02235174447,-187500.02235174447
$SILENCE,14727.810290790832,-14505.030453804786,-22130.216316010516,-6677.002510667147,-187500.02235174447,-187500.02235174447,-187500.02235174447,-187500.02235174447
$SILENCE,14627.518013419869,-14579.014727951853,-22345.75418779304,-6731.764284582649,-187500.02235174447,-187500.02235174447,-187500.02235174447,-187500.02235174447
$SILENCE,14588.715385045456,-14581.160495419563,-22588.270615133122,-6712.720598306728,-187500.02235174447,-187500.02235174447,-187500.02235174447,-187500.02235174447
$SILENCE,14672.310909308304,-14538.334553043194,-22413.792897914995,-6671.481629786686,-187500.02235174447,-187500.02235174447,-187500.02235174447,-187500.02235174447
$SILENCE,14735.454587394546,-14530.802015161755,-22130.149260777147,-6678.008339167636,-187500.02235174447,-187500.02235174447,-187500.02235174447,-187500.02235174447
$SILENCE,14664.599557471223,-14565.648384767579,-22247.719436612064,-6720.096673976979,-187500.02235174447,-187500.02235174447,-187500.02235174447,-187500.02235174447
$SILENCE,14605.479193386936,-14583.954463476475,-22552.08314085998,-6682.031653169591,-187500.02235174447,-187500.02235174447,-187500.02235174447,-187500.02235174447
$SILENCE,14652.999002098919,-14548.21402409244,-22474.902567255805,-6632.544890945541,-187500.02235174447,-187500.02235174447,-187500.02235174447,-187500.02235174447
$SILENCE,14728.77141580241,-14535.16060533054,-22171.611746741743,-6648.101705086435,-187500.02235174447,-187500.02235174447,-187500.02235174447,-187500.02235174447
$SILENCE,14689.968787427997,-14574.74554476089,-22210.861410005262,-6715.939249508292,-187500.02235174447,-187500.02235174447,-187500.02235174447,-187500.02235174447
$SILENCE,14602.662873585568,-14596.963178749464,-22532.592419694953,-6699.398958611365,-187500.02235174447,-187500.02235174447,-187500.02235174447,-187500.02235174447
$SILENCE,14653.7589614104,-14552.818483450234,-22498.908340800805,-6639.205710793222,-187500.02235174447,-187500.02235174447,-187500.02235174447,-187500.02235174447
$SILENCE,14739.544956629868,-14522.39775924656,-22211.4425553611,-6647.922891130793,-187500.02235174447,-187500.02235174447,-187500.02235174447,-187500.02235174447
$SILENCE,14748.82093057882,-14553.042000894786,-22133.5243741899,-6685.652635771351,-187500.02235174447,-187500.02235174447,-187500.02235174447,-187500.02235174447
$SILENCE,14640.191452526029,-14608.876658544143,-22479.12704695786,-6702.662313301839,-187500.02235174447,-187500.02235174447,-187500.02235174447,-187500.02235174447
$SILENCE,14679.709336723012,-14572.018631937342,-22487.821875550973,-6638.892786370849,-187500.02235174447,-187500.02235174447,-187500.02235174447,-187500.02235174447
$SILENCE,14797.570085235846,-14532.456044251448,-22217.321064152846,-6629.661515910807,-187500.02235174447,-187500.02235174447,-187500.02235174447,-187500.02235174447
$SILENCE,14766.098829042772,-14535.764102430834,-22133.94905733455,-6698.415481855332,-187500.02235174447,-187500.02235174447,-187500.02235174447,-187500.02235174447
$SILENCE,14637.173967024562,-14602.931094519032,-22426.086357365413,-6710.016037227636,-187500.02235174447,-187500.02235174447,-187500.02235174447,-187500.02235174447
$SILENCE,14663.169045826084,-14578.701803529479,-22536.101643574435,-6658.338804046965,-187500.02235174447,-187500.02235174447,-187500.02235174447,-187500.02235174447
$SILENCE,14716.43325286308,-14569.045849924785,-22313.098289143836,-6640.1891875492565,-187500.02235174447,-187500.02235174447,-187500.02235174447,-187500.02235174447
$SILENCE,14762.768419118933,-14569.448181324982,-22093.47004812599,-6660.864551170415,-187500.02235174447,-187500.02235174447,-187500.02235174447,-187500.02235174447
$SILENCE,14691.891037451154,-14599.93596076202,-22339.71921679011,-6686.457298571742,-187500.02235174447,-187500.02235174447,-187500.02235174447,-187500.02235174447
$SILENCE,14684.134982125162,-14588.469515856448,-22520.902457344826,-6613.903536069815,-187500.02235174447,-187500.02235174447,-187500.02235174447,-187500.02235174447
$SILENCE,14775.128933802716,-14568.576463291225,-22301.45303028262,-6561.689861022218,-187500.02235174447,-187500.02235174447,-187500.02235174447,-187500.02235174447
$SILENCE,14826.560297794378,-14565.35781208966,-22042.373960301156,-6604.314637698489,-187500.02235174447,-187500.02235174447,-187500.02235174447,-187500.02235174447
$SILENCE,14714.756872028933,-14615.358664436182,-22261.42105596317,-6689.072452673013,-187500.02235174447,-187500.02235174447,-187500.02235174447,-187500.02235174447
$SILENCE,14658.966917868485,-14590.302358901783,-22535.945181363248,-6656.438905768265,-187500.02235174447,-187500.02235174447,-187500.02235174447,-187500.02235174447
$SILENCE,14729.598430347256,-14596.873771771643,-22386.970804568627,-6640.725629416183,-187500.02235174447,-187500.02235174447,-187500.02235174447,-187500.02235174447
$SILENCE,14824.593344282312,-14589.989434479408,-22067.899652469117,-6620.340838472944,-187500.02235174447,-187500.02235174447,-187500.02235174447,-187500.02235174447
$SILENCE,14771.10561980076,-14599.623036339646,-22173.06461013134,-6637.0822950699685,-187500.02235174447,-187500.02235174447,-187500.02235174447,-187500.02235174447
$SILENCE,14679.23995008945,-14630.870775088166,-22500.45061116822,-6656.036574368069,-187500.02235174447,-187500.02235174447,-187500.02235174447,-187500.02235174447
$SILENCE,14732.794729804365,-14599.913609017565,-22411.892999636293,-6617.569222160486,-187500.02235174447,-187500.02235174447,-187500.02235174447,-187500.02235174447
$SILENCE,14812.746919721,-14577.740678517901,-22100.108516229215,-6600.648951607818,-187500.02235174447,-187500.02235174447,-187500.02235174447,-187500.02235174447
$SILENCE,14793.367957278248,-14574.522027316336,-22101.181399963072,-6620.743169873139,-187500.02235174447,-187500.02235174447,-187500.02235174447,-187500.02235174447
$SILENCE,14717.729654041488,-14604.383957908627,-22430.82492718994,-6616.764559360095,-187500.02235174447,-187500.02235174447,-187500.02235174447,-187500.02235174447
$SILENCE,14743.657677609644,-14603.98162650843,-22429.14854635579,-6595.575105616464,-187500.02235174447,-187500.02235174447,-187500.02235174447,-187500.02235174447
$SILENCE,14815.6973499891,-14581.182847164018,-22133.546725934357,-6565.377898857343,-187500.02235174447,-187500.02235174447,-187500.02235174447,-187500.02235174447
$SILENCE,14801.45928877107,-14601.478231129437,-22068.927832714064,-6622.4642541961975,-187500.02235174447,-187500.02235174447,-187500.02235174447,-187500.02235174447
$SILENCE,14690.013490916908,-14637.285725746839,-22412.183572314214,-6664.060850627524,-187500.02235174447,-187500.02235174447,-187500.02235174447,-187500.02235174447
$SILENCE,14704.251552134938,-14614.777519080344,-22473.606166077396,-6614.283515725555,-187500.02235174447,-187500.02235174447,-187500.02235174447,-187500.02235174447
$SILENCE,14827.432015828135,-14566.83302722371,-22170.270642074425,-6577.313730396478,-187500.02235174447,-187500.02235174447,-187500.02235174447,-187500.02235174447
$SILENCE,14846.430998615146,-14569.179960391517,-22016.714157666465,-6605.901611554816,-187500.02235174447,-187500.02235174447,-187500.02235174447,-187500.02235174447
$SILENCE,14729.419616391615,-14623.762920351377,-22334.354798120832,-6622.732475129661,-187500.02235174447,-187500.02235174447,-187500.02235174447,-187500.02235174447
$SILENCE,14718.511965097425,-14626.243963985917,-22480.91518651428,-6587.72964331265,-187500.02235174447,-187500.02235174447,-187500.02235174447,-187500.02235174447
$SILENCE,14795.133745090217,-14590.324710646239,-22239.270477207956,-6561.041660433014,-187500.02235174447,-187500.02235174447,-187500.02235174447,-187500.02235174447
$SILENCE,14832.528213563946,-14585.519085588347,-22023.039701347316,-6596.178602716756,-187500.02235174447,-187500.02235174447,-187500.02235174447,-187500.02235174447
$SILENCE,14732.68297108209,-14631.720141377467,-22291.752373189018,-6661.199827337245,-187500.02235174447,-187500.02235174447,-187500.02235174447,-187500.02235174447
$SILENCE,14704.00568294593,-14625.193431996517,-22498.4613059117,-6627.9851350766585,-187500.02235174447,-187500.02235174447,-187500.02235174447,-187500.02235174447
$SILENCE,14790.372823521237,-14585.340271632705,-22288.153742331713,-6574.117430939368,-187500.02235174447,-187500.02235174447,-187500.02235174447,-187500.02235174447
$SILENCE,14855.7069725641,-14553.936070672999,-22014.657797176576,-6574.20683791719,-187500.02235174447,-187500.02235174447,-187500.02235174447,-187500.02235174447
$SILENCE,14760.041506295385,-14609.36839692216,-22212.358976883766,-6639.116303815402,-187500.02235174447,-187500.02235174447,-187500.02235174447,-187500.02235174447
$SILENCE,14698.015415431908,-14639.833824614743,-22499.869465812382,-6620.877280339871,-187500.02235174447,-187500.02235174447,-187500.02235174447,-187500.02235174447
$SILENCE,14772.893759357186,-14602.484059629925,-22346.13416744878,-6566.629596546841,-187500.02235174447,-187500.02235174447,-187500.02235174447,-187500.02235174447
$SILENCE,14839.814882256376,-14567.101248157174,-22059.964783187483,-6570.787021015528,-187500.02235174447,-187500.02235174447,-187500.02235174447,-187500.02235174447
$SILENCE,14769.049259310874,-14611.670626601057,-22171.611746741743,-6642.2678997836,-187500.02235174447,-187500.02235174447,-187500.02235174447,-187500.02235174447
$SILENCE,14687.085412393262,-14626.221612241461,-22484.536169116043,-6657.914120902315,-187500.02235174447,-187500.02235174447,-187500.02235174447,-187500.02235174447
$SILENCE,14744.149415987662,-14591.241132168905,-22398.996043085583,-6590.367149158376,-187500.02235174447,-187500.02235174447,-187500.02235174447,-187500.02235174447
$SILENCE,14837.847928744308,-14567.883559213109,-22086.51865560039,-6584.354529899899,-187500.02235174447,-187500.02235174447,-187500.02235174447,-187500.02235174447
$SILENCE,14805.057919628372,-14604.853344542187,-22090.541969602345,-6634.780065391072,-187500.02235174447,-187500.02235174447,-187500.02235174447,-187500.02235174447
$SILENCE,14690.326415339283,-14641.957240337997,-22451.746160000108,-6643.541949217552,-187500.02235174447,-187500.02235174447,-187500.02235174447,-187500.02235174447
$SILENCE,14710.174764415595,-14621.773615094855,-22458.854014736895,-6577.87252400786,-187500.02235174447,-187500.02235174447,-187500.02235174447,-187500.02235174447
$SILENCE,14804.789698694909,-14573.247977882384,-22145.415502240125,-6550.111657394369,-187500.02235174447,-187500.02235174447,-187500.02235174447,-187500.02235174447
$SILENCE,14815.540887777912,-14577.383050606615,-22048.632448748645,-6599.017274262581,-187500.02235174447,-187500.02235174447,-187500.02235174447,-187500.02235174447
$SILENCE,14699.803554988332,-14625.394597696615,-22391.038822059494,-6640.144484060345,-187500.02235174447,-187500.02235174447,-187500.02235174447,-187500.02235174447
$SILENCE,14711.091185938263,-14611.067129500763,-22473.203834677202,-6611.623658135374,-187500.02235174447,-187500.02235174447,-187500.02235174447,-187500.02235174447
$SILENCE,14801.392233537703,-14580.758164019368,-22206.659282047665,-6589.473079380165,-187500.02235174447,-187500.02235174447,-187500.02235174447,-187500.02235174447
$SILENCE,14824.638047771223,-14587.016652466853,-22040.20584108899,-6611.780120346561,-187500.02235174447,-187500.02235174447,-187500.02235174447,-187500.02235174447
$SILENCE,14713.728691783988,-14630.42374019906,-22341.864984257816,-6636.165873547301,-187500.02235174447,-187500.02235174447,-187500.02235174447,-187500.02235174447
$SILENCE,14696.562552042313,-14619.024350526852,-22509.74893686163,-6597.251486450611,-187500.02235174447,-187500.02235174447,-187500.02235174447,-187500.02235174447
$SILENCE,14778.280529770915,-14566.274233612328,-22277.201387548612,-6564.908512223782,-187500.02235174447,-187500.02235174447,-187500.02235174447,-187500.02235174447
$SILENCE,14820.07829190234,-14565.670736512035,-22043.424492290556,-6617.479815182664,-187500.02235174447,-187500.02235174447,-187500.02235174447,-187500.02235174447
$SILENCE,14725.664523323123,-14600.785327051322,-22287.93022488716,-6670.699318730751,-187500.02235174447,-187500.02235174447,-187500.02235174447,-187500.02235174447
$SILENCE,14669.069906362285,-14616.923286548054,-22534.067634829004,-6634.534196202064,-187500.02235174447,-187500.02235174447,-187500.02235174447,-187500.02235174447
$SILENCE,14726.379779145693,-14599.98066425093,-22352.794987296464,-6601.945352786226,-187500.02235174447,-187500.02235174447,-187500.02235174447,-187500.02235174447
$SILENCE,14810.17646910864,-14566.900082457076,-22065.217443134483,-6595.776271316561,-187500.02235174447,-187500.02235174447,-187500.02235174447,-187500.02235174447
$SILENCE,14741.82483456431,-14605.32273117575,-22226.977017757537,-6636.590556691952,-187500.02235174447,-187500.02235174447,-187500.02235174447,-187500.02235174447
$SILENCE,14672.221502330483,-14627.741530864423,-22520.3660154779,-6642.737286417161,-187500.02235174447,-187500.02235174447,-187500.02235174447,-187500.02235174447
$SILENCE,14732.615915848723,-14579.193541907496,-22388.915406336237,-6595.865678294383,-187500.02235174447,-187500.02235174447,-187500.02235174447,-187500.02235174447
$SILENCE,14809.26004758597,-14544.369524046127,-22088.865588768196,-6602.660608608796,-187500.02235174447,-187500.02235174447,-187500.02235174447,-187500.02235174447
$SILENCE,14761.203797007061,-14586.547265833291,-22163.922746649117,-6653.60023422244,-187500.02235174447,-187500.02235174447,-187500.02235174447,-187500.02235174447
$SILENCE,14667.639394717145,-14619.471385415958,-22499.489486156643,-6649.621623709396,-187500.02235174447,-187500.02235174447,-187500.02235174447,-187500.02235174447
$SILENCE,14692.963921185008,-14587.508390844869,-22460.619802548863,-6603.755844087106,-187500.02235174447,-187500.02235174447,-187500.02235174447,-187500.02235174447
$SILENCE,14785.567198463345,-14553.153759617062,-22156.613726212232,-6576.196143173712,-187500.02235174447,-187500.02235174447,-187500.02235174447,-187500.02235174447
$SILENCE,14759.415657450636,-14595.443260126503,-22131.89269684466,-6645.978289363181,-187500.02235174447,-187500.02235174447,-187500.02235174447,-187500.02235174447
$SILENCE,14637.7551123804,-14630.356684965693,-22493.812143064995,-6678.410670567831,-187500.02235174447,-187500.02235174447,-187500.02235174447,-187500.02235174447
$SILENCE,14667.684098206057,-14579.484114585413,-22501.83641932445,-6632.924870601281,-187500.02235174447,-187500.02235174447,-187500.02235174447,-187500.02235174447
$SILENCE,14778.21347453755,-14558.49582654188,-22190.789543484396,-6602.459442908698,-187500.02235174447,-187500.02235174447,-187500.02235174447,-187500.02235174447
$SILENCE,14786.818896152843,-14578.187713407007,-22088.217388178993,-6655.254263312133,-187500.02235174447,-187500.02235174447,-187500.02235174447,-187500.02235174447
$SILENCE,14683.218560602494,-14594.012748481364,-22416.475107249633,-6681.2269903692,-187500.02235174447,-187500.02235174447,-187500.02235174447,-187500.02235174447
$SILENCE,14664.04076385984,-14586.03317571082,-22537.532155219575,-6622.777178618572,-187500.02235174447,-187500.02235174447,-187500.02235174447,-187500.02235174447
$SILENCE,14750.139683501684,-14552.59496600568,-22260.683448396143,-6581.135878698335,-187500.02235174447,-187500.02235174447,-187500.02235174447,-187500.02235174447
$SILENCE,14788.696442687089,-14550.40449504906,-22068.883129225153,-6635.942356102748,-187500.02235174447,-187500.02235174447,-187500.02235174447,-187500.02235174447
$SILENCE,14681.050441390329,-14601.478231129437,-22368.28474620399,-6683.41746132582,-187500.02235174447,-187500.02235174447,-187500.02235174447,-187500.02235174447
$SILENCE,14642.22546127146,-14598.728966561433,-22557.55931825153,-6637.506978214619,-187500.02235174447,-187500.02235174447,-187500.02235174447,-187500.02235174447
$SILENCE,14716.656770307634,-14554.494864284381,-22330.71146377462,-6599.732530085151,-187500.02235174447,-187500.02235174447,-187500.02235174447,-187500.02235174447
$SILENCE,14781.342718761292,-14544.861262424143,-22082.025954964873,-6630.60028917793,-187500.02235174447,-187500.02235174447,-187500.02235174447,-187500.02235174447
$SILENCE,14691.511057795413,-14594.213914181462,-22312.092460643347,-6672.2415890981665,-187500.02235174447,-187500.02235174447,-187500.02235174447,-187500.02235174447
$SILENCE,14640.593783926224,-14592.135201947118,-22567.639955000872,-6628.9239083437815,-187500.02235174447,-187500.02235174447,-187500.02235174447,-187500.02235174447
$SILENCE,14715.71799704051,-14553.26551833934,-22381.204054499158,-6592.40115790381,-187500.02235174447,-187500.02235174447,-187500.02235174447,-187500.02235174447
$SILENCE,14782.370899006237,-14544.727151957411,-22100.264978440402,-6639.384524748865,-187500.02235174447,-187500.02235174447,-187500.02235174447,-187500.02235174447
$SILENCE,14683.553836769324,-14608.764899821866,-22271.859320623797,-6703.265810402133,-187500.02235174447,-187500.02235174447,-187500.02235174447,-187500.02235174447
$SILENCE,14605.568600364757,-14604.540420119814,-22581.587443540986,-6671.861609442426,-187500.02235174447,-187500.02235174447,-187500.02235174447,-187500.02235174447
$SILENCE,14677.04947913283,-14560.105152142663,-22451.209718133177,-6604.359341187399,-187500.02235174447,-187500.02235174447,-187500.02235174447,-187500.02235174447
$SILENCE,14776.380631492215,-14523.604753447147,-22137.257115513938,-6609.612001134396,-187500.02235174447,-187500.02235174447,-187500.02235174447,-187500.02235174447
$SILENCE,14731.274811181405,-14562.183864377006,-22195.908092964663,-6695.263885887133,-187500.02235174447,-187500.02235174447,-187500.02235174447,-187500.02235174447
$SILENCE,14634.379998967648,-14605.32273117575,-22536.861602885914,-6694.995664953669,-187500.02235174447,-187500.02235174447,-187500.02235174447,-187500.02235174447
$SILENCE,14685.252569347927,-14573.27032962684,-22479.55173010251,-6623.470082696686,-187500.02235174447,-187500.02235174447,-187500.02235174447,-187500.02235174447
$SILENCE,14752.06193352484,-14548.392838048083,-22195.77398249793,-6615.490509926142,-187500.02235174447,-187500.02235174447,-187500.02235174447,-187500.02235174447
$SILENCE,14733.15235771565,-14573.31503311575,-22153.976220366505,-6658.852894169438,-187500.02235174447,-187500.02235174447,-187500.02235174447,-187500.02235174447
$SILENCE,14624.433472685037,-14603.668702086057,-22505.725622859674,-6680.467031057719,-187500.02235174447,-187500.02235174447,-187500.02235174447,-187500.02235174447
$SILENCE,14632.413045455582,-14595.309149659772,-22560.21917584171,-6657.668251713307,-187500.02235174447,-187500.02235174447,-187500.02235174447,-187500.02235174447
$SILENCE,14747.435122422592,-14526.711645926434,-22241.796224331407,-6622.9336408297595,-187500.02235174447,-187500.02235174447,-187500.02235174447,-187500.02235174447
$SILENCE,14764.243634252982,-14539.899175155066,-22113.47485941349,-6666.161914606323,-187500.02235174447,-187500.02235174447,-187500.02235174447,-187500.02235174447
$SILENCE,14643.61126942769,-14594.236265925916,-22447.25345936459,-6698.7731097666165,-187500.02235174447,-187500.02235174447,-187500.02235174447,-187500.02235174447
$SILENCE,14626.556888408291,-14596.180867693529,-22574.99367892667,-6648.682850442273,-187500.02235174447,-187500.02235174447,-187500.02235174447,-187500.02235174447
$SILENCE,14722.468223866013,-14544.727151957411,-22302.50356227202,-6630.868510111393,-187500.02235174447,-187500.02235174447,-187500.02235174447,-187500.02235174447
$SILENCE,14775.64302392519,-14528.276268038306,-22092.6653853256,-6654.2707865561,-187500.02235174447,-187500.02235174447,-187500.02235174447,-187500.02235174447
$SILENCE,14654.608327699701,-14592.6939955585,-22391.843484859884,-6696.225010898711,-187500.02235174447,-187500.02235174447,-187500.02235174447,-187500.02235174447
$SILENCE,14607.22262945445,-14579.037079696309,-22599.267673405135,-6677.069565900513,-187500.02235174447,-187500.02235174447,-187500.02235174447,-187500.02235174447
$SILENCE,14696.674310764589,-14530.265573294828,-22374.453827673653,-6639.496283471141,-187500.02235174447,-187500.02235174447,-187500.02235174447,-187500.02235174447
$SILENCE,14761.06968654033,-14517.435671977482,-22117.162897248614,-6652.2814812995775,-187500.02235174447,-187500.02235174447,-187500.02235174447,-187500.02235174447
$SILENCE,14660.151560324617,-14584.066222198751,-22341.686170302175,-6702.125871434912,-187500.02235174447,-187500.02235174447,-187500.02235174447,-187500.02235174447
$SILENCE,14607.98258876593,-14611.849440556698,-22603.42509787382,-6679.595313023962,-187500.02235174447,-187500.02235174447,-187500.02235174447,-187500.02235174447
$SILENCE,14684.33614782526,-14567.637690024101,-22436.949305170692,-6626.129940286868,-187500.02235174447,-187500.02235174447,-187500.02235174447,-187500.02235174447
$SILENCE,14761.740238873988,-14543.028419378808,-22143.85088012825,-6652.9296818887815,-187500.02235174447,-187500.02235174447,-187500.02235174447,-187500.02235174447
$SILENCE,14705.838525991265,-14550.851529938165,-22253.1509105147,-6684.311531104033,-187500.02235174447,-187500.02235174447,-187500.02235174447,-187500.02235174447
$SILENCE,14611.089481245219,-14589.452992612481,-22573.071428903513,-6673.493286787664,-187500.02235174447,-187500.02235174447,-187500.02235174447,-187500.02235174447
$SILENCE,14667.102952850219,-14565.603681278668,-22476.958927745694,-6646.872359141393,-187500.02235174447,-187500.02235174447,-187500.02235174447,-187500.02235174447
$SILENCE,14767.261119754448,-14533.752445429856,-22163.408656526644,-6640.010373593614,-187500.02235174447,-187500.02235174447,-187500.02235174447,-187500.02235174447
$SILENCE,14721.7753197879,-14567.883559213109,-22212.180162928125,-6711.357141894954,-187500.02235174447,-187500.02235174447,-187500.02235174447,-187500.02235174447
$SILENCE,14617.839708070722,-14589.922379246043,-22557.469911273707,-6716.52039486413,-187500.02235174447,-187500.02235174447,-187500.02235174447,-187500.02235174447
$SILENCE,14649.42272298607,-14562.429733566016,-22538.426224997787,-6664.150257605345,-187500.02235174447,-187500.02235174447,-187500.02235174447,-187500.02235174447
$SILENCE,14738.270907195916,-14519.223811533906,-22237.951724285096,-6668.642958240862,-187500.02235174447,-187500.02235174447,-187500.02235174447,-187500.02235174447
$SILENCE,14732.48180538199,-14548.325782814716,-22167.2308048285,-6700.583601067496,-187500.02235174447,-187500.02235174447,-187500.02235174447,-187500.02235174447
$SILENCE,14631.474272188458,-14614.352835935693,-22492.471038397674,-6694.66038878684,-187500.02235174447,-187500.02235174447,-187500.02235174447,-187500.02235174447
não,14646.338182251238,-14595.666777571056,-22552.060789115523,-6635.428265980276,-187500.02235174447,-187500.02235174447,-187500.02235174447,-187500.02235174447
não,14738.695590340567,-14563.480265555414,-22267.523082199466,-6629.683867655262,-187500.02235174447,-187500.02235174447,-187500.02235174447,-187500.02235174447
não,14747.412770678136,-14553.421980550525,-22135.67014165761,-6685.0938421599685,-187500.02235174447,-187500.02235174447,-187500.02235174447,-187500.02235174447
não,14617.236210970428,-14591.241132168905,-22472.600337576907,-6726.33281068001,-187500.02235174447,-187500.02235174447,-187500.02235174447,-187500.02235174447
não,14617.437376670525,-14567.101248157174,-22596.80898151505,-6680.422327568809,-187500.02235174447,-187500.02235174447,-187500.02235174447,-187500.02235174447
não,14724.77045354491,-14543.87778566811,-22325.637617783264,-6640.747981160639,-187500.02235174447,-187500.02235174447,-187500.02235174447,-187500.02235174447
não,14770.882102356209,-14539.027457121309,-22112.111403001716,-6661.423344781798,-187500.02235174447,-187500.02235174447,-187500.02235174447,-187500.02235174447
não,14661.939699881043,-14600.740623562411,-22378.030106786504,-6701.812947012538,-187500.02235174447,-187500.02235174447,-187500.02235174447,-187500.02235174447
não,14617.45972841498,-14612.072958001252,-22590.03640294509,-6678.5224292901075,-187500.02235174447,-187500.02235174447,-187500.02235174447,-187500.02235174447
não,14701.681101522578,-14555.433637551503,-22387.19432201318,-6625.258222253111,-187500.02235174447,-187500.02235174447,-187500.02235174447,-187500.02235174447
não,14769.205721522061,-14537.7310559429,-22122.393205451157,-6635.875300869382,-187500.02235174447,-187500.02235174447,-187500.02235174447,-187500.02235174447
não,14679.686984978556,-14584.535608832313,-22316.808678723417,-6722.37655191142,-187500.02235174447,-187500.02235174447,-187500.02235174447,-187500.02235174447
não,14606.753242820889,-14598.974835750441,-22597.90421699336,-6709.814871527537,-187500.02235174447,-187500.02235174447,-187500.02235174447,-187500.02235174447
não,14673.406144786615,-14566.967137690443,-22454.651886779295,-6654.516655745108,-187500.02235174447,-187500.02235174447,-187500.02235174447,-187500.02235174447
não,14767.328174987815,-14540.055637366253,-22143.582659194788,-6669.671138485806,-187500.02235174447,-187500.02235174447,-187500.02235174447,-187500.02235174447
não,14715.248610406949,-14581.160495419563,-22242.3997214317,-6727.0704182470345,-187500.02235174447,-187500.02235174447,-187500.02235174447,-187500.02235174447
não,14623.025312784352,-14618.532612148836,-22564.443655543764,-6705.903316247859,-187500.02235174447,-187500.02235174447,-187500.02235174447,-187500.02235174447
não,14668.131133095161,-14562.027402165819,-22485.27377668307,-6654.494304000653,-187500.02235174447,-187500.02235174447,-187500.02235174447,-187500.02235174447
não,14754.654735881655,-14536.702875697956,-22185.514531792945,-6658.227045324689,-187500.02235174447,-187500.02235174447,-187500.02235174447,-187500.02235174447
não,14721.082415709785,-14568.621166780134,-22197.271549376437,-6705.836261014493,-187500.02235174447,-187500.02235174447,-187500.02235174447,-187500.02235174447
não,14604.808641053278,-14604.428661397536,-22543.947105878247,-6718.442644887286,-187500.02235174447,-187500.02235174447,-187500.02235174447,-187500.02235174447
não,14630.401388454604,-14575.393745350093,-22542.78481516657,-6657.93647264677,-187500.02235174447,-187500.02235174447,-187500.02235174447,-187500.02235174447
não,14730.067816980818,-14549.868053182132,-22240.03043651944,-6639.093952070946,-187500.02235174447,-187500.02235174447,-187500.02235174447,-187500.02235174447
não,14732.839433293277,-14550.113922371142,-22160.2794123029,-6704.1151766914345,-187500.02235174447,-187500.02235174447,-187500.02235174447,-187500.02235174447
não,14631.8542518442,-14583.060393698264,-22492.26987269758,-6718.219127442733,-187500.02235174447,-187500.02235174447,-187500.02235174447,-187500.02235174447
não,14649.936813108543,-14564.284928355806,-22554.117149605412,-6656.438905768265,-187500.02235174447,-187500.02235174447,-187500.02235174447,-187500.02235174447
não,14729.777244302899,-14538.848643165666,-22287.952576631615,-6648.660498697817,-187500.02235174447,-187500.02235174447,-187500.02235174447,-187500.02235174447
não,14749.558538145846,-14547.87874792561,-22134.75372013494,-6687.999568939158,-187500.02235174447,-187500.02235174447,-187500.02235174447,-187500.02235174447
não,14630.244926243417,-14584.446201854493,-22439.519755783054,-6719.068493732035,-187500.02235174447,-187500.02235174447,-187500.02235174447,-187500.02235174447
não,14603.802812552789,-14569.828160980722,-22597.993623971182,-6684.199772381756,-187500.02235174447,-187500.02235174447,-187500.02235174447,-187500.02235174447
não,14691.220485117494,-14523.649456936057,-22365.311964191435,-6663.546760505053,-187500.02235174447,-187500.02235174447,-187500.02235174447,-187500.02235174447
não,14737.220375206516,-14523.627105191603,-22140.654580671144,-6683.551571792552,-187500.02235174447,-187500.02235174447,-187500.02235174447,-187500.02235174447
não,14646.449940973514,-14571.750411003877,-22392.37992672681,-6723.605897856462,-187500.02235174447,-187500.02235174447,-187500.02235174447,-187500.02235174447
não,14597.231399682929,-14578.254768640372,-22610.130621210414,-6679.349443834954,-187500.02235174447,-187500.02235174447,-187500.02235174447,-187500.02235174447
não,14681.47512453498,-14543.564861245735,-22411.66948219174,-6623.470082696686,-187500.02235174447,-187500.02235174447,-187500.02235174447,-187500.02235174447
não,14742.048352008862,-14527.695122682468,-22145.817833640318,-6647.408801008321,-187500.02235174447,-187500.02235174447,-187500.02235174447,-187500.02235174447
não,14650.540310208835,-14572.040983681796,-22336.746434777553,-6716.296877419577,-187500.02235174447,-187500.02235174447,-187500.02235174447,-187500.02235174447
não,14575.393745350093,-14583.529780331824,-22626.80502257407,-6714.933421007803,-187500.02235174447,-187500.02235174447,-187500.02235174447,-187500.02235174447
não,14644.035952572342,-14536.21113731994,-22485.11731447188,-6675.683757744284,-187500.02235174447,-187500.02235174447,-187500.02235174447,-187500.02235174447
não,14728.43613963558,-14503.39877645955,-22184.195778870082,-6670.408746052832,-187500.02235174447,-187500.02235174447,-187500.02235174447,-187500.02235174447
não,14653.088409076741,-14536.859337909144,-22278.967175360583,-6719.80610129906,-187500.02235174447,-187500.02235174447,-187500.02235174447,-187500.02235174447
não,14566.207178378962,-14574.700841271979,-22603.24628391818,-6713.838185529493,-187500.02235174447,-187500.02235174447,-187500.02235174447,-187500.02235174447
não,14620.968952294465,-14559.233434108906,-22530.31254176051,-6647.386449263865,-187500.02235174447,-187500.02235174447,-187500.02235174447,-187500.02235174447
não,14724.524584355902,-14528.991523860876,-22224.227753189534,-6637.2164055367,-187500.02235174447,-187500.02235174447,-187500.02235174447,-187500.02235174447
não,14696.406089831125,-14554.7854369623,-22223.15486945568,-6694.213353897733,-187500.02235174447,-187500.02235174447,-187500.02235174447,-187500.02235174447
não,14579.484114585413,-14589.184771679018,-22574.792513226574,-6704.361045880443,-187500.02235174447,-187500.02235174447,-187500.02235174447,-187500.02235174447
não,14607.043815498808,-14532.21017506244,-22581.363926096434,-6652.88497839987,-187500.02235174447,-187500.02235174447,-187500.02235174447,-187500.02235174447
não,14705.52560156889,-14504.20343925994,-22281.761143417498,-6655.254263312133,-187500.02235174447,-187500.02235174447,-187500.02235174447,-187500.02235174447
não,14704.7209387685,-14522.956552857942,-22193.5388080524,-6704.048121458069,-187500.02235174447,-187500.02235174447,-187500.02235174447,-187500.02235174447
não,14585.899065244088,-14556.998259663376,-22529.351416748934,-6729.953793281769,-187500.02235174447,-187500.02235174447,-187500.02235174447,-187500.02235174447
não,14583.306262887272,-14559.971041675932,-22616.545571869086,-6685.876153215904,-187500.02235174447,-187500.02235174447,-187500.02235174447,-187500.02235174447
não,14681.43042104607,-14542.871957167621,-22348.659914572232,-6645.397144007343,-187500.02235174447,-187500.02235174447,-187500.02235174447,-187500.02235174447
não,14720.657732565134,-14524.521174969814,-22170.024772885416,-6670.162876863823,-187500.02235174447,-187500.02235174447,-187500.02235174447,-187500.02235174447
não,14600.6959200735,-14554.383105562105,-22469.694610797716,-6701.365912123431,-187500.02235174447,-187500.02235174447,-187500.02235174447,-187500.02235174447
não,14574.924358716531,-14551.656192738557,-22643.367665215454,-6666.228969839689,-187500.02235174447,-187500.02235174447,-187500.02235174447,-187500.02235174447
não,14651.412028242592,-14521.235468534884,-22416.653921205274,-6636.478797969676,-187500.02235174447,-187500.02235174447,-187500.02235174447,-187500.02235174447
não,14710.778261515889,-14507.936180583976,-22176.037392143895,-6650.560396976519,-187500.02235174447,-187500.02235174447,-187500.02235174447,-187500.02235174447
não,14613.347007435204,-14560.283966098306,-22407.66851993424,-6689.899467217859,-187500.02235174447,-187500.02235174447,-187500.02235174447,-187500.02235174447
não,14560.820407965233,-14555.008954406852,-22652.263659508666,-6656.930644146281,-187500.02235174447,-187500.02235174447,-187500.02235174447,-187500.02235174447
não,14617.727949348444,-14523.895326125066,-22513.056995041014,-6629.996792077636,-187500.02235174447,-187500.02235174447,-187500.02235174447,-187500.02235174447
não,14705.167973657606,-14504.91869508251,-22214.504744351478,-6624.766483875094,-187500.02235174447,-187500.02235174447,-187500.02235174447,-187500.02235174447
não,14643.387751983137,-14545.263593824338,-22357.13122572079,-6675.951978677747,-187500.02235174447,-187500.02235174447,-187500.02235174447,-187500.02235174447
não,14545.464759524437,-14576.533684317314,-22689.456962282296,-6673.582693765485,-187500.02235174447,-187500.02235174447,-187500.02235174447,-187500.02235174447
não,14621.304228461293,-14534.244183807872,-22543.61182971142,-6606.773329588572,-187500.02235174447,-187500.02235174447,-187500.02235174447,-187500.02235174447
não,14709.973598715496,-14499.755442113334,-22223.82542178934,-6602.682960353251,-187500.02235174447,-187500.02235174447,-187500.02235174447,-187500.02235174447
não,14624.880507574144,-14560.015745164841,-22365.021391513514,-6700.293028389577,-187500.02235174447,-187500.02235174447,-187500.02235174447,-187500.02235174447
não,14558.652288753068,-14575.438448839004,-22656.1975665328,-6669.917007674815,-187500.02235174447,-187500.02235174447,-187500.02235174447,-187500.02235174447
não,14566.944785945987,-14586.010823966364,-22670.949717873304,-6656.12598134589,-187500.02235174447,-187500.02235174447,-187500.02235174447,-187500.02235174447
não,14666.678269705568,-14555.612451507146,-22345.955353493136,-6625.012353064103,-187500.02235174447,-187500.02235174447,-187500.02235174447,-187500.02235174447
não,14660.911519636098,-14583.730946031923,-22329.21389689611,-6687.463127072231,-187500.02235174447,-187500.02235174447,-187500.02235174447,-187500.02235174447
não,14569.448181324982,-14624.232306984939,-22657.851595622495,-6701.410615612343,-187500.02235174447,-187500.02235174447,-187500.02235174447,-187500.02235174447
não,14605.792117809311,-14617.325617948249,-22603.67096706283,-6625.593498419941,-187500.02235174447,-187500.02235174447,-187500.02235174447,-187500.02235174447
não,14728.816119291321,-14571.906873215064,-22254.82729134885,-6563.925035467749,-187500.02235174447,-187500.02235174447,-187500.02235174447,-187500.02235174447
não,14690.751098483934,-14567.190655134995,-22320.74258574755,-6662.719745960206,-187500.02235174447,-187500.02235174447,-187500.02235174447,-187500.02235174447
não,14590.54822809079,-14624.27701047385,-22624.1898684728,-6699.175441166812,-187500.02235174447,-187500.02235174447,-187500.02235174447,-187500.02235174447
não,14575.192579649995,-14642.47133046047,-22777.254614502745,-6682.769260736616,-187500.02235174447,-187500.02235174447,-187500.02235174447,-187500.02235174447
não,14689.767621727899,-14598.348986905694,-22470.96866023167,-6630.510882200108,-187500.02235174447,-187500.02235174447,-187500.02235174447,-187500.02235174447
não,14746.451645666559,-14583.909759987566,-22240.678637108642,-6626.062885053502,-187500.02235174447,-187500.02235174447,-187500.02235174447,-187500.02235174447
não,14627.115682019674,-14638.492719947424,-22540.46023374322,-6673.336824576477,-187500.02235174447,-187500.02235174447,-187500.02235174447,-187500.02235174447
não,14605.434489898025,-14631.6530861441,-22699.291729842633,-6623.447730952231,-187500.02235174447,-187500.02235174447,-187500.02235174447,-187500.02235174447
não,14698.86478172121,-14604.898048031098,-22451.030904177536,-6586.92498051226,-187500.02235174447,-187500.02235174447,-187500.02235174447,-187500.02235174447
não,14756.934613816096,-14607.669664343557,-22183.592281769786,-6602.906477797804,-187500.02235174447,-187500.02235174447,-187500.02235174447,-187500.02235174447
não,14665.828903416266,-14652.41785674308,-22452.17084314476,-6646.715896930206,-187500.02235174447,-187500.02235174447,-187500.02235174447,-187500.02235174447
não,14615.023388269352,-14654.921252122076,-22707.02543342417,-6606.259239466101,-187500.02235174447,-187500.02235174447,-187500.02235174447,-187500.02235174447
não,14702.776337000889,-14622.667684873068,-22503.870428069884,-6557.979471442637,-187500.02235174447,-187500.02235174447,-187500.02235174447,-187500.02235174447
não,14778.481695471013,-14604.31690267526,-22218.46100312007,-6589.87541078036,-187500.02235174447,-187500.02235174447,-187500.02235174447,-187500.02235174447
não,14703.268075378905,-14636.101083290707,-22347.967010494114,-6630.354419988921,-187500.02235174447,-187500.02235174447,-187500.02235174447,-187500.02235174447
não,14628.389731453626,-14648.506301463403,-22644.976990816234,-6590.702425325207,-187500.02235174447,-187500.02235174447,-187500.02235174447,-187500.02235174447
não,14700.474107321992,-14613.302303946293,-22526.021006825093,-6547.317689337456,-187500.02235174447,-187500.02235174447,-187500.02235174447,-187500.02235174447
não,14790.037547354406,-14585.921416988544,-22220.003273487484,-6559.342927854411,-187500.02235174447,-187500.02235174447,-187500.02235174447,-187500.02235174447
não,14732.638267593178,-14617.03504527033,-22279.12363757177,-6607.823861577972,-187500.02235174447,-187500.02235174447,-187500.02235174447,-187500.02235174447
não,14625.975743052453,-14643.387751983137,-22632.48236566572,-6609.790815090038,-187500.02235174447,-187500.02235174447,-187500.02235174447,-187500.02235174447
não,14679.552874511824,-14612.922324290554,-22574.121960892913,-6537.684087477218,-187500.02235174447,-187500.02235174447,-187500.02235174447,-187500.02235174447
não,14796.966588135552,-14594.482135114926,-22250.98279130254,-6532.811407185961,-187500.02235174447,-187500.02235174447,-187500.02235174447,-187500.02235174447
não,14798.061823613862,-14594.258617670372,-22198.836171488307,-6600.403082418809,-187500.02235174447,-187500.02235174447,-187500.02235174447,-187500.02235174447
não,14689.857028705721,-14639.811472870288,-22534.626428440384,-6627.9851350766585,-187500.02235174447,-187500.02235174447,-187500.02235174447,-187500.02235174447
não,14696.964883442508,-14641.733722893445,-22578.972289439713,-6597.430300406254,-187500.02235174447,-187500.02235174447,-187500.02235174447,-187500.02235174447
não,14788.919960131641,-14605.210972453473,-22292.489980756043,-6562.449820333698,-187500.02235174447,-187500.02235174447,-187500.02235174447,-187500.02235174447
não,14800.78873643741,-14612.587048123723,-22179.6360230012,-6607.488585411142,-187500.02235174447,-187500.02235174447,-187500.02235174447,-187500.02235174447
não,14681.497476279435,-14666.56651098329,-22509.63717813935,-6653.3990685223425,-187500.02235174447,-187500.02235174447,-187500.02235174447,-187500.02235174447
não,14660.084505091252,-14656.016487600386,-22629.308417953067,-6598.2573149511,-187500.02235174447,-187500.02235174447,-187500.02235174447,-187500.02235174447
não,14737.086264739784,-14625.729873863445,-22380.689964376685,-6587.327311912455,-187500.02235174447,-187500.02235174447,-187500.02235174447,-187500.02235174447
não,14779.331061760315,-14644.885318861643,-22187.21326437155,-6634.69065841325,-187500.02235174447,-187500.02235174447,-187500.02235174447,-187500.02235174447
não,14660.375077769171,-14678.301176822326,-22467.34767762991,-6656.84123716846,-187500.02235174447,-187500.02235174447,-187500.02235174447,-187500.02235174447
não,14621.907725561587,-14675.864836676697,-22660.176177045843,-6611.713065113195,-187500.02235174447,-187500.02235174447,-187500.02235174447,-187500.02235174447
não,14710.48768883797,-14639.766769381378,-22432.925991168737,-6594.032835249047,-187500.02235174447,-187500.02235174447,-187500.02235174447,-187500.02235174447
não,14778.146419304183,-14620.812490083277,-22187.503837049466,-6620.609059406407,-187500.02235174447,-187500.02235174447,-187500.02235174447,-187500.02235174447
não,14684.403203058626,-14676.04365063234,-22407.802630400973,-6688.558362550541,-187500.02235174447,-187500.02235174447,-187500.02235174447,-187500.02235174447
não,14615.671588858557,-14686.370156570692,-22672.022601607157,-6671.392222808865,-187500.02235174447,-187500.02235174447,-187500.02235174447,-187500.02235174447
não,14694.103860152229,-14647.478121218459,-22503.1104687584,-6616.004600048614,-187500.02235174447,-187500.02235174447,-187500.02235174447,-187500.02235174447
não,14778.30288151537,-14619.761958093877,-22215.77879378543,-6610.126091256869,-187500.02235174447,-187500.02235174447,-187500.02235174447,-187500.02235174447
não,14708.565438814812,-14659.011621357397,-22341.976742980092,-6659.188170336267,-187500.02235174447,-187500.02235174447,-187500.02235174447,-187500.02235174447
não,14616.856231314689,-14689.231179860972,-22661.137302057425,-6662.429173282287,-187500.02235174447,-187500.02235174447,-187500.02235174447,-187500.02235174447
não,14675.283691320861,-14657.916385879087,-22567.595251511964,-6621.279611740067,-187500.02235174447,-187500.02235174447,-187500.02235174447,-187500.02235174447
não,14763.058991796852,-14632.99419081142,-22246.132462755737,-6613.232983736156,-187500.02235174447,-187500.02235174447,-187500.02235174447,-187500.02235174447
não,14742.763607831432,-14621.326580205749,-22265.779646131952,-6652.572053977497,-187500.02235174447,-187500.02235174447,-187500.02235174447,-187500.02235174447
não,14640.862004859688,-14656.172949811573,-22604.922664752325,-6648.2358155531665,-187500.02235174447,-187500.02235174447,-187500.02235174447,-187500.02235174447
não,14664.644260960134,-14658.85515914621,-22586.61658604343,-6590.791832303028,-187500.02235174447,-187500.02235174447,-187500.02235174447,-187500.02235174447
não,14759.594471406279,-14618.286742959828,-22288.13139058726,-6604.851079565416,-187500.02235174447,-187500.02235174447,-187500.02235174447,-187500.02235174447
não,14738.829700807299,-14640.549080437313,-22239.046959763404,-6692.55932480804,-187500.02235174447,-187500.02235174447,-187500.02235174447,-187500.02235174447
não,14636.101083290707,-14704.028034690386,-22582.772085997116,-6716.6768570753175,-187500.02235174447,-187500.02235174447,-187500.02235174447,-187500.02235174447
não,14655.547100966824,-14664.286633048849,-22619.71951958174,-6644.7712951625945,-187500.02235174447,-187500.02235174447,-187500.02235174447,-187500.02235174447
não,14743.434160165092,-14616.967990036965,-22328.252771884534,-6614.194108747734,-187500.02235174447,-187500.02235174447,-187500.02235174447,-187500.02235174447
não,14740.506081641446,-14619.069054015763,-22197.942101710094,-6634.243623524145,-187500.02235174447,-187500.02235174447,-187500.02235174447,-187500.02235174447
não,14641.08552230424,-14672.33326105276,-22538.89561163135,-6669.291158830066,-187500.02235174447,-187500.02235174447,-187500.02235174447,-187500.02235174447
não,14626.13220526364,-14672.288557563848,-22675.19654931981,-6649.889844642859,-187500.02235174447,-187500.02235174447,-187500.02235174447,-187500.02235174447
não,14724.546936100358,-14603.534591619326,-22406.841505389395,-6607.756806344606,-187500.02235174447,-187500.02235174447,-187500.02235174447,-187500.02235174447
não,14768.11048604375,-14619.292571460317,-22181.67003174663,-6641.7761614055835,-187500.02235174447,-187500.02235174447,-187500.02235174447,-187500.02235174447
não,14664.376040026671,-14668.265243561895,-22443.364255829365,-6678.70124324575,-187500.02235174447,-187500.02235174447,-187500.02235174447,-187500.02235174447
não,14619.158460993584,-14645.108836306195,-22657.71748515576,-6648.504036486631,-187500.02235174447,-187500.02235174447,-187500.02235174447,-187500.02235174447
não,14701.81521198931,-14629.753187865399,-22454.00368619009,-6649.778085920583,-187500.02235174447,-187500.02235174447,-187500.02235174447,-187500.02235174447
não,14772.11144830125,-14620.99130403892,-22204.82643900233,-6664.262016327622,-187500.02235174447,-187500.02235174447,-187500.02235174447,-187500.02235174447
não,14689.052365905329,-14664.621909215679,-22401.611197186852,-6704.383397624898,-187500.02235174447,-187500.02235174447,-187500.02235174447,-187500.02235174447
não,14623.092368017718,-14690.95226418403,-22673.16254057438,-6688.066624172524,-187500.02235174447,-187500.02235174447,-187500.02235174447,-187500.02235174447
não,14709.235991148471,-14638.872699603166,-22511.090041528947,-6628.655687410318,-187500.02235174447,-187500.02235174447,-187500.02235174447,-187500.02235174447
não,14768.892797099687,-14595.107983959673,-22212.761308283963,-6629.706219399717,-187500.02235174447,-187500.02235174447,-187500.02235174447,-187500.02235174447
não,14687.890075193654,-14624.142900007118,-22334.667722543207,-6684.535048548585,-187500.02235174447,-187500.02235174447,-187500.02235174447,-187500.02235174447
não,14579.014727951853,-14664.063115604296,-22657.091636311012,-6679.505906046142,-187500.02235174447,-187500.02235174447,-187500.02235174447,-187500.02235174447
não,14622.578277895247,-14641.376094982159,-22556.151158350847,-6626.353457731421,-187500.02235174447,-187500.02235174447,-187500.02235174447,-187500.02235174447
não,14718.981351730985,-14602.819335796756,-22269.422980478168,-6632.522539201086,-187500.02235174447,-187500.02235174447,-187500.02235174447,-187500.02235174447
não,14725.709226812032,-14620.901897061098,-22270.339402000835,-6686.434946827287,-187500.02235174447,-187500.02235174447,-187500.02235174447,-187500.02235174447
não,14665.7618481829,-14650.696772420022,-22595.17730416981,-6673.582693765485,-187500.02235174447,-187500.02235174447,-187500.02235174447,-187500.02235174447
não,14659.592766713235,-14601.65704508508,-22601.704013550763,-6619.35736171691,-187500.02235174447,-187500.02235174447,-187500.02235174447,-187500.02235174447
não,14716.477956351991,-14560.574538776225,-22290.858303410805,-6602.459442908698,-187500.02235174447,-187500.02235174447,-187500.02235174447,-187500.02235174447
não,14707.336092869771,-14592.649292069591,-22226.105299723782,-6644.368963762398,-187500.02235174447,-187500.02235174447,-187500.02235174447,-187500.02235174447
não,14585.295568143794,-14615.805699325289,-22595.579635570008,-6679.952940935247,-187500.02235174447,-187500.02235174447,-187500.02235174447,-187500.02235174447
não,14611.201239967495,-14552.662021239046,-22633.711711610762,-6609.723759856673,-187500.02235174447,-187500.02235174447,-187500.02235174447,-187500.02235174447
não,14693.500363051935,-14563.279099855317,-22359.09817923286,-6588.757823557595,-187500.02235174447,-187500.02235174447,-187500.02235174447,-187500.02235174447
não,14728.525546613402,-14574.276158127328,-22194.25406387497,-6636.165873547301,-187500.02235174447,-187500.02235174447,-187500.02235174447,-187500.02235174447
não,14633.865908845177,-14607.021463754352,-22501.389384435344,-6670.967539664214,-187500.02235174447,-187500.02235174447,-187500.02235174447,-187500.02235174447
não,14614.062263257774,-14613.101138246197,-22646.943944328304,-6637.730495659172,-187500.02235174447,-187500.02235174447,-187500.02235174447,-187500.02235174447
não,14683.643243747145,-14576.488980828402,-22412.585903714407,-6601.16304173029,-187500.02235174447,-187500.02235174447,-187500.02235174447,-187500.02235174447
não,14707.894886481154,-14588.558922834269,-22216.561104841367,-6655.2766150565885,-187500.02235174447,-187500.02235174447,-187500.02235174447,-187500.02235174447
não,14634.000019311909,-14619.985475538431,-22470.789846276028,-6708.5184703491295,-187500.02235174447,-187500.02235174447,-187500.02235174447,-187500.02235174447
não,14624.99226629642,-14575.974890705931,-22666.68053468234,-6660.641033725862,-187500.02235174447,-187500.02235174447,-187500.02235174447,-187500.02235174447
não,14694.439136319059,-14537.328724542705,-22478.747067302116,-6594.390463160332,-187500.02235174447,-187500.02235174447,-187500.02235174447,-187500.02235174447
não,14757.716924872033,-14513.568820186714,-22179.56896776783,-6570.563503570975,-187500.02235174447,-187500.02235174447,-187500.02235174447,-187500.02235174447
não,14694.774412485887,-14581.138143675107,-22337.3722836223,-6621.190204762245,-187500.02235174447,-187500.02235174447,-187500.02235174447,-187500.02235174447
não,14625.819280841266,-14633.687094889534,-22638.874964579936,-6625.481739697664,-187500.02235174447,-187500.02235174447,-187500.02235174447,-187500.02235174447
não,14676.33422331026,-14560.082800398208,-22518.60022766593,-6586.723814812161,-187500.02235174447,-187500.02235174447,-187500.02235174447,-187500.02235174447
não,14772.804352379366,-14487.752555340834,-22220.584418843322,-6597.318541683977,-187500.02235174447,-187500.02235174447,-187500.02235174447,-187500.02235174447
não,14720.925953498598,-14524.007084847342,-22300.916588415694,-6664.641995983362,-187500.02235174447,-187500.02235174447,-187500.02235174447,-187500.02235174447
não,14654.630679444157,-14586.346100133194,-22595.222007658722,-6644.41366725131,-187500.02235174447,-187500.02235174447,-187500.02235174447,-187500.02235174447
não,14700.80938348882,-14578.344175618193,-22515.493335186642,-6580.040643220025,-187500.02235174447,-187500.02235174447,-187500.02235174447,-187500.02235174447
não,14776.201817536572,-14549.68923922649,-22222.081985721827,-6581.538210098531,-187500.02235174447,-187500.02235174447,-187500.02235174447,-187500.02235174447
não,14745.19994797706,-14565.961309189954,-22228.31812242486,-6641.530292216575,-187500.02235174447,-187500.02235174447,-187500.02235174447,-187500.02235174447
não,14655.547100966824,-14589.296530401294,-22558.98982989667,-6636.277632269577,-187500.02235174447,-187500.02235174447,-187500.02235174447,-187500.02235174447
não,14694.282674107872,-14565.760143489855,-22558.85571942994,-6570.384689615333,-187500.02235174447,-187500.02235174447,-187500.02235174447,-187500.02235174447
não,14761.516721429434,-14525.191727303474,-22285.672698697173,-6576.486715851631,-187500.02235174447,-187500.02235174447,-187500.02235174447,-187500.02235174447
não,14768.892797099687,-14527.784529660288,-22193.181180141113,-6630.913213600304,-187500.02235174447,-187500.02235174447,-187500.02235174447,-187500.02235174447
não,14677.675327977578,-14574.454972082971,-22513.526381674576,-6657.93647264677,-187500.02235174447,-187500.02235174447,-187500.02235174447,-187500.02235174447
não,14683.017394902397,-14573.091515671196,-22594.350289624967,-6595.552753872008,-187500.02235174447,-187500.02235174447,-187500.02235174447,-187500.02235174447
não,14767.439933710091,-14550.918585171532,-22324.69884451614,-6556.146628397301,-187500.02235174447,-187500.02235174447,-187500.02235174447,-187500.02235174447
não,14790.439878754602,-14540.59207923318,-22166.269679816924,-6617.971553560681,-187500.02235174447,-187500.02235174447,-187500.02235174447,-187500.02235174447
não,14670.031031373863,-14608.764899821866,-22482.032773737046,-6681.070528158013,-187500.02235174447,-187500.02235174447,-187500.02235174447,-187500.02235174447
não,14663.772542926377,-14557.624108508124,-22624.346330683988,-6595.35158817191,-187500.02235174447,-187500.02235174447,-187500.02235174447,-187500.02235174447
não,14787.891779886697,-14490.01008153082,-22335.740606277064,-6539.516930522554,-187500.02235174447,-187500.02235174447,-187500.02235174447,-187500.02235174447
não,14836.50682407699,-14510.238410262873,-22106.769336076897,-6579.928884497748,-187500.02235174447,-187500.02235174447,-187500.02235174447,-187500.02235174447
não,14724.122252955707,-14577.69597502899,-22380.19822599867,-6672.040423398069,-187500.02235174447,-187500.02235174447,-187500.02235174447,-187500.02235174447
não,14673.160275597606,-14584.446201854493,-22624.636903361905,-6648.772257420094,-187500.02235174447,-187500.02235174447,-187500.02235174447,-187500.02235174447
não,14743.903546798652,-14530.600849461658,-22432.791880702007,-6619.670286139284,-187500.02235174447,-187500.02235174447,-187500.02235174447,-187500.02235174447
não,14826.850870472297,-14498.01200604582,-22131.691531144566,-6627.1581205318125,-187500.02235174447,-187500.02235174447,-187500.02235174447,-187500.02235174447
não,14760.82381735132,-14534.713570441434,-22295.239245324046,-6641.3067747720215,-187500.02235174447,-187500.02235174447,-187500.02235174447,-187500.02235174447
não,14677.138886110652,-14593.275140914338,-22601.480496106207,-6624.207690263712,-187500.02235174447,-187500.02235174447,-187500.02235174447,-187500.02235174447
não,14739.857881052243,-14568.21883537994,-22474.477884111155,-6588.601361346407,-187500.02235174447,-187500.02235174447,-187500.02235174447,-187500.02235174447
não,14802.107489360273,-14556.439466051992,-22189.739011494996,-6620.83257685096,-187500.02235174447,-187500.02235174447,-187500.02235174447,-187500.02235174447
não,14740.684895597089,-14590.637635068613,-22270.942899101126,-6665.558417506029,-187500.02235174447,-187500.02235174447,-187500.02235174447,-187500.02235174447
não,14680.938682668053,-14538.245146065372,-22564.890690432872,-6644.972460862692,-187500.02235174447,-187500.02235174447,-187500.02235174447,-187500.02235174447
não,14747.122198000217,-14514.105262053641,-22491.68872734174,-6571.0999454379025,-187500.02235174447,-187500.02235174447,-187500.02235174447,-187500.02235174447
não,14822.715797748066,-14513.166488786519,-22179.121932878727,-6599.911344040793,-187500.02235174447,-187500.02235174447,-187500.02235174447,-187500.02235174447
não,14805.527306261934,-14564.73196324491,-22163.408656526644,-6654.382545278376,-187500.02235174447,-187500.02235174447,-187500.02235174447,-187500.02235174447
não,14693.276845607383,-14599.466574128459,-22528.12207080389,-6653.197902822245,-187500.02235174447,-187500.02235174447,-187500.02235174447,-187500.02235174447
não,14716.142680185161,-14554.36075381765,-22541.37665526589,-6623.246565252133,-187500.02235174447,-187500.02235174447,-187500.02235174447,-187500.02235174447
não,14810.17646910864,-14510.037244562775,-22238.331703940836,-6608.382655189354,-187500.02235174447,-187500.02235174447,-187500.02235174447,-187500.02235174447
não,14821.061768658374,-14527.896288382566,-22124.51662117441,-6638.043420081547,-187500.02235174447,-187500.02235174447,-187500.02235174447,-187500.02235174447
não,14710.95707547153,-14582.591007064702,-22468.10763694139,-6665.647824483851,-187500.02235174447,-187500.02235174447,-187500.02235174447,-187500.02235174447
não,14717.550840085845,-14582.948634975986,-22567.304678834043,-6630.063847311002,-187500.02235174447,-187500.02235174447,-187500.02235174447,-187500.02235174447
não,14798.039471869406,-14526.845756393166,-22297.921454658685,-6615.35639945941,-187500.02235174447,-187500.02235174447,-187500.02235174447,-187500.02235174447
não,14831.477681574546,-14515.714587654424,-22118.7722228494,-6648.168760319801,-187500.02235174447,-187500.02235174447,-187500.02235174447,-187500.02235174447
não,14737.242726950972,-14594.772707792845,-22406.170953055735,-6661.512751759619,-187500.02235174447,-187500.02235174447,-187500.02235174447,-187500.02235174447
não,14725.083377967285,-14598.617207839157,-22564.80128345505,-6605.476928410164,-187500.02235174447,-187500.02235174447,-187500.02235174447,-187500.02235174447
não,14812.523402276445,-14525.437596492482,-22357.153577465248,-6586.2544281786,-187500.02235174447,-187500.02235174447,-187500.02235174447,-187500.02235174447
não,14838.607888055789,-14508.606732917635,-22121.499135672944,-6622.106626284913,-187500.02235174447,-187500.02235174447,-187500.02235174447,-187500.02235174447
não,14750.184386990595,-14589.810620523765,-22336.05353069944,-6682.858667714438,-187500.02235174447,-187500.02235174447,-187500.02235174447,-187500.02235174447
não,14691.488706050957,-14589.788268779312,-22584.56022555354,-6653.756696433627,-187500.02235174447,-187500.02235174447,-187500.02235174447,-187500.02235174447
$SILENCE,14769.138666288694,-14518.329741755695,-22400.96299659765,-6600.11250974089,-187500.02235174447,-187500.02235174447,-187500.02235174447,-187500.02235174447
$SILENCE,14831.611792041278,-14506.416261961016,-22129.27754274339,-6617.993905305137,-187500.02235174447,-187500.02235174447,-187500.02235174447,-187500.02235174447
$SILENCE,14763.193102263584,-14569.06820166924,-22272.55222470191,-6679.014167668124,-187500.02235174447,-187500.02235174447,-187500.02235174447,-187500.02235174447
$SILENCE,14695.064985163806,-14565.938957445498,-22571.03742015808,-6625.705257142217,-187500.02235174447,-187500.02235174447,-187500.02235174447,-187500.02235174447
$SILENCE,14754.788846348387,-14529.147986072063,-22441.62081976185,-6581.717024054173,-187500.02235174447,-187500.02235174447,-187500.02235174447,-187500.02235174447
$SILENCE,14825.375655338248,-14511.132480041086,-22153.19390931057,-6603.018236520081,-187500.02235174447,-187500.02235174447,-187500.02235174447,-187500.02235174447
$SILENCE,14768.490465699491,-14560.73100098741,-22228.54163986941,-6675.929626933293,-187500.02235174447,-187500.02235174447,-187500.02235174447,-187500.02235174447
$SILENCE,14698.641264276655,-14601.768803807356,-22549.579745480987,-6664.820809939005,-187500.02235174447,-187500.02235174447,-187500.02235174447,-187500.02235174447
$SILENCE,14736.795692061865,-14553.69020148399,-22506.41852693779,-6600.11250974089,-187500.02235174447,-187500.02235174447,-187500.02235174447,-187500.02235174447
$SILENCE,14837.400893855203,-14499.889552580065,-22199.126744166228,-6589.271913680067,-187500.02235174447,-187500.02235174447,-187500.02235174447,-187500.02235174447
$SILENCE,14819.810070968875,-14518.48620396688,-22160.033543113896,-6671.682795486784,-187500.02235174447,-187500.02235174447,-187500.02235174447,-187500.02235174447
$SILENCE,14699.937665455063,-14565.648384767579,-22517.952027076724,-6697.61081905494,-187500.02235174447,-187500.02235174447,-187500.02235174447,-187500.02235174447
$SILENCE,14703.20102014554,-14519.603791189647,-22560.71091421973,-6649.912196387315,-187500.02235174447,-187500.02235174447,-187500.02235174447,-187500.02235174447
$SILENCE,14796.474849757535,-14467.546578353236,-22258.761198372984,-6599.777233574061,-187500.02235174447,-187500.02235174447,-187500.02235174447,-187500.02235174447
$SILENCE,14768.132837788206,-14550.44919853797,-22173.24342408698,-6647.0064696081245,-187500.02235174447,-187500.02235174447,-187500.02235174447,-187500.02235174447
$SILENCE,14684.246740847439,-14580.98168146392,-22462.96673571667,-6645.821827151994,-187500.02235174447,-187500.02235174447,-187500.02235174447,-187500.02235174447
$SILENCE,14716.321494140804,-14529.907945383544,-22549.490338503165,-6611.221326735178,-187500.02235174447,-187500.02235174447,-187500.02235174447,-187500.02235174447
$SILENCE,14782.147381561683,-14517.145099299563,-22319.93792294716,-6598.883163795849,-187500.02235174447,-187500.02235174447,-187500.02235174447,-187500.02235174447
$SILENCE,14802.17454459364,-14527.136329071085,-22132.94322883406,-6649.9345481317705,-187500.02235174447,-187500.02235174447,-187500.02235174447,-187500.02235174447
$SILENCE,14700.38470034417,-14546.202367091462,-22403.44404023219,-6672.46510654272,-187500.02235174447,-187500.02235174447,-187500.02235174447,-187500.02235174447
$SILENCE,14668.958147640009,-14540.16739608853,-22589.0305744446,-6622.844233851938,-187500.02235174447,-187500.02235174447,-187500.02235174447,-187500.02235174447
$SILENCE,14768.870445355231,-14535.674695453012,-22357.42179839871,-6578.63248331934,-187500.02235174447,-187500.02235174447,-187500.02235174447,-187500.02235174447
$SILENCE,14823.095777403805,-14492.424069931993,-22123.46608918501,-6615.825786092972,-187500.02235174447,-187500.02235174447,-187500.02235174447,-187500.02235174447
$SILENCE,14711.29235163836,-14545.665925224535,-22347.430568627187,-6681.763432236127,-187500.02235174447,-187500.02235174447,-187500.02235174447,-187500.02235174447
$SILENCE,14667.23706331695,-14560.082800398208,-22600.608778072452,-6649.107533586924,-187500.02235174447,-187500.02235174447,-187500.02235174447,-187500.02235174447
$SILENCE,14740.103750241251,-14531.338457028683,-22430.936685912216,-6578.833649019439,-187500.02235174447,-187500.02235174447,-187500.02235174447,-187500.02235174447
$SILENCE,14817.26197210097,-14528.8797651386,-22154.08797908878,-6589.651893335807,-187500.02235174447,-187500.02235174447,-187500.02235174447,-187500.02235174447
$SILENCE,14756.621689393723,-14549.443370037481,-22284.152780074215,-6651.633280710374,-187500.02235174447,-187500.02235174447,-187500.02235174447,-187500.02235174447
$SILENCE,14679.686984978556,-14555.321878829227,-22579.307565606545,-6663.41265003832,-187500.02235174447,-187500.02235174447,-187500.02235174447,-187500.02235174447
$SILENCE,14728.033808235385,-14538.40160827656,-22470.901604998304,-6621.011390806603,-187500.02235174447,-187500.02235174447,-187500.02235174447,-187500.02235174447
$SILENCE,14834.048132186907,-14494.68159612198,-22152.61276395473,-6573.290416394522,-187500.02235174447,-187500.02235174447,-187500.02235174447,-187500.02235174447
$SILENCE,14784.762535662954,-14531.517270984325,-22189.515494050444,-6630.019143822092,-187500.02235174447,-187500.02235174447,-187500.02235174447,-187500.02235174447
$SILENCE,14680.983386156964,-14558.40641956406,-22546.89753614635,-6636.814074136505,-187500.02235174447,-187500.02235174447,-187500.02235174447,-187500.02235174447
$SILENCE,14730.380741403193,-14549.97981190441,-22521.438899211753,-6599.8666405518825,-187500.02235174447,-187500.02235174447,-187500.02235174447,-187500.02235174447
$SILENCE,14811.472870287047,-14518.195631288962,-22222.77488979994,-6593.1164137263795,-187500.02235174447,-187500.02235174447,-187500.02235174447,-187500.02235174447
$SILENCE,14786.371861263737,-14543.184881589996,-22189.336680094802,-6659.523446503097,-187500.02235174447,-187500.02235174447,-187500.02235174447,-187500.02235174447
$SILENCE,14669.740458695944,-14572.756239504366,-22525.104585302422,-6680.623493268907,-187500.02235174447,-187500.02235174447,-187500.02235174447,-187500.02235174447
$SILENCE,14687.57715077128,-14557.288832341294,-22554.206556583234,-6609.388483689843,-187500.02235174447,-187500.02235174447,-187500.02235174447,-187500.02235174447
$SILENCE,14793.770288678443,-14546.492939769381,-22257.844776850317,-6586.92498051226,-187500.02235174447,-187500.02235174447,-187500.02235174447,-187500.02235174447
$SILENCE,14815.160908122172,-14517.167451044019,-22124.069586285306,-6621.570184417986,-187500.02235174447,-187500.02235174447,-187500.02235174447,-187500.02235174447
$SILENCE,14705.86087773572,-14549.130445615107,-22448.952191943194,-6658.517618002608,-187500.02235174447,-187500.02235174447,-187500.02235174447,-187500.02235174447
$SILENCE,14675.015470387396,-14563.323803344227,-22591.556321568052,-6628.678039154773,-187500.02235174447,-187500.02235174447,-187500.02235174447,-187500.02235174447
$SILENCE,14772.133800045705,-14515.871049865611,-22308.136201874757,-6556.705422008685,-187500.02235174447,-187500.02235174447,-187500.02235174447,-187500.02235174447
$SILENCE,14824.07925415984,-14498.034357790275,-22110.99381577895,-6618.016257049591,-187500.02235174447,-187500.02235174447,-187500.02235174447,-187500.02235174447
$SILENCE,14742.383628175692,-14574.365565105149,-22376.376077696812,-6658.405859280331,-187500.02235174447,-187500.02235174447,-187500.02235174447,-187500.02235174447
$SILENCE,14667.259415061406,-14587.106059444674,-22613.259865434156,-6652.527350488585,-187500.02235174447,-187500.02235174447,-187500.02235174447,-187500.02235174447
$SILENCE,14731.900660026153,-14505.96922707191,-22407.802630400973,-6592.6470270928185,-187500.02235174447,-187500.02235174447,-187500.02235174447,-187500.02235174447
$SILENCE,14817.641951756712,-14505.499840438348,-22122.817888595808,-6618.507995427608,-187500.02235174447,-187500.02235174447,-187500.02235174447,-187500.02235174447
$SILENCE,14726.871517523708,-14569.582291791714,-22338.534574333975,-6675.281426344089,-187500.02235174447,-187500.02235174447,-187500.02235174447,-187500.02235174447
$SILENCE,14672.04268837484,-14588.335405389716,-22590.192865156278,-6647.207635308223,-187500.02235174447,-187500.02235174447,-187500.02235174447,-187500.02235174447
$SILENCE,14736.236898450483,-14533.595983218669,-22439.743273227607,-6609.991980790136,-187500.02235174447,-187500.02235174447,-187500.02235174447,-187500.02235174447
$SILENCE,14812.076367387339,-14514.529945198292,-22151.070493587315,-6599.956047529704,-187500.02235174447,-187500.02235174447,-187500.02235174447,-187500.02235174447
$SILENCE,14764.35539297526,-14546.06825662473,-22244.16550924367,-6642.2678997836,-187500.02235174447,-187500.02235174447,-187500.02235174447,-187500.02235174447
$SILENCE,14662.56554872579,-14562.899120199576,-22568.802245712548,-6649.576920220486,-187500.02235174447,-187500.02235174447,-187500.02235174447,-187500.02235174447
$SILENCE,14690.080546150273,-14545.01772463533,-22514.085175285956,-6601.721835341673,-187500.02235174447,-187500.02235174447,-187500.02235174447,-187500.02235174447
$SILENCE,14824.973323938051,-14539.899175155066,-22179.457209045555,-6595.440995149732,-187500.02235174447,-187500.02235174447,-187500.02235174447,-187500.02235174447
$SILENCE,14806.376672551236,-14537.440483264982,-22186.475656804523,-6638.758675904117,-187500.02235174447,-187500.02235174447,-187500.02235174447,-187500.02235174447
$SILENCE,14675.641319232145,-14584.043870454298,-22549.333876291978,-6684.669159015318,-187500.02235174447,-187500.02235174447,-187500.02235174447,-187500.02235174447
$SILENCE,14694.305025852327,-14542.469625767426,-22531.340722005454,-6622.911289085304,-187500.02235174447,-187500.02235174447,-187500.02235174447,-187500.02235174447
$SILENCE,14775.687727414099,-14529.63972445008,-22223.892477022706,-6580.219457175667,-187500.02235174447,-187500.02235174447,-187500.02235174447,-187500.02235174447
$SILENCE,14788.271759542438,-14547.521120014326,-22150.75756916494,-6635.920004358292,-187500.02235174447,-187500.02235174447,-187500.02235174447,-187500.02235174447
$SILENCE,14679.6646332341,-14589.967082734953,-22510.35243396192,-6649.107533586924,-187500.02235174447,-187500.02235174447,-187500.02235174447,-187500.02235174447
$SILENCE,14688.918255438597,-14550.136274115595,-22585.76721975413,-6605.074597009969,-187500.02235174447,-187500.02235174447,-187500.02235174447,-187500.02235174447
$SILENCE,14787.601207208778,-14515.245201020862,-22280.97883236156,-6592.557620114997,-187500.02235174447,-187500.02235174447,-187500.02235174447,-187500.02235174447
$SILENCE,14796.050166612884,-14514.932276598487,-22130.70805438853,-6651.432115010276,-187500.02235174447,-187500.02235174447,-187500.02235174447,-187500.02235174447
$SILENCE,14671.416839530093,-14580.199370407983,-22463.81610200597,-6695.397996353865,-187500.02235174447,-187500.02235174447,-187500.02235174447,-187500.02235174447
$SILENCE,14658.966917868485,-14577.651271540079,-22609.66123457685,-6651.901501643837,-187500.02235174447,-187500.02235174447,-187500.02235174447,-187500.02235174447
$SILENCE,14766.92584358762,-14534.914736141533,-22349.03989422797,-6591.663550336784,-187500.02235174447,-187500.02235174447,-187500.02235174447,-187500.02235174447
$SILENCE,14817.127861634239,-14520.609619690136,-22119.75569960543,-6624.520614686086,-187500.02235174447,-187500.02235174447,-187500.02235174447,-187500.02235174447
$SILENCE,14706.084395180273,-14556.64063175209,-22388.937758080694,-6666.4301355397865,-187500.02235174447,-187500.02235174447,-187500.02235174447,-187500.02235174447
$SILENCE,14671.908577908109,-14563.100285899674,-22604.699147307772,-6622.576012918475,-187500.02235174447,-187500.02235174447,-187500.02235174447,-187500.02235174447
$SILENCE,14754.207700992549,-14520.296695267762,-22392.51403719354,-6608.270896467077,-187500.02235174447,-187500.02235174447,-187500.02235174447,-187500.02235174447
$SILENCE,14820.704140747088,-14521.503689468347,-22124.226048496494,-6643.430190495275,-187500.02235174447,-187500.02235174447,-187500.02235174447,-187500.02235174447
$SILENCE,14731.766549559421,-14573.493847071391,-22330.532649818975,-6684.08801365948,-187500.02235174447,-187500.02235174447,-187500.02235174447,-187500.02235174447
$SILENCE,14632.480100688947,-14583.21685590945,-22623.921647539337,-6651.275652799089,-187500.02235174447,-187500.02235174447,-187500.02235174447,-187500.02235174447
$SILENCE,14720.098938953752,-14540.145044344074,-22459.055180436993,-6600.1572132298015,-187500.02235174447,-187500.02235174447,-187500.02235174447,-187500.02235174447
$SILENCE,14792.205666566571,-14515.8263463767,-22172.684630475596,-6624.565318174997,-187500.02235174447,-187500.02235174447,-187500.02235174447,-187500.02235174447
$SILENCE,14738.695590340567,-14534.601811719158,-22270.02647757846,-6685.0938421599685,-187500.02235174447,-187500.02235174447,-187500.02235174447,-187500.02235174447
$SILENCE,14654.429513744059,-14555.92537592952,-22594.506751836154,-6660.529275003586,-187500.02235174447,-187500.02235174447,-187500.02235174447,-187500.02235174447
$SILENCE,14713.549877828345,-14535.607640219647,-22504.74214610364,-6609.321428456477,-187500.02235174447,-187500.02235174447,-187500.02235174447,-187500.02235174447
$SILENCE,14796.050166612884,-14497.877895579088,-22205.29582563589,-6594.792794560528,-187500.02235174447,-187500.02235174447,-187500.02235174447,-187500.02235174447
$SILENCE,14753.626555636713,-14546.157663602551,-22225.367692156757,-6658.182341835778,-187500.02235174447,-187500.02235174447,-187500.02235174447,-187500.02235174447
$SILENCE,14640.549080437313,-14598.7960217948,-22579.1287516509,-6690.502964318152,-187500.02235174447,-187500.02235174447,-187500.02235174447,-187500.02235174447
$SILENCE,14686.124287381685,-14550.44919853797,-22556.642896728863,-6621.793701862539,-187500.02235174447,-187500.02235174447,-187500.02235174447,-187500.02235174447
$SILENCE,14802.085137615817,-14488.311348952217,-22242.44442492061,-6607.175660988768,-187500.02235174447,-187500.02235174447,-187500.02235174447,-187500.02235174447
$SILENCE,14791.490410744002,-14513.233544019884,-22162.469883259524,-6657.265920313111,-187500.02235174447,-187500.02235174447,-187500.02235174447,-187500.02235174447
$SILENCE,14677.451810533024,-14559.255785853362,-22506.329119959966,-6659.6799087142845,-187500.02235174447,-187500.02235174447,-187500.02235174447,-187500.02235174447
$SILENCE,14664.33133653776,-14560.574538776225,-22611.203504944267,-6654.226083067189,-187500.02235174447,-187500.02235174447,-187500.02235174447,-187500.02235174447
$SILENCE,14737.578003117802,-14510.461927707425,-22342.870812758305,-6633.126036301379,-187500.02235174447,-187500.02235174447,-187500.02235174447,-187500.02235174447
$SILENCE,14779.576930949323,-14515.312256254228,-22162.29106930388,-6645.531254474075,-187500.02235174447,-187500.02235174447,-187500.02235174447,-187500.02235174447
$SILENCE,14687.688909493556,-14568.352945846671,-22462.20677640519,-6667.950054162748,-187500.02235174447,-187500.02235174447,-187500.02235174447,-187500.02235174447
$SILENCE,14667.080601105763,-14551.767951460834,-22609.81769678804,-6637.328164258977,-187500.02235174447,-187500.02235174447,-187500.02235174447,-187500.02235174447
$SILENCE,14751.793712591376,-14533.953611129953,-22371.279879961003,-6625.392332719843,-187500.02235174447,-187500.02235174447,-187500.02235174447,-187500.02235174447
$SILENCE,14800.319349803847,-14509.053767806741,-22150.846976142762,-6643.094914328446,-187500.02235174447,-187500.02235174447,-187500.02235174447,-187500.02235174447
$SILENCE,14712.074662694296,-14553.332573572705,-22391.217636015135,-6670.1852286082785,-187500.02235174447,-187500.02235174447,-187500.02235174447,-187500.02235174447
$SILENCE,14654.496568977425,-14563.12263764413,-22623.18403997231,-6634.69065841325,-187500.02235174447,-187500.02235174447,-187500.02235174447,-187500.02235174447
$SILENCE,14716.00856971843,-14515.245201020862,-22435.295276081,-6598.771405073572,-187500.02235174447,-187500.02235174447,-187500.02235174447,-187500.02235174447
$SILENCE,14800.520515503946,-14490.613578631113,-22149.23765054198,-6605.186355732246,-187500.02235174447,-187500.02235174447,-187500.02235174447,-187500.02235174447
$SILENCE,14725.686875067579,-14533.908907641044,-22328.163364906715,-6675.259074599633,-187500.02235174447,-187500.02235174447,-187500.02235174447,-187500.02235174447
$SILENCE,14637.71040889149,-14565.000184178376,-22627.47557490773,-6683.41746132582,-187500.02235174447,-187500.02235174447,-187500.02235174447,-187500.02235174447
$SILENCE,14706.620837047201,-14521.30252376825,-22495.153247732313,-6627.761617632105,-187500.02235174447,-187500.02235174447,-187500.02235174447,-187500.02235174447
$SILENCE,14786.148343819183,-14502.370596214605,-22196.779810998418,-6637.395219492343,-187500.02235174447,-187500.02235174447,-187500.02235174447,-187500.02235174447
$SILENCE,14731.475976881502,-14535.138253586085,-22274.6085851918,-6673.247417598655,-187500.02235174447,-187500.02235174447,-187500.02235174447,-187500.02235174447
$SILENCE,14634.447054201015,-14565.715440000946,-22612.343443911486,-6677.740118234172,-187500.02235174447,-187500.02235174447,-187500.02235174447,-187500.02235174447
$SILENCE,14682.90563618012,-14536.702875697956,-22538.202707553235,-6626.487568198153,-187500.02235174447,-187500.02235174447,-187500.02235174447,-187500.02235174447
$SILENCE,14784.807239151865,-14488.378404185583,-22224.115994467258,-6613.411797691799,-187500.02235174447,-187500.02235174447,-187500.02235174447,-187500.02235174447
$SILENCE,14759.63917489519,-14528.700951182956,-22213.655378062176,-6678.5224292901075,-187500.02235174447,-187500.02235174447,-187500.02235174447,-187500.02235174447
$SILENCE,14656.396467256125,-14590.07884145723,-22565.069504388513,-6680.422327568809,-187500.02235174447,-187500.02235174447,-187500.02235174447,-187500.02235174447
$SILENCE,14676.401278543626,-14539.96623038843,-22584.1802458978,-6625.392332719843,-187500.02235174447,-187500.02235174447,-187500.02235174447,-187500.02235174447
$SILENCE,14761.829645851809,-14496.939122311966,-22292.42292552268,-6607.756806344606,-187500.02235174447,-187500.02235174447,-187500.02235174447,-187500.02235174447
$SILENCE,14769.049259310874,-14519.044997578265,-22187.839113216294,-6661.244530826156,-187500.02235174447,-187500.02235174447,-187500.02235174447,-187500.02235174447
$SILENCE,14653.624850943668,-14562.206216121462,-22521.55065793403,-6697.99079871068,-187500.02235174447,-187500.02235174447,-187500.02235174447,-187500.02235174447
$SILENCE,14658.47517949047,-14543.743675201378,-22614.91389452385,-6634.847120624438,-187500.02235174447,-187500.02235174447,-187500.02235174447,-187500.02235174447
$SILENCE,14757.024020793919,-14495.10627926663,-22336.522917332997,-6590.411852647288,-187500.02235174447,-187500.02235174447,-187500.02235174447,-187500.02235174447
$SILENCE,14783.130858317716,-14498.637854890569,-22160.748798936464,-6649.666327198306,-187500.02235174447,-187500.02235174447,-187500.02235174447,-187500.02235174447
$SILENCE,14672.422668030582,-14559.009916664352,-22460.01630544857,-6693.654560286351,-187500.02235174447,-187500.02235174447,-187500.02235174447,-187500.02235174447
$SILENCE,14646.181720040051,-14562.854416710667,-22634.62813313343,-6647.878187641882,-187500.02235174447,-187500.02235174447,-187500.02235174447,-187500.02235174447
$SILENCE,14732.861785037732,-14520.721378412412,-22401.365327997843,-6601.0959864969245,-187500.02235174447,-187500.02235174447,-187500.02235174447,-187500.02235174447
$SILENCE,14801.861620171265,-14499.375462457594,-22154.08797908878,-6622.061922796002,-187500.02235174447,-187500.02235174447,-187500.02235174447,-187500.02235174447
$SILENCE,14701.591694544757,-14555.657154996057,-22389.518903436532,-6691.285275374088,-187500.02235174447,-187500.02235174447,-187500.02235174447,-187500.02235174447
$SILENCE,14645.734685150945,-14549.331611315205,-22639.277295980133,-6667.391260551365,-187500.02235174447,-187500.02235174447,-187500.02235174447,-187500.02235174447
$SILENCE,14706.062043435819,-14509.523154440303,-22474.142607944323,-6646.98411786367,-187500.02235174447,-187500.02235174447,-187500.02235174447,-187500.02235174447
$SILENCE,14797.860657913765,-14481.449363404437,-22168.013115884438,-6639.116303815402,-187500.02235174447,-187500.02235174447,-187500.02235174447,-187500.02235174447
$SILENCE,14740.77430257491,-14535.250012308361,-22304.962254162107,-6668.531199518586,-187500.02235174447,-187500.02235174447,-187500.02235174447,-187500.02235174447
$SILENCE,14656.061191089297,-14562.250919610373,-22622.066452749546,-6647.453504497231,-187500.02235174447,-187500.02235174447,-187500.02235174447,-187500.02235174447
$SILENCE,14710.532392326879,-14515.49107020987,-22502.328157702468,-6619.335009972455,-187500.02235174447,-187500.02235174447,-187500.02235174447,-187500.02235174447
$SILENCE,14792.987977622508,-14500.58245665818,-22198.90322672167,-6633.461312468209,-187500.02235174447,-187500.02235174447,-187500.02235174447,-187500.02235174447
$SILENCE,14743.612974120733,-14537.932221643,-22266.673715910165,-6683.998606681658,-187500.02235174447,-187500.02235174447,-187500.02235174447,-187500.02235174447
$SILENCE,14649.735647408444,-14557.869977697132,-22610.935284010804,-6683.328054347999,-187500.02235174447,-187500.02235174447,-187500.02235174447,-187500.02235174447
$SILENCE,14692.516886295902,-14539.362733288139,-22559.70508571924,-6642.670231183795,-187500.02235174447,-187500.02235174447,-187500.02235174447,-187500.02235174447
$SILENCE,14776.715907659043,-14518.843831878166,-22264.88557635374,-6643.966632362203,-187500.02235174447,-187500.02235174447,-187500.02235174447,-187500.02235174447
$SILENCE,14752.7324858585,-14504.941046826965,-22244.16550924367,-6688.178382894801,-187500.02235174447,-187500.02235174447,-187500.02235174447,-187500.02235174447
$SILENCE,14655.725914922466,-14540.279154810805,-22569.249280601656,-6687.0384439275795,-187500.02235174447,-187500.02235174447,-187500.02235174447,-187500.02235174447
$SILENCE,14682.637415246656,-14536.434654764493,-22590.192865156278,-6658.674080213796,-187500.02235174447,-187500.02235174447,-187500.02235174447,-187500.02235174447
$SILENCE,14781.677994928123,-14502.862334592623,-22296.088611613348,-6646.134751574368,-187500.02235174447,-187500.02235174447,-187500.02235174447,-187500.02235174447
$SILENCE,14797.458326513568,-14511.981846330387,-22178.741953222987,-6677.449545556253,-187500.02235174447,-187500.02235174447,-187500.02235174447,-187500.02235174447
$SILENCE,14668.913444151098,-14566.609509779157,-22522.869410856893,-6710.418368627831,-187500.02235174447,-187500.02235174447,-187500.02235174447,-187500.02235174447
