WORD,Channel_1,Channel_2,Channel_3,Channel_4,Channel_5,Channel_6,Channel_7,Channel_8
$SILENCE,17537.491624056296,-14658.989269612941,-21371.55340570848,-7509.649695116245,-187500.02235174447,-187500.02235174447,-187500.02235174447,-187500.02235174447
$SILENCE,17546.097045671588,-14673.495551764436,-21262.141616599754,-7551.670974692223,-187500.02235174447,-187500.02235174447,-187500.02235174447,-187500.02235174447
$SILENCE,17420.726111021773,-14758.767456861433,-21658.70626672581,-7631.3772954198475,-187500.02235174447,-187500.02235174447,-187500.02235174447,-187500.02235174447
$SILENCE,17421.709587777805,-14742.517738642424,-21750.661343414944,-7570.245274334583,-187500.02235174447,-187500.02235174447,-187500.02235174447,-187500.02235174447
$SILENCE,17536.46344381135,-14673.741420953444,-21421.308388865997,-7488.706110561623,-187500.02235174447,-187500.02235174447,-187500.02235174447,-187500.02235174447
$SILENCE,17562.302060401686,-14671.819170930288,-21233.53138369696,-7515.081169018886,-187500.02235174447,-187500.02235174447,-187500.02235174447,-187500.02235174447
$SILENCE,17423.810651756605,-14749.11150325674,-21599.496495663705,-7622.905984271287,-187500.02235174447,-187500.02235174447,-187500.02235174447,-187500.02235174447
$SILENCE,17403.984654424745,-14749.62559337921,-21785.59711999859,-7604.488146840114,-187500.02235174447,-187500.02235174447,-187500.02235174447,-187500.02235174447
$SILENCE,17503.785193417694,-14691.533409539868,-21507.49671548566,-7529.922727337209,-187500.02235174447,-187500.02235174447,-187500.02235174447,-187500.02235174447
$SILENCE,17558.412856866464,-14673.294386064337,-21243.656723935215,-7521.563174910924,-187500.02235174447,-187500.02235174447,-187500.02235174447,-187500.02235174447
$SILENCE,17444.955402011325,-14742.674200853611,-21525.847497683466,-7596.173297902739,-187500.02235174447,-187500.02235174447,-187500.02235174447,-187500.02235174447
$SILENCE,17394.239293842234,-14765.137704031195,-21793.30847183567,-7599.07902468193,-187500.02235174447,-187500.02235174447,-187500.02235174447,-187500.02235174447
$SILENCE,17477.36543147152,-14688.940607183053,-21576.11657096345,-7534.8177593729215,-187500.02235174447,-187500.02235174447,-187500.02235174447,-187500.02235174447
$SILENCE,17566.19126393691,-14652.551967209813,-21244.126110568777,-7511.683703861679,-187500.02235174447,-187500.02235174447,-187500.02235174447,-187500.02235174447
$SILENCE,17498.487829981786,-14728.14556695766,-21419.542601054025,-7593.200515890184,-187500.02235174447,-187500.02235174447,-187500.02235174447,-187500.02235174447
$SILENCE,17403.87289570247,-14779.174599549127,-21771.82844541412,-7609.874917253843,-187500.02235174447,-187500.02235174447,-187500.02235174447,-187500.02235174447
$SILENCE,17481.36639372902,-14720.993008731963,-21619.925990095853,-7522.434892944681,-187500.02235174447,-187500.02235174447,-187500.02235174447,-187500.02235174447
$SILENCE,17593.885075317034,-14670.545121496336,-21258.699447953637,-7480.055985457419,-187500.02235174447,-187500.02235174447,-187500.02235174447,-187500.02235174447
$SILENCE,17519.878449425512,-14724.636343078178,-21362.18802478171,-7567.674823722223,-187500.02235174447,-187500.02235174447,-187500.02235174447,-187500.02235174447
$SILENCE,17391.422974040863,-14786.707137430567,-21762.418360998436,-7618.3462284024035,-187500.02235174447,-187500.02235174447,-187500.02235174447,-187500.02235174447
$SILENCE,17448.97871601328,-14733.666447838123,-21684.656642038422,-7553.794390415477,-187500.02235174447,-187500.02235174447,-187500.02235174447,-187500.02235174447
$SILENCE,17559.77631327824,-14672.020336630385,-21319.473841127616,-7495.568096109402,-187500.02235174447,-187500.02235174447,-187500.02235174447,-187500.02235174447
$SILENCE,17534.675304254928,-14707.269037636404,-21304.900503742756,-7552.54269272598,-187500.02235174447,-187500.02235174447,-187500.02235174447,-187500.02235174447
$SILENCE,17392.58526475254,-14781.767401905943,-21727.97432279281,-7625.722304072655,-187500.02235174447,-187500.02235174447,-187500.02235174447,-187500.02235174447
$SILENCE,17416.367520852986,-14740.237860707983,-21737.429110697405,-7544.831340888899,-187500.02235174447,-187500.02235174447,-187500.02235174447,-187500.02235174447
$SILENCE,17530.160251874953,-14679.821095445288,-21379.13064707883,-7484.727500048578,-187500.02235174447,-187500.02235174447,-187500.02235174447,-187500.02235174447
$SILENCE,17562.123246446045,-14709.928895226587,-21250.58576471636,-7540.9197856092205,-187500.02235174447,-187500.02235174447,-187500.02235174447,-187500.02235174447
$SILENCE,17439.233355430766,-14768.378706977215,-21641.003685117208,-7630.706743086189,-187500.02235174447,-187500.02235174447,-187500.02235174447,-187500.02235174447
$SILENCE,17438.69691356384,-14756.129951015706,-21746.034532312697,-7573.530980769513,-187500.02235174447,-187500.02235174447,-187500.02235174447,-187500.02235174447
$SILENCE,17539.033894423712,-14693.075679907284,-21434.786490772545,-7500.10550023383,-187500.02235174447,-187500.02235174447,-187500.02235174447,-187500.02235174447
$SILENCE,17573.410877395974,-14682.279787335372,-21228.815165616892,-7514.812948085421,-187500.02235174447,-187500.02235174447,-187500.02235174447,-187500.02235174447
$SILENCE,17448.576384613083,-14768.132837788206,-21578.284690175617,-7606.879783496832,-187500.02235174447,-187500.02235174447,-187500.02235174447,-187500.02235174447
$SILENCE,17412.031282428656,-14774.436029724602,-21781.21617808535,-7580.9517599286755,-187500.02235174447,-187500.02235174447,-187500.02235174447,-187500.02235174447
$SILENCE,17507.98732137529,-14710.286523137871,-21505.038023595574,-7502.027750256986,-187500.02235174447,-187500.02235174447,-187500.02235174447,-187500.02235174447
$SILENCE,17578.171798964955,-14678.479990777969,-21229.709235395105,-7503.368854924304,-187500.02235174447,-187500.02235174447,-187500.02235174447,-187500.02235174447
$SILENCE,17472.537454669175,-14749.267965467927,-21506.58029396299,-7602.9682282171525,-187500.02235174447,-187500.02235174447,-187500.02235174447,-187500.02235174447
$SILENCE,17405.035186414145,-14781.007442594462,-21792.5932160131,-7616.803958034988,-187500.02235174447,-187500.02235174447,-187500.02235174447,-187500.02235174447
$SILENCE,17493.950425857358,-14716.701473796544,-21571.042724972096,-7541.724448409611,-187500.02235174447,-187500.02235174447,-187500.02235174447,-187500.02235174447
$SILENCE,17580.988118766323,-14671.439191274547,-21244.0143518465,-7509.604991627335,-187500.02235174447,-187500.02235174447,-187500.02235174447,-187500.02235174447
$SILENCE,17492.251693278755,-14745.02113402142,-21428.595057558425,-7594.206344390673,-187500.02235174447,-187500.02235174447,-187500.02235174447,-187500.02235174447
$SILENCE,17395.021604898167,-14792.384480522214,-21785.015974642753,-7620.6931615702115,-187500.02235174447,-187500.02235174447,-187500.02235174447,-187500.02235174447
$SILENCE,17472.515102924717,-14732.325343170804,-21631.593600701526,-7534.303669250449,-187500.02235174447,-187500.02235174447,-187500.02235174447,-187500.02235174447
$SILENCE,17577.23302569783,-14678.211769844505,-21274.703296983636,-7490.047215228941,-187500.02235174447,-187500.02235174447,-187500.02235174447,-187500.02235174447
$SILENCE,17517.866792424535,-14725.10572971174,-21363.55148119348,-7567.183085344206,-187500.02235174447,-187500.02235174447,-187500.02235174447,-187500.02235174447
$SILENCE,17395.71450897628,-14805.035567883919,-21762.150140064972,-7621.095492970407,-187500.02235174447,-187500.02235174447,-187500.02235174447,-187500.02235174447
$SILENCE,17465.966041799315,-14746.071666010817,-21681.259176881216,-7530.235651759584,-187500.02235174447,-187500.02235174447,-187500.02235174447,-187500.02235174447
$SILENCE,17579.065868743168,-14677.407107044115,-21322.200753951165,-7486.537991349458,-187500.02235174447,-187500.02235174447,-187500.02235174447,-187500.02235174447
$SILENCE,17554.81422600916,-14712.633456305679,-21292.27176812551,-7562.578625986413,-187500.02235174447,-187500.02235174447,-187500.02235174447,-187500.02235174447
$SILENCE,17416.2110586418,-14783.868465884741,-21711.232866195784,-7662.08859230144,-187500.02235174447,-187500.02235174447,-187500.02235174447,-187500.02235174447
$SILENCE,17434.941820495347,-14757.44870393857,-21737.58557290859,-7588.394890832293,-187500.02235174447,-187500.02235174447,-187500.02235174447,-187500.02235174447
$SILENCE,17552.33318237462,-14694.95322644153,-21386.350260537896,-7506.5875061258685,-187500.02235174447,-187500.02235174447,-187500.02235174447,-187500.02235174447
$SILENCE,17571.130999461533,-14694.081508407773,-21249.848157149336,-7537.321154751916,-187500.02235174447,-187500.02235174447,-187500.02235174447,-187500.02235174447
$SILENCE,17434.427730372874,-14775.508913458458,-21638.053254849106,-7625.722304072655,-187500.02235174447,-187500.02235174447,-187500.02235174447,-187500.02235174447
$SILENCE,17427.297523891633,-14773.49725645748,-21763.714762176845,-7592.529963556524,-187500.02235174447,-187500.02235174447,-187500.02235174447,-187500.02235174447
$SILENCE,17536.485795555807,-14699.825906732787,-21459.798092818033,-7527.352276724849,-187500.02235174447,-187500.02235174447,-187500.02235174447,-187500.02235174447
$SILENCE,17574.595519852104,-14681.676290235078,-21244.841366391345,-7541.97031759862,-187500.02235174447,-187500.02235174447,-187500.02235174447,-187500.02235174447
$SILENCE,17449.693971835848,-14767.417581965636,-21579.78225705412,-7622.503652871091,-187500.02235174447,-187500.02235174447,-187500.02235174447,-187500.02235174447
$SILENCE,17398.77669796666,-14787.712965931054,-21798.918759693952,-7594.943951957697,-187500.02235174447,-187500.02235174447,-187500.02235174447,-187500.02235174447
$SILENCE,17500.54419047167,-14715.963866229518,-21522.762956948634,-7507.995666026553,-187500.02235174447,-187500.02235174447,-187500.02235174447,-187500.02235174447
$SILENCE,17592.342804949618,-14671.170970341083,-21227.652874905216,-7502.787709568466,-187500.02235174447,-187500.02235174447,-187500.02235174447,-187500.02235174447
$SILENCE,17485.814390875625,-14761.181445262606,-21493.817447879013,-7596.508574069569,-187500.02235174447,-187500.02235174447,-187500.02235174447,-187500.02235174447
$SILENCE,17411.87482021747,-14796.027814868428,-21795.543646281203,-7616.379274890337,-187500.02235174447,-187500.02235174447,-187500.02235174447,-187500.02235174447
$SILENCE,17491.625844434006,-14730.53720361438,-21594.400297927892,-7554.554349726957,-187500.02235174447,-187500.02235174447,-187500.02235174447,-187500.02235174447
$SILENCE,17574.32729891864,-14679.105839622718,-21261.918099155202,-7524.379494712293,-187500.02235174447,-187500.02235174447,-187500.02235174447,-187500.02235174447
$SILENCE,17490.55296070015,-14746.831625322298,-21429.690293036736,-7610.970152732152,-187500.02235174447,-187500.02235174447,-187500.02235174447,-187500.02235174447
$SILENCE,17396.34035782103,-14800.676977715133,-21799.254035860784,-7640.250937968605,-187500.02235174447,-187500.02235174447,-187500.02235174447,-187500.02235174447
$SILENCE,17479.757068128238,-14730.827776292299,-21651.821929433576,-7549.122875824318,-187500.02235174447,-187500.02235174447,-187500.02235174447,-187500.02235174447
$SILENCE,17583.647976356504,-14682.257435590916,-21279.374811574795,-7502.027750256986,-187500.02235174447,-187500.02235174447,-187500.02235174447,-187500.02235174447
$SILENCE,17529.579106519115,-14731.990067003975,-21358.768207880046,-7571.07228887943,-187500.02235174447,-187500.02235174447,-187500.02235174447,-187500.02235174447
$SILENCE,17406.77862248166,-14790.484582243513,-21732.556430406148,-7630.282059941538,-187500.02235174447,-187500.02235174447,-187500.02235174447,-187500.02235174447
$SILENCE,17438.048712974636,-14757.96279406104,-21692.30093864214,-7575.766155215044,-187500.02235174447,-187500.02235174447,-187500.02235174447,-187500.02235174447
$SILENCE,17564.738400547314,-14690.19230487255,-21337.578754136415,-7511.460186417125,-187500.02235174447,-187500.02235174447,-187500.02235174447,-187500.02235174447
$SILENCE,17550.634449796016,-14713.371063872704,-21302.240646152575,-7564.6349864763015,-187500.02235174447,-187500.02235174447,-187500.02235174447,-187500.02235174447
$SILENCE,17417.35099760902,-14795.826649168332,-21707.67893882739,-7627.1528157177945,-187500.02235174447,-187500.02235174447,-187500.02235174447,-187500.02235174447
$SILENCE,17446.117692723,-14767.01525056544,-21739.217250253827,-7562.109239352852,-187500.02235174447,-187500.02235174447,-187500.02235174447,-187500.02235174447
$SILENCE,17557.563490577162,-14700.563514299813,-21401.19181885622,-7498.697340333145,-187500.02235174447,-187500.02235174447,-187500.02235174447,-187500.02235174447
$SILENCE,17590.33114794864,-14714.57805807329,-21211.023177030467,-7528.648677903257,-187500.02235174447,-187500.02235174447,-187500.02235174447,-187500.02235174447
$SILENCE,17467.195387744356,-14800.699329459589,-21632.018283846177,-7621.6989900707,-187500.02235174447,-187500.02235174447,-187500.02235174447,-187500.02235174447
$SILENCE,17445.2683264337,-14781.49918097248,-21801.80213472869,-7582.583437273913,-187500.02235174447,-187500.02235174447,-187500.02235174447,-187500.02235174447
$SILENCE,17533.736530987804,-14720.501270353947,-21492.521046700604,-7516.556384152936,-187500.02235174447,-187500.02235174447,-187500.02235174447,-187500.02235174447
$SILENCE,17599.38360445304,-14688.895903694143,-21242.29326752344,-7517.919840564709,-187500.02235174447,-187500.02235174447,-187500.02235174447,-187500.02235174447
$SILENCE,17481.746373384758,-14766.031773809407,-21567.22057667024,-7608.958495731175,-187500.02235174447,-187500.02235174447,-187500.02235174447,-187500.02235174447
$SILENCE,17434.293619906144,-14786.081288585818,-21796.661233503968,-7599.83898399341,-187500.02235174447,-187500.02235174447,-187500.02235174447,-187500.02235174447
$SILENCE,17530.94256293089,-14729.91135476963,-21531.949523919764,-7522.278430733494,-187500.02235174447,-187500.02235174447,-187500.02235174447,-187500.02235174447
$SILENCE,17610.782994125246,-14702.061081178319,-21239.164023299698,-7515.081169018886,-187500.02235174447,-187500.02235174447,-187500.02235174447,-187500.02235174447
$SILENCE,17505.975664374313,-14780.582759449811,-21494.197427534753,-7608.1314811863285,-187500.02235174447,-187500.02235174447,-187500.02235174447,-187500.02235174447
$SILENCE,17442.384951398963,-14796.385442779714,-21792.12382937954,-7609.025550964541,-187500.02235174447,-187500.02235174447,-187500.02235174447,-187500.02235174447
$SILENCE,17532.66364725395,-14724.703398311543,-21583.112666977962,-7525.228861001595,-187500.02235174447,-187500.02235174447,-187500.02235174447,-187500.02235174447
$SILENCE,17614.471031960373,-14690.23700836146,-21249.177604815675,-7505.380511925282,-187500.02235174447,-187500.02235174447,-187500.02235174447,-187500.02235174447
$SILENCE,17534.965876932845,-14754.990012048485,-21406.600941014403,-7573.955663914164,-187500.02235174447,-187500.02235174447,-187500.02235174447,-187500.02235174447
$SILENCE,17443.659000832915,-14811.092890631306,-21777.282271061216,-7611.975981232641,-187500.02235174447,-187500.02235174447,-187500.02235174447,-187500.02235174447
$SILENCE,17508.210838819843,-14766.50116044297,-21663.176615616874,-7556.767172428033,-187500.02235174447,-187500.02235174447,-187500.02235174447,-187500.02235174447
$SILENCE,17597.729575363348,-14708.76660451491,-21313.39416663577,-7505.358160180826,-187500.02235174447,-187500.02235174447,-187500.02235174447,-187500.02235174447
$SILENCE,17561.832673768124,-14758.946270817074,-21357.40475146827,-7575.855562192865,-187500.02235174447,-187500.02235174447,-187500.02235174447,-187500.02235174447
$SILENCE,17453.761989326715,-14828.013161183973,-21755.757541150757,-7633.7242285876555,-187500.02235174447,-187500.02235174447,-187500.02235174447,-187500.02235174447
$SILENCE,17498.487829981786,-14768.155189532661,-21712.551619118647,-7546.485369978592,-187500.02235174447,-187500.02235174447,-187500.02235174447,-187500.02235174447
$SILENCE,17595.941435806923,-14687.018357159897,-21357.203585768177,-7489.488421617559,-187500.02235174447,-187500.02235174447,-187500.02235174447,-187500.02235174447
$SILENCE,17588.565360136672,-14716.880287752187,-21295.088087926877,-7555.649585205268,-187500.02235174447,-187500.02235174447,-187500.02235174447,-187500.02235174447
$SILENCE,17468.64825113395,-14807.896591174198,-21701.06282246862,-7625.118806972362,-187500.02235174447,-187500.02235174447,-187500.02235174447,-187500.02235174447
$SILENCE,17481.768725129215,-14781.745050161488,-21757.54568070718,-7561.483390508103,-187500.02235174447,-187500.02235174447,-187500.02235174447,-187500.02235174447
$SILENCE,17587.872456058558,-14716.701473796544,-21422.649493533314,-7496.8197937989,-187500.02235174447,-187500.02235174447,-187500.02235174447,-187500.02235174447
$SILENCE,17605.217409755875,-14712.00760746093,-21266.16493060171,-7522.010209800031,-187500.02235174447,-187500.02235174447,-187500.02235174447,-187500.02235174447
$SILENCE,17488.47424846581,-14792.295073544394,-21643.171804329373,-7622.570708104457,-187500.02235174447,-187500.02235174447,-187500.02235174447,-187500.02235174447
$SILENCE,17474.66087039243,-14792.87621890023,-21794.73898348081,-7600.576591560435,-187500.02235174447,-187500.02235174447,-187500.02235174447,-187500.02235174447
$SILENCE,17560.066885956156,-14734.560517616335,-21501.662910182826,-7531.554404682447,-187500.02235174447,-187500.02235174447,-187500.02235174447,-187500.02235174447
$SILENCE,17615.07452906067,-14709.817136504309,-21254.564375229405,-7527.531090680492,-187500.02235174447,-187500.02235174447,-187500.02235174447,-187500.02235174447
$SILENCE,17512.74824294427,-14775.888893114197,-21564.98540222471,-7609.561992831468,-187500.02235174447,-187500.02235174447,-187500.02235174447,-187500.02235174447
$SILENCE,17473.2750622362,-14789.188181065105,-21802.919721951454,-7594.474565324136,-187500.02235174447,-187500.02235174447,-187500.02235174447,-187500.02235174447
$SILENCE,17568.493493615806,-14733.018247248918,-21550.16619565084,-7506.453395659137,-187500.02235174447,-187500.02235174447,-187500.02235174447,-187500.02235174447
$SILENCE,17624.30579952071,-14708.900714981643,-21264.91323291221,-7506.4086921702265,-187500.02235174447,-187500.02235174447,-187500.02235174447,-187500.02235174447
$SILENCE,17520.638408736995,-14777.5876256928,-21501.34998576045,-7583.253989607572,-187500.02235174447,-187500.02235174447,-187500.02235174447,-187500.02235174447
$SILENCE,17456.80182657264,-14806.957817907074,-21803.254998118282,-7581.912884940253,-187500.02235174447,-187500.02235174447,-187500.02235174447,-187500.02235174447
$SILENCE,17543.392484592496,-14748.172729989617,-21617.266132505672,-7529.788616870477,-187500.02235174447,-187500.02235174447,-187500.02235174447,-187500.02235174447
$SILENCE,17622.361197753096,-14707.313741125316,-21289.813076235423,-7520.177366754695,-187500.02235174447,-187500.02235174447,-187500.02235174447,-187500.02235174447
$SILENCE,17548.555737561674,-14760.555596417857,-21436.664037306793,-7615.88753651232,-187500.02235174447,-187500.02235174447,-187500.02235174447,-187500.02235174447
$SILENCE,17455.97481202779,-14801.369881793247,-21806.56305629767,-7650.331574717949,-187500.02235174447,-187500.02235174447,-187500.02235174447,-187500.02235174447
$SILENCE,17514.156402844954,-14760.935576073596,-21695.810162521622,-7566.512533010547,-187500.02235174447,-187500.02235174447,-187500.02235174447,-187500.02235174447
$SILENCE,17609.352482480106,-14706.48672658047,-21331.968466278133,-7505.738139836567,-187500.02235174447,-187500.02235174447,-187500.02235174447,-187500.02235174447
$SILENCE,17572.740325062314,-14742.808311320343,-21356.84595785689,-7554.308480537949,-187500.02235174447,-187500.02235174447,-187500.02235174447,-187500.02235174447
$SILENCE,17455.840701561057,-14819.698312246599,-21760.92079411993,-7598.654341537278,-187500.02235174447,-187500.02235174447,-187500.02235174447,-187500.02235174447
$SILENCE,17492.676376423406,-14790.663396199156,-21742.21238401084,-7557.482428250602,-187500.02235174447,-187500.02235174447,-187500.02235174447,-187500.02235174447
$SILENCE,17618.49434596233,-14706.86670623621,-21370.65933593027,-7504.911125291721,-187500.02235174447,-187500.02235174447,-187500.02235174447,-187500.02235174447
$SILENCE,17612.861706359592,-14716.522659840903,-21300.74307927407,-7563.807971931455,-187500.02235174447,-187500.02235174447,-187500.02235174447,-187500.02235174447
$SILENCE,17454.231375960277,-14811.338759820315,-21721.8275930676,-7637.412266422781,-187500.02235174447,-187500.02235174447,-187500.02235174447,-187500.02235174447
$SILENCE,17463.037963275667,-14791.78098342192,-21783.607814742067,-7574.581512758913,-187500.02235174447,-187500.02235174447,-187500.02235174447,-187500.02235174447
$SILENCE,17581.211636210875,-14728.324380913304,-21444.28598216605,-7505.268753203006,-187500.02235174447,-187500.02235174447,-187500.02235174447,-187500.02235174447
$SILENCE,17605.932665578446,-14737.890927540175,-21282.79462847646,-7543.087904821385,-187500.02235174447,-187500.02235174447,-187500.02235174447,-187500.02235174447
$SILENCE,17472.872730836003,-14811.584629009323,-21658.594508003534,-7633.768932076566,-187500.02235174447,-187500.02235174447,-187500.02235174447,-187500.02235174447
$SILENCE,17477.231321004787,-14785.723660674532,-21804.50669580778,-7604.756367773577,-187500.02235174447,-187500.02235174447,-187500.02235174447,-187500.02235174447
$SILENCE,17569.499322116295,-14721.462395365525,-21511.564732976527,-7531.576756426902,-187500.02235174447,-187500.02235174447,-187500.02235174447,-187500.02235174447
$SILENCE,17616.907372106,-14711.6723312941,-21265.852006179335,-7539.623384430813,-187500.02235174447,-187500.02235174447,-187500.02235174447,-187500.02235174447
$SILENCE,17506.623864963516,-14798.844134669798,-21573.322602906537,-7629.343286674415,-187500.02235174447,-187500.02235174447,-187500.02235174447,-187500.02235174447
$SILENCE,17451.370352669997,-14816.010274411474,-21822.41044311648,-7613.093568455407,-187500.02235174447,-187500.02235174447,-187500.02235174447,-187500.02235174447
$SILENCE,17556.110627187565,-14753.514796914435,-21568.7404952932,-7514.611782385324,-187500.02235174447,-187500.02235174447,-187500.02235174447,-187500.02235174447
$SILENCE,17639.840261917147,-14720.277752909393,-21258.25241306453,-7479.810116268411,-187500.02235174447,-187500.02235174447,-187500.02235174447,-187500.02235174447
$SILENCE,17537.983362434312,-14786.193047308094,-21484.563825674515,-7577.330777326915,-187500.02235174447,-187500.02235174447,-187500.02235174447,-187500.02235174447
$SILENCE,17444.173090955388,-14809.818841197353,-21820.421137859958,-7618.681504569234,-187500.02235174447,-187500.02235174447,-187500.02235174447,-187500.02235174447
$SILENCE,17515.475155767817,-14748.999744534463,-21649.564403243592,-7533.677820405701,-187500.02235174447,-187500.02235174447,-187500.02235174447,-187500.02235174447
$SILENCE,17625.28927627674,-14701.949322456041,-21296.719765272115,-7502.564192123913,-187500.02235174447,-187500.02235174447,-187500.02235174447,-187500.02235174447
$SILENCE,17554.523653331238,-14769.898625600175,-21427.253952891107,-7595.547449057991,-187500.02235174447,-187500.02235174447,-187500.02235174447,-187500.02235174447
$SILENCE,17441.423826387385,-14830.002466440495,-21807.948864453898,-7639.625089123856,-187500.02235174447,-187500.02235174447,-187500.02235174447,-187500.02235174447
$SILENCE,17472.001012802248,-14780.895683872186,-21728.555468148646,-7577.375480815826,-187500.02235174447,-187500.02235174447,-187500.02235174447,-187500.02235174447
$SILENCE,17597.81898234117,-14713.102842939239,-21344.396036195285,-7498.29500893295,-187500.02235174447,-187500.02235174447,-187500.02235174447,-187500.02235174447
$SILENCE,17587.805400825193,-14759.549767917368,-21345.960658307155,-7575.877913937321,-187500.02235174447,-187500.02235174447,-187500.02235174447,-187500.02235174447
$SILENCE,17476.65017564895,-14824.83921347132,-21753.74588414978,-7659.0264033110625,-187500.02235174447,-187500.02235174447,-187500.02235174447,-187500.02235174447
$SILENCE,17505.349815529564,-14785.522494974435,-21737.00442755275,-7588.55135304348,-187500.02235174447,-187500.02235174447,-187500.02235174447,-187500.02235174447
$SILENCE,17600.836467842637,-14718.891944753164,-21391.669975718258,-7527.173462769207,-187500.02235174447,-187500.02235174447,-187500.02235174447,-187500.02235174447
$SILENCE,17586.643110113517,-14753.023058536419,-21312.030710224,-7569.954701656664,-187500.02235174447,-187500.02235174447,-187500.02235174447,-187500.02235174447
$SILENCE,17441.31206766511,-14844.776969525454,-21727.68375011489,-7652.27617648556,-187500.02235174447,-187500.02235174447,-187500.02235174447,-187500.02235174447
$SILENCE,17453.851396304537,-14811.182297609128,-21798.672890504946,-7562.042184119486,-187500.02235174447,-187500.02235174447,-187500.02235174447,-187500.02235174447
$SILENCE,17564.29136565821,-14728.05615997984,-21462.502653897125,-7491.72359606309,-187500.02235174447,-187500.02235174447,-187500.02235174447,-187500.02235174447
$SILENCE,17620.282485518754,-14709.593619059757,-21268.8694916808,-7533.230785516595,-187500.02235174447,-187500.02235174447,-187500.02235174447,-187500.02235174447
$SILENCE,17500.030100349202,-14799.380576536725,-21630.498365223215,-7648.297565972515,-187500.02235174447,-187500.02235174447,-187500.02235174447,-187500.02235174447
$SILENCE,17472.336288969076,-14803.247428327493,-21807.56888479816,-7623.8671092828645,-187500.02235174447,-187500.02235174447,-187500.02235174447,-187500.02235174447
$SILENCE,17573.299118673698,-14741.668372353122,-21516.951503390253,-7539.2210530306165,-187500.02235174447,-187500.02235174447,-187500.02235174447,-187500.02235174447
$SILENCE,17625.78101465476,-14719.607200575734,-21262.92392765569,-7544.317250766427,-187500.02235174447,-187500.02235174447,-187500.02235174447,-187500.02235174447
$SILENCE,17506.735623685792,-14803.917980661152,-21569.41104762686,-7628.8515482963985,-187500.02235174447,-187500.02235174447,-187500.02235174447,-187500.02235174447
$SILENCE,17473.766800614216,-14816.211440111572,-21814.74379476831,-7606.097472440895,-187500.02235174447,-187500.02235174447,-187500.02235174447,-187500.02235174447
$SILENCE,17552.780217263724,-14753.470093425525,-21581.41393439936,-7524.1336255232845,-187500.02235174447,-187500.02235174447,-187500.02235174447,-187500.02235174447
$SILENCE,17638.49915724983,-14718.221392419506,-21264.242680578554,-7503.145337479751,-187500.02235174447,-187500.02235174447,-187500.02235174447,-187500.02235174447
$SILENCE,17552.020257952245,-14773.49725645748,-21472.53858715756,-7582.762251229555,-187500.02235174447,-187500.02235174447,-187500.02235174447,-187500.02235174447
$SILENCE,17479.041812305666,-14800.185239337115,-21796.393012570505,-7590.585361788912,-187500.02235174447,-187500.02235174447,-187500.02235174447,-187500.02235174447
$SILENCE,17560.916252245457,-14741.713075842034,-21625.111594809485,-7527.709904636134,-187500.02235174447,-187500.02235174447,-187500.02235174447,-187500.02235174447
$SILENCE,17645.45054977543,-14681.162200112607,-21277.989003418566,-7490.606008840324,-187500.02235174447,-187500.02235174447,-187500.02235174447,-187500.02235174447
$SILENCE,17595.494400917818,-14726.938572757075,-21377.677783689236,-7555.090791593885,-187500.02235174447,-187500.02235174447,-187500.02235174447,-187500.02235174447
$SILENCE,17493.97277760181,-14779.331061760315,-21758.64091618549,-7590.764175744555,-187500.02235174447,-187500.02235174447,-187500.02235174447,-187500.02235174447
$SILENCE,17545.962935204858,-14730.827776292299,-21664.562423773103,-7506.654561359234,-187500.02235174447,-187500.02235174447,-187500.02235174447,-187500.02235174447
$SILENCE,17654.368895813095,-14679.016432644896,-21309.639073567283,-7476.680872044668,-187500.02235174447,-187500.02235174447,-187500.02235174447,-187500.02235174447
$SILENCE,17621.265962274785,-14716.947342985553,-21308.812059022435,-7535.644773917767,-187500.02235174447,-187500.02235174447,-187500.02235174447,-187500.02235174447
$SILENCE,17497.50435322575,-14782.884989128708,-21717.938389532377,-7591.88176296732,-187500.02235174447,-187500.02235174447,-187500.02235174447,-187500.02235174447
$SILENCE,17543.90657471497,-14742.495386897968,-21713.64685459696,-7539.9810123420975,-187500.02235174447,-187500.02235174447,-187500.02235174447,-187500.02235174447
$SILENCE,17654.771227213292,-14674.881359920664,-21359.304649746973,-7474.333938876861,-187500.02235174447,-187500.02235174447,-187500.02235174447,-187500.02235174447
$SILENCE,17663.242538361854,-14688.918255438597,-21248.574107715383,-7510.521413150002,-187500.02235174447,-187500.02235174447,-187500.02235174447,-187500.02235174447
$SILENCE,17535.927001944423,-14774.92776810262,-21647.19511833133,-7589.445422821692,-187500.02235174447,-187500.02235174447,-187500.02235174447,-187500.02235174447
$SILENCE,17530.786100719703,-14758.029849294408,-21746.6827329019,-7531.48734944908,-187500.02235174447,-187500.02235174447,-187500.02235174447,-187500.02235174447
$SILENCE,17633.71588393639,-14692.226313617983,-21422.045996433022,-7454.776162478467,-187500.02235174447,-187500.02235174447,-187500.02235174447,-187500.02235174447
$SILENCE,17667.243500619352,-14684.738479225456,-21227.608171416305,-7481.151220935729,-187500.02235174447,-187500.02235174447,-187500.02235174447,-187500.02235174447
$SILENCE,17538.631563023515,-14770.949157589575,-21582.75503906668,-7566.601939988368,-187500.02235174447,-187500.02235174447,-187500.02235174447,-187500.02235174447
$SILENCE,17519.565525003138,-14760.39913420667,-21762.12778832052,-7525.765302868522,-187500.02235174447,-187500.02235174447,-187500.02235174447,-187500.02235174447
$SILENCE,17614.225162771363,-14699.20005788804,-21487.424848964794,-7474.378642365771,-187500.02235174447,-187500.02235174447,-187500.02235174447,-187500.02235174447
$SILENCE,17670.372744843095,-14674.09904886473,-21229.172793528178,-7489.57782859538,-187500.02235174447,-187500.02235174447,-187500.02235174447,-187500.02235174447
$SILENCE,17558.09993244409,-14745.758741588443,-21512.190581821273,-7583.432803563214,-187500.02235174447,-187500.02235174447,-187500.02235174447,-187500.02235174447
$SILENCE,17533.0883303986,-14768.78103837741,-21761.904270875966,-7572.860428435854,-187500.02235174447,-187500.02235174447,-187500.02235174447,-187500.02235174447
$SILENCE,17619.611933185093,-14711.560572571823,-21539.660875756847,-7495.590447853858,-187500.02235174447,-187500.02235174447,-187500.02235174447,-187500.02235174447
$SILENCE,17693.17152418751,-14672.914406408598,-21225.507107437505,-7467.293139373439,-187500.02235174447,-187500.02235174447,-187500.02235174447,-187500.02235174447
$SILENCE,17606.603217912107,-14725.530412856391,-21415.8545632189,-7545.725410667112,-187500.02235174447,-187500.02235174447,-187500.02235174447,-187500.02235174447
$SILENCE,17515.206934834354,-14764.668317397633,-21762.083084831607,-7570.446440034681,-187500.02235174447,-187500.02235174447,-187500.02235174447,-187500.02235174447
$SILENCE,17585.302005446196,-14715.919162740609,-21611.812306858577,-7499.1890787111615,-187500.02235174447,-187500.02235174447,-187500.02235174447,-187500.02235174447
$SILENCE,17682.64385254906,-14672.780295941866,-21266.231985835075,-7450.775200220967,-187500.02235174447,-187500.02235174447,-187500.02235174447,-187500.02235174447
$SILENCE,17621.981218097357,-14725.463357623024,-21350.520414176037,-7512.778939339989,-187500.02235174447,-187500.02235174447,-187500.02235174447,-187500.02235174447
$SILENCE,17506.534457985694,-14781.342718761292,-21741.36301772154,-7574.581512758913,-187500.02235174447,-187500.02235174447,-187500.02235174447,-187500.02235174447
$SILENCE,17565.2971941587,-14739.76847407442,-21666.015287162696,-7503.033578757475,-187500.02235174447,-187500.02235174447,-187500.02235174447,-187500.02235174447
$SILENCE,17668.83047447568,-14680.312833823304,-21312.857724768844,-7454.262072355995,-187500.02235174447,-187500.02235174447,-187500.02235174447,-187500.02235174447
$SILENCE,17638.610915972105,-14691.086374650762,-21301.0783554409,-7521.943154566665,-187500.02235174447,-187500.02235174447,-187500.02235174447,-187500.02235174447
$SILENCE,17525.578144261617,-14764.713020886544,-21697.754764289235,-7588.439594321203,-187500.02235174447,-187500.02235174447,-187500.02235174447,-187500.02235174447
talvez,17556.80353126568,-14745.267003210427,-21706.561351604625,-7526.525262180003,-187500.02235174447,-187500.02235174447,-187500.02235174447,-187500.02235174447
talvez,17660.31445983821,-14687.063060648807,-21363.03739107101,-7463.940377705143,-187500.02235174447,-187500.02235174447,-187500.02235174447,-187500.02235174447
talvez,17671.82560823269,-14702.351653856238,-21246.897726881234,-7497.1327182212735,-187500.02235174447,-187500.02235174447,-187500.02235174447,-187500.02235174447
talvez,17537.625734523026,-14776.335928003304,-21639.99785661672,-7584.751556486078,-187500.02235174447,-187500.02235174447,-187500.02235174447,-187500.02235174447
talvez,17540.71027525786,-14758.007497549952,-21747.7332648913,-7548.92171012422,-187500.02235174447,-187500.02235174447,-187500.02235174447,-187500.02235174447
talvez,17648.892718421546,-14695.489668308457,-21429.891458736834,-7482.201752925129,-187500.02235174447,-187500.02235174447,-187500.02235174447,-187500.02235174447
talvez,17683.426163604996,-14687.085412393262,-21225.372996970775,-7494.986950753564,-187500.02235174447,-187500.02235174447,-187500.02235174447,-187500.02235174447
talvez,17556.22238590984,-14752.218395736027,-21571.042724972096,-7567.205437088662,-187500.02235174447,-187500.02235174447,-187500.02235174447,-187500.02235174447
talvez,17528.685036740906,-14765.562387175845,-21764.385314510502,-7526.324096479905,-187500.02235174447,-187500.02235174447,-187500.02235174447,-187500.02235174447
talvez,17634.83347115916,-14712.164069672117,-21485.323784985994,-7465.080316672364,-187500.02235174447,-187500.02235174447,-187500.02235174447,-187500.02235174447
talvez,17698.44653587896,-14680.75986871241,-21213.079537520356,-7476.926741233676,-187500.02235174447,-187500.02235174447,-187500.02235174447,-187500.02235174447
talvez,17571.130999461533,-14756.912262071643,-21500.25475028214,-7569.462963278647,-187500.02235174447,-187500.02235174447,-187500.02235174447,-187500.02235174447
talvez,17495.492696224774,-14778.191122793094,-21786.670003732444,-7565.909035910254,-187500.02235174447,-187500.02235174447,-187500.02235174447,-187500.02235174447
talvez,17595.025014284256,-14713.616933061712,-21566.773541781135,-7486.403880882726,-187500.02235174447,-187500.02235174447,-187500.02235174447,-187500.02235174447
talvez,17686.443649106463,-14670.142790096139,-21233.397273230228,-7454.99967992302,-187500.02235174447,-187500.02235174447,-187500.02235174447,-187500.02235174447
talvez,17614.985122082846,-14728.190270446572,-21404.61163575788,-7540.785675142489,-187500.02235174447,-187500.02235174447,-187500.02235174447,-187500.02235174447
talvez,17527.32158032913,-14779.621634438234,-21760.362000508547,-7579.945931428187,-187500.02235174447,-187500.02235174447,-187500.02235174447,-187500.02235174447
talvez,17589.168857236964,-14730.96188675903,-21627.23501053274,-7512.778939339989,-187500.02235174447,-187500.02235174447,-187500.02235174447,-187500.02235174447
talvez,17680.45338159244,-14681.609235001712,-21280.291233097465,-7475.9432644776425,-187500.02235174447,-187500.02235174447,-187500.02235174447,-187500.02235174447
talvez,17614.538087193738,-14726.849165779253,-21366.390152739306,-7555.202550316161,-187500.02235174447,-187500.02235174447,-187500.02235174447,-187500.02235174447
talvez,17502.80171666166,-14782.25914028396,-21756.49514871778,-7598.587286303912,-187500.02235174447,-187500.02235174447,-187500.02235174447,-187500.02235174447
talvez,17551.50616782977,-14755.30293647086,-21688.277624640185,-7513.874174818298,-187500.02235174447,-187500.02235174447,-187500.02235174447,-187500.02235174447
talvez,17663.823683717692,-14690.214656617005,-21316.70222481516,-7439.129941359752,-187500.02235174447,-187500.02235174447,-187500.02235174447,-187500.02235174447
talvez,17664.02484941779,-14687.420688560092,-21266.097875368345,-7477.217313911595,-187500.02235174447,-187500.02235174447,-187500.02235174447,-187500.02235174447
talvez,17541.559641547163,-14769.228073266517,-21676.721772756788,-7560.097582351874,-187500.02235174447,-187500.02235174447,-187500.02235174447,-187500.02235174447
talvez,17564.42547612494,-14741.176633975105,-21706.024909737698,-7523.999515056553,-187500.02235174447,-187500.02235174447,-187500.02235174447,-187500.02235174447
talvez,17662.035544161266,-14685.252569347927,-21371.307536519475,-7477.016148211497,-187500.02235174447,-187500.02235174447,-187500.02235174447,-187500.02235174447
talvez,17651.664334734003,-14697.188400887062,-21256.330163041373,-7510.9237445501985,-187500.02235174447,-187500.02235174447,-187500.02235174447,-187500.02235174447
talvez,17523.94646691638,-14779.286358271404,-21641.316609539583,-7582.225809362628,-187500.02235174447,-187500.02235174447,-187500.02235174447,-187500.02235174447
talvez,17510.825992921113,-14779.867503627242,-21774.30948904866,-7554.934329382698,-187500.02235174447,-187500.02235174447,-187500.02235174447,-187500.02235174447
talvez,17616.147412794522,-14703.156316656628,-21463.24026146415,-7487.7673372945,-187500.02235174447,-187500.02235174447,-187500.02235174447,-187500.02235174447
talvez,17674.619576289606,-14667.304118550315,-21226.602342915816,-7481.262979658006,-187500.02235174447,-187500.02235174447,-187500.02235174447,-187500.02235174447
talvez,17564.358420891574,-14749.983221290497,-21556.379980609418,-7570.714660968145,-187500.02235174447,-187500.02235174447,-187500.02235174447,-187500.02235174447
talvez,17540.732627002315,-14773.765477390943,-21760.183186552906,-7545.993631600575,-187500.02235174447,-187500.02235174447,-187500.02235174447,-187500.02235174447
talvez,17631.97244786888,-14708.073700436797,-21498.041927581064,-7471.405860353215,-187500.02235174447,-187500.02235174447,-187500.02235174447,-187500.02235174447
talvez,17682.26387289332,-14678.90467392262,-21226.825860360368,-7474.0657179433965,-187500.02235174447,-187500.02235174447,-187500.02235174447,-187500.02235174447
talvez,17566.079505214635,-14760.957927818052,-21507.608474207937,-7577.151963371273,-187500.02235174447,-187500.02235174447,-187500.02235174447,-187500.02235174447
talvez,17519.207897091856,-14785.053108340873,-21785.261843831762,-7562.802143430966,-187500.02235174447,-187500.02235174447,-187500.02235174447,-187500.02235174447
talvez,17608.972502824367,-14728.14556695766,-21567.913480748353,-7479.139563934751,-187500.02235174447,-187500.02235174447,-187500.02235174447,-187500.02235174447
talvez,17684.67786129449,-14684.604368758723,-21247.25535479252,-7473.90925573221,-187500.02235174447,-187500.02235174447,-187500.02235174447,-187500.02235174447
talvez,17603.652787644005,-14741.623668864211,-21422.269513877574,-7560.432858518703,-187500.02235174447,-187500.02235174447,-187500.02235174447,-187500.02235174447
talvez,17506.668568452427,-14789.724622932032,-21785.753582209778,-7594.049882179485,-187500.02235174447,-187500.02235174447,-187500.02235174447,-187500.02235174447
talvez,17585.81609556867,-14738.896756040664,-21636.28746703714,-7505.179346225184,-187500.02235174447,-187500.02235174447,-187500.02235174447,-187500.02235174447
talvez,17681.63802404857,-14683.375022813681,-21278.05605865193,-7458.374793335771,-187500.02235174447,-187500.02235174447,-187500.02235174447,-187500.02235174447
talvez,17621.467127974884,-14725.463357623024,-21350.878042087323,-7527.732256380589,-187500.02235174447,-187500.02235174447,-187500.02235174447,-187500.02235174447
talvez,17503.159344572945,-14795.469021257046,-21749.007314325252,-7579.029509905519,-187500.02235174447,-187500.02235174447,-187500.02235174447,-187500.02235174447
talvez,17555.03774345371,-14752.128988758206,-21696.10073519954,-7513.002456784542,-187500.02235174447,-187500.02235174447,-187500.02235174447,-187500.02235174447
talvez,17667.802294230736,-14699.758851499422,-21329.621533110327,-7457.033688668453,-187500.02235174447,-187500.02235174447,-187500.02235174447,-187500.02235174447
talvez,17645.003514886324,-14723.764625044421,-21293.031727436988,-7528.358105225338,-187500.02235174447,-187500.02235174447,-187500.02235174447,-187500.02235174447
talvez,17520.95133315937,-14780.940387361097,-21702.023947480197,-7606.7233212856445,-187500.02235174447,-187500.02235174447,-187500.02235174447,-187500.02235174447
talvez,17545.202975893375,-14758.029849294408,-21744.313447989636,-7553.6826316932,-187500.02235174447,-187500.02235174447,-187500.02235174447,-187500.02235174447
talvez,17655.575890013683,-14693.790935729854,-21395.62623448685,-7470.154162663718,-187500.02235174447,-187500.02235174447,-187500.02235174447,-187500.02235174447
talvez,17656.20173885843,-14708.118403925706,-21254.63143046277,-7490.404843140226,-187500.02235174447,-187500.02235174447,-187500.02235174447,-187500.02235174447
talvez,17524.0358738942,-14800.11818410375,-21645.47403400827,-7583.1869343742055,-187500.02235174447,-187500.02235174447,-187500.02235174447,-187500.02235174447
talvez,17510.378958032008,-14787.176524064127,-21785.150085109482,-7554.7778671715105,-187500.02235174447,-187500.02235174447,-187500.02235174447,-187500.02235174447
talvez,17618.62845642906,-14710.66650279361,-21471.711572612712,-7472.635206298257,-187500.02235174447,-187500.02235174447,-187500.02235174447,-187500.02235174447
talvez,17661.789674972257,-14694.685005508067,-21239.00756108851,-7490.67306407369,-187500.02235174447,-187500.02235174447,-187500.02235174447,-187500.02235174447
talvez,17550.790912007204,-14781.20860829456,-21566.25945165866,-7588.841925721398,-187500.02235174447,-187500.02235174447,-187500.02235174447,-187500.02235174447
talvez,17528.685036740906,-14791.378652021725,-21784.5912914981,-7573.933312169709,-187500.02235174447,-187500.02235174447,-187500.02235174447,-187500.02235174447
talvez,17614.359273238097,-14729.933706514086,-21530.764881463634,-7500.8878112897655,-187500.02235174447,-187500.02235174447,-187500.02235174447,-187500.02235174447
talvez,17659.77801797128,-14702.172839900595,-21255.369038029796,-7495.188116453662,-187500.02235174447,-187500.02235174447,-187500.02235174447,-187500.02235174447
talvez,17554.121321931045,-14771.843227367786,-21510.134221331387,-7582.315216340449,-187500.02235174447,-187500.02235174447,-187500.02235174447,-187500.02235174447
talvez,17497.41494624793,-14800.185239337115,-21800.639844017012,-7577.598998260379,-187500.02235174447,-187500.02235174447,-187500.02235174447,-187500.02235174447
talvez,17585.793743824215,-14738.360314173737,-21597.686004362822,-7495.322226920393,-187500.02235174447,-187500.02235174447,-187500.02235174447,-187500.02235174447
talvez,17671.31151811022,-14694.707357252522,-21265.650840479237,-7472.635206298257,-187500.02235174447,-187500.02235174447,-187500.02235174447,-187500.02235174447
talvez,17594.24270322832,-14753.805369592354,-21415.251066118606,-7557.281262550505,-187500.02235174447,-187500.02235174447,-187500.02235174447,-187500.02235174447
talvez,17495.1797718024,-14804.208553339071,-21774.533006493213,-7585.757384986567,-187500.02235174447,-187500.02235174447,-187500.02235174447,-187500.02235174447
talvez,17563.509054602273,-14751.905471313654,-21653.23008933426,-7508.062721259919,-187500.02235174447,-187500.02235174447,-187500.02235174447,-187500.02235174447
talvez,17643.371837541086,-14699.825906732787,-21313.751794547057,-7472.568151064891,-187500.02235174447,-187500.02235174447,-187500.02235174447,-187500.02235174447
talvez,17604.14452602202,-14740.439026408081,-21355.773074123037,-7535.063628561929,-187500.02235174447,-187500.02235174447,-187500.02235174447,-187500.02235174447
talvez,17492.855190379047,-14810.332931319826,-21756.763369651246,-7599.7942805044995,-187500.02235174447,-187500.02235174447,-187500.02235174447,-187500.02235174447
talvez,17528.99796116328,-14778.392288493193,-21709.78000280619,-7549.547558968969,-187500.02235174447,-187500.02235174447,-187500.02235174447,-187500.02235174447
talvez,17629.178479811966,-14698.015415431908,-21355.102521789377,-7475.138601677251,-187500.02235174447,-187500.02235174447,-187500.02235174447,-187500.02235174447
talvez,17617.555572695204,-14725.038674478374,-21301.0783554409,-7521.697285377656,-187500.02235174447,-187500.02235174447,-187500.02235174447,-187500.02235174447
talvez,17497.861981137037,-14799.06765211435,-21702.649796324946,-7581.242332606595,-187500.02235174447,-187500.02235174447,-187500.02235174447,-187500.02235174447
talvez,17517.285647068697,-14761.270852240426,-21744.961648578843,-7539.735143153089,-187500.02235174447,-187500.02235174447,-187500.02235174447,-187500.02235174447
talvez,17589.124153748056,-14709.414805104114,-21430.852583748412,-7498.585581610869,-187500.02235174447,-187500.02235174447,-187500.02235174447,-187500.02235174447
talvez,17633.71588393639,-14737.555651373346,-21211.269046219477,-7494.986950753564,-187500.02235174447,-187500.02235174447,-187500.02235174447,-187500.02235174447
talvez,17517.97855114681,-14817.016102911963,-21662.796635961135,-7578.515419783047,-187500.02235174447,-187500.02235174447,-187500.02235174447,-187500.02235174447
talvez,17525.734606472804,-14781.87916062822,-21808.015919687263,-7546.463018234136,-187500.02235174447,-187500.02235174447,-187500.02235174447,-187500.02235174447
talvez,17616.192116283433,-14723.742273299966,-21496.522008958105,-7487.923799505687,-187500.02235174447,-187500.02235174447,-187500.02235174447,-187500.02235174447
talvez,17682.59914906015,-14698.19422938755,-21202.954197282103,-7472.232874898062,-187500.02235174447,-187500.02235174447,-187500.02235174447,-187500.02235174447
talvez,17543.95127820388,-14782.907340873164,-21558.6375067994,-7585.042129163997,-187500.02235174447,-187500.02235174447,-187500.02235174447,-187500.02235174447
talvez,17511.965931888335,-14804.990864395008,-21834.45803337789,-7569.172390600728,-187500.02235174447,-187500.02235174447,-187500.02235174447,-187500.02235174447
talvez,17637.292163049242,-14715.449776107047,-21496.142029302362,-7450.506979287503,-187500.02235174447,-187500.02235174447,-187500.02235174447,-187500.02235174447
talvez,17690.578721830694,-14693.723880496489,-21191.465400632074,-7452.004546166008,-187500.02235174447,-187500.02235174447,-187500.02235174447,-187500.02235174447
talvez,17578.9988135098,-14755.615860893235,-21466.660078365814,-7534.437779717181,-187500.02235174447,-187500.02235174447,-187500.02235174447,-187500.02235174447
talvez,17519.766690703236,-14785.678957185622,-21765.92758487792,-7540.249233275561,-187500.02235174447,-187500.02235174447,-187500.02235174447,-187500.02235174447
talvez,17606.44675570092,-14728.68200882459,-21559.08454168851,-7456.944281690631,-187500.02235174447,-187500.02235174447,-187500.02235174447,-187500.02235174447
talvez,17693.283282909786,-14682.659766991112,-21211.090232263832,-7423.953106874598,-187500.02235174447,-187500.02235174447,-187500.02235174447,-187500.02235174447
talvez,17600.948226564913,-14734.53816587188,-21364.244385271595,-7495.299875175939,-187500.02235174447,-187500.02235174447,-187500.02235174447,-187500.02235174447
talvez,17505.193353318376,-14780.202779794072,-21704.884970770476,-7535.7565326400445,-187500.02235174447,-187500.02235174447,-187500.02235174447,-187500.02235174447
talvez,17590.39820318201,-14735.476939139002,-21583.202073955785,-7467.091973673341,-187500.02235174447,-187500.02235174447,-187500.02235174447,-187500.02235174447
talvez,17711.946989529966,-14677.965900655498,-21217.169906755676,-7412.75488290249,-187500.02235174447,-187500.02235174447,-187500.02235174447,-187500.02235174447
talvez,17670.082172165177,-14717.886116252675,-21246.338933269853,-7467.427249840171,-187500.02235174447,-187500.02235174447,-187500.02235174447,-187500.02235174447
talvez,17570.326336661143,-14799.961721892563,-21621.08828080753,-7495.366930409305,-187500.02235174447,-187500.02235174447,-187500.02235174447,-187500.02235174447
talvez,17615.141584294033,-14766.143532531683,-21571.31094590556,-7442.505054772503,-187500.02235174447,-187500.02235174447,-187500.02235174447,-187500.02235174447
talvez,17722.519364657328,-14681.72099372399,-21208.363319440286,-7394.113528026764,-187500.02235174447,-187500.02235174447,-187500.02235174447,-187500.02235174447
talvez,17710.739995329383,-14721.06006396533,-21146.247821598987,-7461.392278837237,-187500.02235174447,-187500.02235174447,-187500.02235174447,-187500.02235174447
talvez,17594.33211020614,-14800.341701548303,-21527.568582006526,-7536.851768118355,-187500.02235174447,-187500.02235174447,-187500.02235174447,-187500.02235174447
talvez,17604.43509869994,-14769.675108155621,-21581.190416954807,-7471.450563842126,-187500.02235174447,-187500.02235174447,-187500.02235174447,-187500.02235174447
talvez,17710.27060869582,-14702.061081178319,-21237.19706978763,-7398.293304239906,-187500.02235174447,-187500.02235174447,-187500.02235174447,-187500.02235174447
talvez,17746.972173091435,-14694.617950274702,-21064.574547359294,-7440.582804749347,-187500.02235174447,-187500.02235174447,-187500.02235174447,-187500.02235174447
talvez,17637.515680493794,-14784.941349618597,-21428.95268546971,-7531.219128515617,-187500.02235174447,-187500.02235174447,-187500.02235174447,-187500.02235174447
talvez,17611.855877859103,-14790.149306076682,-21596.099030506495,-7507.146299737251,-187500.02235174447,-187500.02235174447,-187500.02235174447,-187500.02235174447
talvez,17710.091794740176,-14719.227220919995,-21298.21733215062,-7422.030856851442,-187500.02235174447,-187500.02235174447,-187500.02235174447,-187500.02235174447
talvez,17775.94003390551,-14703.692758523555,-21039.49589008044,-7427.618792965269,-187500.02235174447,-187500.02235174447,-187500.02235174447,-187500.02235174447
talvez,17642.097788107134,-14778.951082104575,-21365.98782133911,-7533.096675049863,-187500.02235174447,-187500.02235174447,-187500.02235174447,-187500.02235174447
talvez,17582.731554833837,-14791.579817721822,-21627.167955299374,-7519.842090587866,-187500.02235174447,-187500.02235174447,-187500.02235174447,-187500.02235174447
talvez,17678.464076335917,-14738.069741495818,-21365.42902772773,-7448.517674030981,-187500.02235174447,-187500.02235174447,-187500.02235174447,-187500.02235174447
talvez,17745.65342016857,-14671.908577908109,-21058.31605891181,-7488.572000094891,-187500.02235174447,-187500.02235174447,-187500.02235174447,-187500.02235174447
talvez,17651.373762056086,-14737.041561250873,-21294.439887337674,-7567.987748144597,-187500.02235174447,-187500.02235174447,-187500.02235174447,-187500.02235174447
talvez,17594.62268288406,-14764.221282508528,-21610.47120219126,-7566.177256843717,-187500.02235174447,-187500.02235174447,-187500.02235174447,-187500.02235174447
talvez,17681.03452694828,-14693.410956074114,-21424.415281345282,-7467.695470773634,-187500.02235174447,-187500.02235174447,-187500.02235174447,-187500.02235174447
talvez,17760.89730988709,-14659.592766713235,-21082.54534990136,-7405.110586298774,-187500.02235174447,-187500.02235174447,-187500.02235174447,-187500.02235174447
talvez,17683.716736282913,-14706.374967858192,-21213.615979387283,-7507.302761948438,-187500.02235174447,-187500.02235174447,-187500.02235174447,-187500.02235174447
talvez,17586.218426968866,-14746.87632881121,-21586.957167024277,-7562.355108541859,-187500.02235174447,-187500.02235174447,-187500.02235174447,-187500.02235174447
talvez,17622.58471519765,-14697.657787520622,-21507.764936419124,-7518.746855109555,-187500.02235174447,-187500.02235174447,-187500.02235174447,-187500.02235174447
talvez,17735.46102469695,-14637.08456004674,-21147.1418913772,-7457.324261346372,-187500.02235174447,-187500.02235174447,-187500.02235174447,-187500.02235174447
talvez,17713.958646530944,-14690.482877550468,-21157.17782463763,-7507.794500326455,-187500.02235174447,-187500.02235174447,-187500.02235174447,-187500.02235174447
talvez,17584.85497055709,-14768.669279655132,-21573.70258256228,-7583.142230885295,-187500.02235174447,-187500.02235174447,-187500.02235174447,-187500.02235174447
talvez,17593.505095661294,-14727.430311135091,-21581.07865823253,-7535.354201239848,-187500.02235174447,-187500.02235174447,-187500.02235174447,-187500.02235174447
talvez,17695.429050377494,-14658.13990332364,-21233.956066841612,-7464.7897439944445,-187500.02235174447,-187500.02235174447,-187500.02235174447,-187500.02235174447
talvez,17688.857637507634,-14677.854141933221,-21150.919336190145,-7516.645791130757,-187500.02235174447,-187500.02235174447,-187500.02235174447,-187500.02235174447
talvez,17560.044534211702,-14757.515759171934,-21546.031122926608,-7591.12180365584,-187500.02235174447,-187500.02235174447,-187500.02235174447,-187500.02235174447
talvez,17582.61979611156,-14716.746177285455,-21628.93374311134,-7513.896526562754,-187500.02235174447,-187500.02235174447,-187500.02235174447,-187500.02235174447
talvez,17712.438727907986,-14634.715275134478,-21257.671267708694,-7455.513770045492,-187500.02235174447,-187500.02235174447,-187500.02235174447,-187500.02235174447
talvez,17719.367768689128,-14654.518920721881,-21100.56085593234,-7506.229878214584,-187500.02235174447,-187500.02235174447,-187500.02235174447,-187500.02235174447
talvez,17595.270883473266,-14743.411808420637,-21471.24218597915,-7607.349170130393,-187500.02235174447,-187500.02235174447,-187500.02235174447,-187500.02235174447
talvez,17561.899729001492,-14743.545918887368,-21656.448740535827,-7586.606751275868,-187500.02235174447,-187500.02235174447,-187500.02235174447,-187500.02235174447
talvez,17653.92186092399,-14684.559665269813,-21381.27641454654,-7481.486497102559,-187500.02235174447,-187500.02235174447,-187500.02235174447,-187500.02235174447
talvez,17717.624332621614,-14650.741475908933,-21119.291617785886,-7480.48066860207,-187500.02235174447,-187500.02235174447,-187500.02235174447,-187500.02235174447
talvez,17611.565305181182,-14710.733558026977,-21424.124708667365,-7589.400719332782,-187500.02235174447,-187500.02235174447,-187500.02235174447,-187500.02235174447
talvez,17557.116455688054,-14742.316572942325,-21692.077421197584,-7577.8448674493875,-187500.02235174447,-187500.02235174447,-187500.02235174447,-187500.02235174447
talvez,17643.84122417465,-14705.167973657606,-21462.68146785277,-7503.458261902126,-187500.02235174447,-187500.02235174447,-187500.02235174447,-187500.02235174447
talvez,17737.18210902001,-14670.142790096139,-21125.058367855356,-7469.885941730255,-187500.02235174447,-187500.02235174447,-187500.02235174447,-187500.02235174447
talvez,17646.657543976016,-14734.851090294254,-21340.350370448872,-7551.022774103019,-187500.02235174447,-187500.02235174447,-187500.02235174447,-187500.02235174447
talvez,17549.42745559543,-14762.142570274184,-21696.368956133003,-7575.721451726134,-187500.02235174447,-187500.02235174447,-187500.02235174447,-187500.02235174447
talvez,17621.48947971934,-14705.793822502355,-21539.92909669031,-7518.098654520351,-187500.02235174447,-187500.02235174447,-187500.02235174447,-187500.02235174447
talvez,17722.094681512677,-14680.268130334394,-21164.03981018541,-7468.321319618383,-187500.02235174447,-187500.02235174447,-187500.02235174447,-187500.02235174447
talvez,17653.07249463469,-14740.908413041641,-21280.626509264293,-7538.170521041217,-187500.02235174447,-187500.02235174447,-187500.02235174447,-187500.02235174447
talvez,17540.71027525786,-14775.553616947367,-21694.603168321035,-7590.473603066636,-187500.02235174447,-187500.02235174447,-187500.02235174447,-187500.02235174447
talvez,17620.10367156311,-14735.454587394546,-21584.409068156372,-7505.872250303299,-187500.02235174447,-187500.02235174447,-187500.02235174447,-187500.02235174447
talvez,17723.726358857915,-14688.04653740484,-21211.738432853035,-7463.8509707273215,-187500.02235174447,-187500.02235174447,-187500.02235174447,-187500.02235174447
talvez,17682.01800370431,-14714.332188884282,-21233.419624974686,-7534.907166350743,-187500.02235174447,-187500.02235174447,-187500.02235174447,-187500.02235174447
talvez,17545.292382871197,-14779.666337927145,-21667.646964507934,-7599.861335737865,-187500.02235174447,-187500.02235174447,-187500.02235174447,-187500.02235174447
talvez,17584.162066478977,-14747.39041893368,-21663.511891783703,-7514.522375407502,-187500.02235174447,-187500.02235174447,-187500.02235174447,-187500.02235174447
talvez,17689.550541585748,-14686.481915292969,-21308.767355533524,-7477.8208110118885,-187500.02235174447,-187500.02235174447,-187500.02235174447,-187500.02235174447
talvez,17695.943140499967,-14699.311816610316,-21205.658758361194,-7535.2871460064825,-187500.02235174447,-187500.02235174447,-187500.02235174447,-187500.02235174447
talvez,17583.983252523336,-14784.360204262759,-21582.308004177572,-7604.488146840114,-187500.02235174447,-187500.02235174447,-187500.02235174447,-187500.02235174447
talvez,17597.260188729786,-14765.472980198025,-21661.321420827084,-7544.071381577419,-187500.02235174447,-187500.02235174447,-187500.02235174447,-187500.02235174447
talvez,17683.78379151628,-14706.017339946908,-21344.686608873202,-7481.508848847014,-187500.02235174447,-187500.02235174447,-187500.02235174447,-187500.02235174447
talvez,17704.570913859716,-14712.856973750231,-21157.535452548917,-7505.134642736273,-187500.02235174447,-187500.02235174447,-187500.02235174447,-187500.02235174447
talvez,17588.185380480933,-14782.013271094951,-21521.846535425968,-7584.326873341427,-187500.02235174447,-187500.02235174447,-187500.02235174447,-187500.02235174447
talvez,17558.837540011114,-14781.476829228024,-21708.125973716495,-7563.293881808982,-187500.02235174447,-187500.02235174447,-187500.02235174447,-187500.02235174447
talvez,17665.812988974212,-14718.19904067505,-21397.772001954556,-7473.283406887461,-187500.02235174447,-187500.02235174447,-187500.02235174447,-187500.02235174447
talvez,17735.952763074965,-14684.67142399209,-21128.321722545832,-7466.622587039779,-187500.02235174447,-187500.02235174447,-187500.02235174447,-187500.02235174447
talvez,17627.435043744452,-14755.481750426503,-21455.640668349348,-7565.953739399164,-187500.02235174447,-187500.02235174447,-187500.02235174447,-187500.02235174447
talvez,17563.41964762445,-14789.970492121041,-21717.938389532377,-7562.2880533084935,-187500.02235174447,-187500.02235174447,-187500.02235174447,-187500.02235174447
talvez,17644.48942476385,-14731.788901303877,-21491.179942033286,-7487.409709383215,-187500.02235174447,-187500.02235174447,-187500.02235174447,-187500.02235174447
talvez,17715.99265527638,-14697.903656709632,-21176.176807424643,-7470.489438830547,-187500.02235174447,-187500.02235174447,-187500.02235174447,-187500.02235174447
talvez,17650.233823088864,-14748.48565441199,-21346.631210640815,-7536.941175096175,-187500.02235174447,-187500.02235174447,-187500.02235174447,-187500.02235174447
talvez,17570.549854105695,-14784.963701363053,-21686.95887171732,-7570.6252539903235,-187500.02235174447,-187500.02235174447,-187500.02235174447,-187500.02235174447
talvez,17643.550651496727,-14735.096959483262,-21526.518050017126,-7497.266828688005,-187500.02235174447,-187500.02235174447,-187500.02235174447,-187500.02235174447
talvez,17749.65438242607,-14667.929967395065,-21168.487807332018,-7451.199883365618,-187500.02235174447,-187500.02235174447,-187500.02235174447,-187500.02235174447
talvez,17694.825553277202,-14723.474052366502,-21260.286421809964,-7529.25217500355,-187500.02235174447,-187500.02235174447,-187500.02235174447,-187500.02235174447
talvez,17582.28451994473,-14799.447631770092,-21646.681028208855,-7583.164582629751,-187500.02235174447,-187500.02235174447,-187500.02235174447,-187500.02235174447
talvez,17623.031750086757,-14759.817988850831,-21590.153466481384,-7516.645791130757,-187500.02235174447,-187500.02235174447,-187500.02235174447,-187500.02235174447
talvez,17722.854640824156,-14685.632549003667,-21240.326314011374,-7459.201807880618,-187500.02235174447,-187500.02235174447,-187500.02235174447,-187500.02235174447
talvez,17699.161791701532,-14720.076587209296,-21222.221401002575,-7523.351314467349,-187500.02235174447,-187500.02235174447,-187500.02235174447,-187500.02235174447
talvez,17578.19415070941,-14805.504954517479,-21617.914333094875,-7592.373501345337,-187500.02235174447,-187500.02235174447,-187500.02235174447,-187500.02235174447
talvez,17613.912238348992,-14759.92974757311,-21623.770490142168,-7503.972352024598,-187500.02235174447,-187500.02235174447,-187500.02235174447,-187500.02235174447
talvez,17719.144251244576,-14690.706394995022,-21287.06381166742,-7423.036685351931,-187500.02235174447,-187500.02235174447,-187500.02235174447,-187500.02235174447
talvez,17730.811861850245,-14702.57517130079,-21156.730789748526,-7450.886958943243,-187500.02235174447,-187500.02235174447,-187500.02235174447,-187500.02235174447
talvez,17600.210618997888,-14775.687727414099,-21549.7862159951,-7545.300727522461,-187500.02235174447,-187500.02235174447,-187500.02235174447,-187500.02235174447
talvez,17605.463278944884,-14756.085247526795,-21654.41473179039,-7512.756587595533,-187500.02235174447,-187500.02235174447,-187500.02235174447,-187500.02235174447
talvez,17701.508724869338,-14704.117441668206,-21346.005361796066,-7471.38350860876,-187500.02235174447,-187500.02235174447,-187500.02235174447,-187500.02235174447
talvez,17740.534870688305,-14698.753022998933,-21148.57240302234,-7503.502965391036,-187500.02235174447,-187500.02235174447,-187500.02235174447,-187500.02235174447
talvez,17614.783956382747,-14772.469076212536,-21489.481209454683,-7577.710756982656,-187500.02235174447,-187500.02235174447,-187500.02235174447,-187500.02235174447
talvez,17590.129982248545,-14781.432125739113,-21684.00844144922,-7542.6855734211895,-187500.02235174447,-187500.02235174447,-187500.02235174447,-187500.02235174447
talvez,17702.961588258935,-14715.539183084868,-21401.99648165661,-7466.779049250967,-187500.02235174447,-187500.02235174447,-187500.02235174447,-187500.02235174447
talvez,17757.298679029784,-14687.934778682564,-21139.542298262393,-7447.0648106413855,-187500.02235174447,-187500.02235174447,-187500.02235174447,-187500.02235174447
talvez,17640.15318633952,-14771.463247712047,-21417.307426608495,-7534.102503550352,-187500.02235174447,-187500.02235174447,-187500.02235174447,-187500.02235174447
talvez,17588.76652583677,-14800.475812015035,-21687.09298218405,-7541.411523987237,-187500.02235174447,-187500.02235174447,-187500.02235174447,-187500.02235174447
talvez,17686.890683995567,-14716.366197629715,-21462.48030215267,-7448.920005431177,-187500.02235174447,-187500.02235174447,-187500.02235174447,-187500.02235174447
talvez,17765.03238261132,-14677.80943844431,-21141.933934919114,-7426.188281320129,-187500.02235174447,-187500.02235174447,-187500.02235174447,-187500.02235174447
talvez,17683.35910837163,-14752.173692247117,-21326.827565053412,-7509.157956738229,-187500.02235174447,-187500.02235174447,-187500.02235174447,-187500.02235174447
talvez,17580.451676899396,-14795.26785555695,-21697.665357311413,-7567.674823722223,-187500.02235174447,-187500.02235174447,-187500.02235174447,-187500.02235174447
talvez,17636.68866594895,-14751.39138119118,-21563.487835346205,-7509.649695116245,-187500.02235174447,-187500.02235174447,-187500.02235174447,-187500.02235174447
talvez,17742.45712071146,-14686.52661878188,-21191.28658667643,-7446.036630396442,-187500.02235174447,-187500.02235174447,-187500.02235174447,-187500.02235174447
talvez,17707.901323783557,-14740.103750241251,-21259.01237237601,-7522.278430733494,-187500.02235174447,-187500.02235174447,-187500.02235174447,-187500.02235174447
talvez,17611.945284836922,-14785.701308930078,-21641.607182217504,-7560.231692818606,-187500.02235174447,-187500.02235174447,-187500.02235174447,-187500.02235174447
talvez,17663.086076150666,-14744.06000900984,-21583.64910884489,-7484.727500048578,-187500.02235174447,-187500.02235174447,-187500.02235174447,-187500.02235174447
talvez,17765.188844822507,-14685.051403647829,-21225.48475569305,-7426.836481909333,-187500.02235174447,-187500.02235174447,-187500.02235174447,-187500.02235174447
talvez,17734.07521654072,-14717.752005785944,-21192.068897732366,-7485.643921571246,-187500.02235174447,-187500.02235174447,-187500.02235174447,-187500.02235174447
talvez,17616.326226750163,-14798.844134669798,-21600.904655564387,-7559.024698618019,-187500.02235174447,-187500.02235174447,-187500.02235174447,-187500.02235174447
talvez,17637.940363638445,-14777.274701270426,-21638.14266182693,-7508.822680571399,-187500.02235174447,-187500.02235174447,-187500.02235174447,-187500.02235174447
talvez,17728.33081821571,-14715.695645296055,-21310.30962590094,-7464.7897439944445,-187500.02235174447,-187500.02235174447,-187500.02235174447,-187500.02235174447
talvez,17737.092702042188,-14696.428441575581,-21181.34006039382,-7490.29308441795,-187500.02235174447,-187500.02235174447,-187500.02235174447,-187500.02235174447
talvez,17619.790747140738,-14775.330099502815,-21549.138015405897,-7557.504779995058,-187500.02235174447,-187500.02235174447,-187500.02235174447,-187500.02235174447
talvez,17632.173613568975,-14765.5847389203,-21660.226185348773,-7499.323189177894,-187500.02235174447,-187500.02235174447,-187500.02235174447,-187500.02235174447
talvez,17732.22002175093,-14709.14658417065,-21348.061722285955,-7415.995885848509,-187500.02235174447,-187500.02235174447,-187500.02235174447,-187500.02235174447
talvez,17766.395839023095,-14708.81130800382,-21130.64630396918,-7451.244586854528,-187500.02235174447,-187500.02235174447,-187500.02235174447,-187500.02235174447
talvez,17641.248421817832,-14793.747936933987,-21474.058505780522,-7564.92555915422,-187500.02235174447,-187500.02235174447,-187500.02235174447,-187500.02235174447
talvez,17603.071642288167,-14776.514741958947,-21693.574988076092,-7549.391096757781,-187500.02235174447,-187500.02235174447,-187500.02235174447,-187500.02235174447
talvez,17693.663262565526,-14715.136851684672,-21435.76996752858,-7468.947168463132,-187500.02235174447,-187500.02235174447,-187500.02235174447,-187500.02235174447
talvez,17769.32391754674,-14694.975578185986,-21140.481071529517,-7451.222235110073,-187500.02235174447,-187500.02235174447,-187500.02235174447,-187500.02235174447
talvez,17668.11521865311,-14769.943329089087,-21399.47073453316,-7528.335753480882,-187500.02235174447,-187500.02235174447,-187500.02235174447,-187500.02235174447
talvez,17598.780107352748,-14808.388329552214,-21698.313557900616,-7514.34356145186,-187500.02235174447,-187500.02235174447,-187500.02235174447,-187500.02235174447
talvez,17670.77507624329,-14749.759703845944,-21506.669700940813,-7467.069621928886,-187500.02235174447,-187500.02235174447,-187500.02235174447,-187500.02235174447
talvez,17764.160664577565,-14684.00087165843,-21171.974679467046,-7480.078337201874,-187500.02235174447,-187500.02235174447,-187500.02235174447,-187500.02235174447
$SILENCE,17693.819724776713,-14736.594526361767,-21328.928629032212,-7556.20837881665,-187500.02235174447,-187500.02235174447,-187500.02235174447,-187500.02235174447
$SILENCE,17599.964749808878,-14785.231922296516,-21680.610976292013,-7564.858503920854,-187500.02235174447,-187500.02235174447,-187500.02235174447,-187500.02235174447
$SILENCE,17657.676953992483,-14748.77622708991,-21547.34987584947,-7470.020052196986,-187500.02235174447,-187500.02235174447,-187500.02235174447,-187500.02235174447
$SILENCE,17754.03532433931,-14704.184496901573,-21206.016386272477,-7419.236888794529,-187500.02235174447,-187500.02235174447,-187500.02235174447,-187500.02235174447
$SILENCE,17708.460117394938,-14737.153319973151,-21264.93558465667,-7508.509756149025,-187500.02235174447,-187500.02235174447,-187500.02235174447,-187500.02235174447
$SILENCE,17584.20676996789,-14817.574896523345,-21670.172711631385,-7572.7933732024885,-187500.02235174447,-187500.02235174447,-187500.02235174447,-187500.02235174447
$SILENCE,17617.220296528376,-14756.264061482438,-21627.123251810463,-7489.063738472908,-187500.02235174447,-187500.02235174447,-187500.02235174447,-187500.02235174447
$SILENCE,17723.32402745772,-14675.395450043137,-21267.59544224685,-7434.190205835129,-187500.02235174447,-187500.02235174447,-187500.02235174447,-187500.02235174447
$SILENCE,17706.917847027522,-14703.960979457019,-21215.873505577267,-7510.7225788501,-187500.02235174447,-187500.02235174447,-187500.02235174447,-187500.02235174447
$SILENCE,17591.24756947131,-14775.710079158554,-21614.38275747094,-7595.726263013633,-187500.02235174447,-187500.02235174447,-187500.02235174447,-187500.02235174447
$SILENCE,17624.082282076157,-14760.82381735132,-21649.609106732503,-7536.0471053179635,-187500.02235174447,-187500.02235174447,-187500.02235174447,-187500.02235174447
$SILENCE,17725.536850158795,-14701.234066633471,-21308.32032064442,-7447.400086808216,-187500.02235174447,-187500.02235174447,-187500.02235174447,-187500.02235174447
$SILENCE,17741.719513144435,-14705.682063780077,-21162.676353773637,-7467.561360306902,-187500.02235174447,-187500.02235174447,-187500.02235174447,-187500.02235174447
$SILENCE,17605.99972081181,-14782.192085050594,-21553.65306778587,-7559.963471885142,-187500.02235174447,-187500.02235174447,-187500.02235174447,-187500.02235174447
$SILENCE,17588.498304903307,-14766.478808698514,-21694.58081657658,-7510.052026516441,-187500.02235174447,-187500.02235174447,-187500.02235174447,-187500.02235174447
$SILENCE,17675.424239089996,-14716.321494140804,-21403.739917724124,-7457.458371813103,-187500.02235174447,-187500.02235174447,-187500.02235174447,-187500.02235174447
$SILENCE,17712.751652330357,-14692.561589784813,-21175.640365557716,-7484.414575626204,-187500.02235174447,-187500.02235174447,-187500.02235174447,-187500.02235174447
$SILENCE,17610.447717958417,-14747.368067189225,-21486.977814075686,-7560.969300385631,-187500.02235174447,-187500.02235174447,-187500.02235174447,-187500.02235174447
$SILENCE,17566.258319170276,-14773.430201224113,-21710.227037695295,-7544.943099611176,-187500.02235174447,-187500.02235174447,-187500.02235174447,-187500.02235174447
$SILENCE,17662.750799983838,-14705.190325402062,-21445.604735088913,-7462.6216247822795,-187500.02235174447,-187500.02235174447,-187500.02235174447,-187500.02235174447
$SILENCE,17738.61262066515,-14676.133057610163,-21150.67346700114,-7458.464200313592,-187500.02235174447,-187500.02235174447,-187500.02235174447,-187500.02235174447
$SILENCE,17641.695456706937,-14742.338924686781,-21396.542656009515,-7551.425105503215,-187500.02235174447,-187500.02235174447,-187500.02235174447,-187500.02235174447
$SILENCE,17576.2495489418,-14770.390363978191,-21698.939406745365,-7539.265756519528,-187500.02235174447,-187500.02235174447,-187500.02235174447,-187500.02235174447
$SILENCE,17642.25425031832,-14720.568325587312,-21514.02342486661,-7463.873322471777,-187500.02235174447,-187500.02235174447,-187500.02235174447,-187500.02235174447
$SILENCE,17706.828440049703,-14682.726822224478,-21202.373051926264,-7469.684776030157,-187500.02235174447,-187500.02235174447,-187500.02235174447,-187500.02235174447
$SILENCE,17646.434026531464,-14738.606183362745,-21345.625382140326,-7545.0325065889965,-187500.02235174447,-187500.02235174447,-187500.02235174447,-187500.02235174447
$SILENCE,17565.364249392063,-14773.094925057285,-21700.68284281288,-7565.417297532237,-187500.02235174447,-187500.02235174447,-187500.02235174447,-187500.02235174447
$SILENCE,17624.14933730952,-14716.410901118625,-21586.577187368537,-7500.172555467196,-187500.02235174447,-187500.02235174447,-187500.02235174447,-187500.02235174447
$SILENCE,17705.08500398219,-14671.193322085539,-21241.10862506731,-7465.214427139095,-187500.02235174447,-187500.02235174447,-187500.02235174447,-187500.02235174447
$SILENCE,17661.700267994438,-14712.074662694296,-21274.54683477245,-7534.415427972726,-187500.02235174447,-187500.02235174447,-187500.02235174447,-187500.02235174447
$SILENCE,17565.27484241424,-14775.01717508044,-21658.99683940373,-7584.483335552613,-187500.02235174447,-187500.02235174447,-187500.02235174447,-187500.02235174447
$SILENCE,17598.33307246364,-14746.272831710916,-21627.45852797729,-7492.550610607936,-187500.02235174447,-187500.02235174447,-187500.02235174447,-187500.02235174447
$SILENCE,17702.31338766973,-14675.216636087494,-21275.038573150465,-7423.953106874598,-187500.02235174447,-187500.02235174447,-187500.02235174447,-187500.02235174447
$SILENCE,17696.948969000456,-14688.582979271769,-21212.945427053623,-7514.34356145186,-187500.02235174447,-187500.02235174447,-187500.02235174447,-187500.02235174447
$SILENCE,17578.551778620695,-14766.165884276139,-21611.23116150274,-7594.720434513144,-187500.02235174447,-187500.02235174447,-187500.02235174447,-187500.02235174447
$SILENCE,17585.123191490555,-14750.005573034952,-21673.503121555226,-7542.707925165645,-187500.02235174447,-187500.02235174447,-187500.02235174447,-187500.02235174447
$SILENCE,17690.534018341783,-14679.888150678653,-21336.729387847114,-7471.182342908663,-187500.02235174447,-187500.02235174447,-187500.02235174447,-187500.02235174447
$SILENCE,17707.253123194354,-14669.829865673766,-21177.875540003246,-7492.170630952196,-187500.02235174447,-187500.02235174447,-187500.02235174447,-187500.02235174447
$SILENCE,17561.85502551258,-14748.172729989617,-21565.566547580547,-7583.253989607572,-187500.02235174447,-187500.02235174447,-187500.02235174447,-187500.02235174447
$SILENCE,17544.465368326353,-14748.552709645357,-21723.25810471274,-7543.534939710491,-187500.02235174447,-187500.02235174447,-187500.02235174447,-187500.02235174447
$SILENCE,17650.97143065589,-14697.836601476265,-21415.76515624108,-7466.689642273145,-187500.02235174447,-187500.02235174447,-187500.02235174447,-187500.02235174447
$SILENCE,17712.662245352538,-14684.04557514734,-21166.409095097675,-7473.95395922112,-187500.02235174447,-187500.02235174447,-187500.02235174447,-187500.02235174447
$SILENCE,17602.423441698964,-14749.089151512284,-21481.38987796186,-7559.851713162865,-187500.02235174447,-187500.02235174447,-187500.02235174447,-187500.02235174447
$SILENCE,17554.724819031337,-14744.194119476571,-21720.553543633647,-7558.935291640198,-187500.02235174447,-187500.02235174447,-187500.02235174447,-187500.02235174447
$SILENCE,17643.64005847455,-14686.52661878188,-21472.29271796855,-7481.017110468997,-187500.02235174447,-187500.02235174447,-187500.02235174447,-187500.02235174447
$SILENCE,17706.98490226089,-14671.573301741279,-21183.128199950243,-7479.43013661267,-187500.02235174447,-187500.02235174447,-187500.02235174447,-187500.02235174447
$SILENCE,17606.111479534087,-14733.755854815943,-21420.168449898774,-7566.445477777181,-187500.02235174447,-187500.02235174447,-187500.02235174447,-187500.02235174447
$SILENCE,17538.81037697916,-14757.336945216293,-21734.25516298475,-7583.097527396385,-187500.02235174447,-187500.02235174447,-187500.02235174447,-187500.02235174447
$SILENCE,17611.67706390346,-14707.894886481154,-21554.725951519722,-7512.242497473061,-187500.02235174447,-187500.02235174447,-187500.02235174447,-187500.02235174447
$SILENCE,17693.037413720776,-14662.654955703612,-21213.9065520652,-7467.851932984821,-187500.02235174447,-187500.02235174447,-187500.02235174447,-187500.02235174447
$SILENCE,17624.68577917645,-14718.646075564156,-21341.490309416095,-7528.291049991972,-187500.02235174447,-187500.02235174447,-187500.02235174447,-187500.02235174447
$SILENCE,17528.819147207636,-14772.558483190356,-21710.562313862123,-7556.92363463922,-187500.02235174447,-187500.02235174447,-187500.02235174447,-187500.02235174447
$SILENCE,17586.553703135694,-14727.899697768653,-21612.28169349214,-7534.080151805896,-187500.02235174447,-187500.02235174447,-187500.02235174447,-187500.02235174447
$SILENCE,17671.0209454323,-14668.689926706546,-21269.45063703664,-7511.05785501693,-187500.02235174447,-187500.02235174447,-187500.02235174447,-187500.02235174447
$SILENCE,17646.948116653934,-14695.154392141629,-21286.102686655842,-7554.196721815672,-187500.02235174447,-187500.02235174447,-187500.02235174447,-187500.02235174447
$SILENCE,17534.921173443934,-14764.06482029734,-21679.426333835883,-7590.495954811091,-187500.02235174447,-187500.02235174447,-187500.02235174447,-187500.02235174447
$SILENCE,17551.66263004096,-14736.661581595134,-21671.08913315405,-7523.753645867544,-187500.02235174447,-187500.02235174447,-187500.02235174447,-187500.02235174447
$SILENCE,17664.002497673333,-14664.599557471223,-21310.1308119453,-7461.14640964823,-187500.02235174447,-187500.02235174447,-187500.02235174447,-187500.02235174447
$SILENCE,17668.383439586574,-14680.67046173459,-21227.071729549378,-7491.209505940617,-187500.02235174447,-187500.02235174447,-187500.02235174447,-187500.02235174447
$SILENCE,17539.838557224102,-14756.889910327187,-21632.84529839102,-7588.439594321203,-187500.02235174447,-187500.02235174447,-187500.02235174447,-187500.02235174447
$SILENCE,17549.2933451287,-14741.266040952927,-21702.605092836035,-7562.176294586217,-187500.02235174447,-187500.02235174447,-187500.02235174447,-187500.02235174447
$SILENCE,17648.0657038767,-14671.215673829995,-21372.112199319865,-7494.003473997531,-187500.02235174447,-187500.02235174447,-187500.02235174447,-187500.02235174447
$SILENCE,17692.478620109396,-14657.648164945624,-21182.72586855005,-7497.6021048548355,-187500.02235174447,-187500.02235174447,-187500.02235174447,-187500.02235174447
$SILENCE,17562.167949934956,-14747.59158463378,-21559.50922483316,-7594.832193235421,-187500.02235174447,-187500.02235174447,-187500.02235174447,-187500.02235174447
$SILENCE,17534.29532459919,-14745.289354954883,-21725.8285553251,-7549.279338035505,-187500.02235174447,-187500.02235174447,-187500.02235174447,-187500.02235174447
$SILENCE,17633.1123868361,-14680.111668123207,-21434.25004890562,-7477.8208110118885,-187500.02235174447,-187500.02235174447,-187500.02235174447,-187500.02235174447
$SILENCE,17695.049070721754,-14655.167121311084,-21174.209853912576,-7455.290252600939,-187500.02235174447,-187500.02235174447,-187500.02235174447,-187500.02235174447
$SILENCE,17578.52942687624,-14731.72184607051,-21481.367526217407,-7563.9867858870975,-187500.02235174447,-187500.02235174447,-187500.02235174447,-187500.02235174447
$SILENCE,17526.069882639633,-14756.286413226893,-21741.720645632824,-7587.053786164974,-187500.02235174447,-187500.02235174447,-187500.02235174447,-187500.02235174447
$SILENCE,17608.279598746252,-14688.828848460776,-21514.24694231116,-7509.537936393969,-187500.02235174447,-187500.02235174447,-187500.02235174447,-187500.02235174447
$SILENCE,17672.96554719991,-14652.596670698724,-21211.96195029759,-7511.169613739206,-187500.02235174447,-187500.02235174447,-187500.02235174447,-187500.02235174447
$SILENCE,17592.00752878279,-14725.86568902322,-21419.47554582066,-7585.667978008745,-187500.02235174447,-187500.02235174447,-187500.02235174447,-187500.02235174447
$SILENCE,17533.80358622117,-14754.744142859478,-21731.640008883478,-7589.646588521789,-187500.02235174447,-187500.02235174447,-187500.02235174447,-187500.02235174447
$SILENCE,17610.604180169605,-14704.966807957508,-21557.966954465744,-7503.212392713117,-187500.02235174447,-187500.02235174447,-187500.02235174447,-187500.02235174447
$SILENCE,17683.8731984941,-14666.432400516558,-21229.82099411738,-7463.493342816037,-187500.02235174447,-187500.02235174447,-187500.02235174447,-187500.02235174447
$SILENCE,17622.092976819633,-14710.174764415595,-21340.75270184907,-7523.619535400812,-187500.02235174447,-187500.02235174447,-187500.02235174447,-187500.02235174447
$SILENCE,17524.19233610539,-14771.619709923234,-21715.792622064666,-7570.9158266682425,-187500.02235174447,-187500.02235174447,-187500.02235174447,-187500.02235174447
$SILENCE,17578.95411002089,-14712.745215027955,-21621.200039529806,-7499.993741511553,-187500.02235174447,-187500.02235174447,-187500.02235174447,-187500.02235174447
$SILENCE,17684.990785716866,-14641.823129871265,-21265.181453845675,-7451.6469182547235,-187500.02235174447,-187500.02235174447,-187500.02235174447,-187500.02235174447
$SILENCE,17638.409750272007,-14686.794839715343,-21294.55164605995,-7522.859576089332,-187500.02235174447,-187500.02235174447,-187500.02235174447,-187500.02235174447
$SILENCE,17510.22249582082,-14773.25138726847,-21698.0229852227,-7595.905076969276,-187500.02235174447,-187500.02235174447,-187500.02235174447,-187500.02235174447
$SILENCE,17565.073676714146,-14745.289354954883,-21673.793694233143,-7523.641887145268,-187500.02235174447,-187500.02235174447,-187500.02235174447,-187500.02235174447
$SILENCE,17675.156018156533,-14672.33326105276,-21320.814945794937,-7440.716915216079,-187500.02235174447,-187500.02235174447,-187500.02235174447,-187500.02235174447
$SILENCE,17670.909186710025,-14678.52469426688,-21218.44395618963,-7475.250360399528,-187500.02235174447,-187500.02235174447,-187500.02235174447,-187500.02235174447
$SILENCE,17545.828824738124,-14759.125084772717,-21625.17865004285,-7599.235486893116,-187500.02235174447,-187500.02235174447,-187500.02235174447,-187500.02235174447
$SILENCE,17544.465368326353,-14742.227165964505,-21729.606000138047,-7571.16169585725,-187500.02235174447,-187500.02235174447,-187500.02235174447,-187500.02235174447
$SILENCE,17642.276602062775,-14685.677252492578,-21414.51345855158,-7499.613761855813,-187500.02235174447,-187500.02235174447,-187500.02235174447,-187500.02235174447
$SILENCE,17674.664279778513,-14679.709336723012,-21219.762709112492,-7486.202715182629,-187500.02235174447,-187500.02235174447,-187500.02235174447,-187500.02235174447
$SILENCE,17554.05426669768,-14757.11342777174,-21571.64622207239,-7548.4970269795695,-187500.02235174447,-187500.02235174447,-187500.02235174447,-187500.02235174447
$SILENCE,17530.450824552874,-14741.802482819854,-21746.16864277943,-7527.173462769207,-187500.02235174447,-187500.02235174447,-187500.02235174447,-187500.02235174447
$SILENCE,17629.223183300877,-14692.136906640162,-21449.47158687968,-7467.337842862349,-187500.02235174447,-187500.02235174447,-187500.02235174447,-187500.02235174447
$SILENCE,17693.59620733216,-14670.031031373863,-21183.172903439154,-7476.345595877839,-187500.02235174447,-187500.02235174447,-187500.02235174447,-187500.02235174447
$SILENCE,17573.924967518447,-14742.115407242229,-21486.419020464306,-7571.318158068438,-187500.02235174447,-187500.02235174447,-187500.02235174447,-187500.02235174447
$SILENCE,17527.65685649596,-14748.038619522886,-21743.799357867167,-7565.663166721245,-187500.02235174447,-187500.02235174447,-187500.02235174447,-187500.02235174447
$SILENCE,17612.906409848503,-14688.67238624959,-21524.908724416342,-7509.91791604971,-187500.02235174447,-187500.02235174447,-187500.02235174447,-187500.02235174447
$SILENCE,17690.06463170822,-14676.021298887885,-21217.929866067156,-7502.899468290743,-187500.02235174447,-187500.02235174447,-187500.02235174447,-187500.02235174447
$SILENCE,17586.643110113517,-14756.420523693625,-21438.273362907574,-7581.465850051147,-187500.02235174447,-187500.02235174447,-187500.02235174447,-187500.02235174447
$SILENCE,17520.95133315937,-14774.413677980147,-21756.182224295408,-7552.430934003703,-187500.02235174447,-187500.02235174447,-187500.02235174447,-187500.02235174447
$SILENCE,17600.68000563145,-14678.234121588961,-21582.665632088858,-7457.301909601916,-187500.02235174447,-187500.02235174447,-187500.02235174447,-187500.02235174447
$SILENCE,17680.565140314717,-14639.744417636923,-21247.43416874816,-7459.760601492,-187500.02235174447,-187500.02235174447,-187500.02235174447,-187500.02235174447
$SILENCE,17628.262058289296,-14700.00472068843,-21343.636076883802,-7549.033468846496,-187500.02235174447,-187500.02235174447,-187500.02235174447,-187500.02235174447
$SILENCE,17535.70348449987,-14758.052201038863,-21713.44568889686,-7572.860428435854,-187500.02235174447,-187500.02235174447,-187500.02235174447,-187500.02235174447
$SILENCE,17578.931758276434,-14731.744197814965,-21638.209717060294,-7499.859631044821,-187500.02235174447,-187500.02235174447,-187500.02235174447,-187500.02235174447
$SILENCE,17676.83239899068,-14668.37700228417,-21271.01525914851,-7419.996848106009,-187500.02235174447,-187500.02235174447,-187500.02235174447,-187500.02235174447
$SILENCE,17651.977259156378,-14699.356520099225,-21268.78008470298,-7484.995720982042,-187500.02235174447,-187500.02235174447,-187500.02235174447,-187500.02235174447
$SILENCE,17535.61407752205,-14759.795637106376,-21697.218322422304,-7607.50563234158,-187500.02235174447,-187500.02235174447,-187500.02235174447,-187500.02235174447
$SILENCE,17554.94833647589,-14724.68104656709,-21709.936465017374,-7564.880855665309,-187500.02235174447,-187500.02235174447,-187500.02235174447,-187500.02235174447
$SILENCE,17653.16190161251,-14665.873606905176,-21358.499986946583,-7494.7857850534665,-187500.02235174447,-187500.02235174447,-187500.02235174447,-187500.02235174447
$SILENCE,17657.006401658822,-14687.688909493556,-21250.1163780828,-7517.428102186693,-187500.02235174447,-187500.02235174447,-187500.02235174447,-187500.02235174447
$SILENCE,17546.588784049607,-14766.903491843164,-21630.476013478758,-7585.7126814976555,-187500.02235174447,-187500.02235174447,-187500.02235174447,-187500.02235174447
$SILENCE,17562.167949934956,-14745.19994797706,-21716.194953464863,-7523.753645867544,-187500.02235174447,-187500.02235174447,-187500.02235174447,-187500.02235174447
$SILENCE,17662.92961393948,-14685.632549003667,-21385.299728548496,-7439.532272759948,-187500.02235174447,-187500.02235174447,-187500.02235174447,-187500.02235174447
$SILENCE,17681.481561837383,-14663.325508037271,-21196.29337743442,-7476.4126511112045,-187500.02235174447,-187500.02235174447,-187500.02235174447,-187500.02235174447
$SILENCE,17562.43617086842,-14737.712113584534,-21554.256564886164,-7572.703966224667,-187500.02235174447,-187500.02235174447,-187500.02235174447,-187500.02235174447
$SILENCE,17543.370132848042,-14751.972526547019,-21748.9849625808,-7539.10929430834,-187500.02235174447,-187500.02235174447,-187500.02235174447,-187500.02235174447
$SILENCE,17642.455416018416,-14684.00087165843,-21474.237319736163,-7457.704241002112,-187500.02235174447,-187500.02235174447,-187500.02235174447,-187500.02235174447
$SILENCE,17692.590378831672,-14658.989269612941,-21213.638331131737,-7481.218276169095,-187500.02235174447,-187500.02235174447,-187500.02235174447,-187500.02235174447
$SILENCE,17574.215540196365,-14747.278660211405,-21504.903913128845,-7595.994483947097,-187500.02235174447,-187500.02235174447,-187500.02235174447,-187500.02235174447
$SILENCE,17527.56744951814,-14754.095942270273,-21764.83234939961,-7576.21319010415,-187500.02235174447,-187500.02235174447,-187500.02235174447,-187500.02235174447
$SILENCE,17625.266924532287,-14701.010549188919,-21535.615210010437,-7487.700282061134,-187500.02235174447,-187500.02235174447,-187500.02235174447,-187500.02235174447
$SILENCE,17704.369748159617,-14667.304118550315,-21209.078575262854,-7452.608043266302,-187500.02235174447,-187500.02235174447,-187500.02235174447,-187500.02235174447
$SILENCE,17618.33788375114,-14717.05910170783,-21397.637891487826,-7547.222977545617,-187500.02235174447,-187500.02235174447,-187500.02235174447,-187500.02235174447
$SILENCE,17535.636429266506,-14759.035677794896,-21746.615677668535,-7571.541675512991,-187500.02235174447,-187500.02235174447,-187500.02235174447,-187500.02235174447
$SILENCE,17594.421517183964,-14702.262246878416,-21602.335167209527,-7514.298857962949,-187500.02235174447,-187500.02235174447,-187500.02235174447,-187500.02235174447
$SILENCE,17677.279433879787,-14648.573356696768,-21260.174663087688,-7521.7866923554775,-187500.02235174447,-187500.02235174447,-187500.02235174447,-187500.02235174447
$SILENCE,17628.39616875603,-14713.393415617158,-21344.597201895383,-7583.410451818759,-187500.02235174447,-187500.02235174447,-187500.02235174447,-187500.02235174447
$SILENCE,17531.769577475738,-14776.268872769937,-21726.521459403215,-7587.813745476455,-187500.02235174447,-187500.02235174447,-187500.02235174447,-187500.02235174447
$SILENCE,17590.979348537847,-14728.078511724296,-21644.13292934095,-7471.42821209767,-187500.02235174447,-187500.02235174447,-187500.02235174447,-187500.02235174447
$SILENCE,17694.467925365916,-14666.164179583095,-21279.598329019347,-7438.146464603718,-187500.02235174447,-187500.02235174447,-187500.02235174447,-187500.02235174447
$SILENCE,17656.916994681,-14697.590732287257,-21261.851043921833,-7541.232710031594,-187500.02235174447,-187500.02235174447,-187500.02235174447,-187500.02235174447
$SILENCE,17529.824975708125,-14760.980279562507,-21686.400078105937,-7631.13142623084,-187500.02235174447,-187500.02235174447,-187500.02235174447,-187500.02235174447
$SILENCE,17549.695676528892,-14730.380741403193,-21733.875183329008,-7570.8040679459655,-187500.02235174447,-187500.02235174447,-187500.02235174447,-187500.02235174447
$SILENCE,17633.53706998075,-14682.726822224478,-21392.98872864112,-7513.740064351567,-187500.02235174447,-187500.02235174447,-187500.02235174447,-187500.02235174447
$SILENCE,17669.25515762033,-14684.29144433635,-21231.139747040244,-7513.382436440282,-187500.02235174447,-187500.02235174447,-187500.02235174447,-187500.02235174447
$SILENCE,17558.77048477775,-14756.934613816096,-21606.55964691158,-7566.423126032726,-187500.02235174447,-187500.02235174447,-187500.02235174447,-187500.02235174447
$SILENCE,17544.08538867061,-14748.753875345456,-21727.68375011489,-7525.988820313075,-187500.02235174447,-187500.02235174447,-187500.02235174447,-187500.02235174447
$SILENCE,17641.471939262385,-14663.929005137565,-21421.263685377085,-7466.980214951064,-187500.02235174447,-187500.02235174447,-187500.02235174447,-187500.02235174447
$SILENCE,17702.559256858738,-14669.271072062384,-21189.587854097826,-7475.518581332992,-187500.02235174447,-187500.02235174447,-187500.02235174447,-187500.02235174447
$SILENCE,17570.639261083517,-14756.152302760162,-21547.618096782935,-7637.8369495674315,-187500.02235174447,-187500.02235174447,-187500.02235174447,-187500.02235174447
$SILENCE,17521.84540293758,-14761.516721429434,-21771.82844541412,-7631.421998908759,-187500.02235174447,-187500.02235174447,-187500.02235174447,-187500.02235174447
$SILENCE,17636.509851993305,-14691.376947328681,-21476.87482558189,-7475.585636566358,-187500.02235174447,-187500.02235174447,-187500.02235174447,-187500.02235174447
$SILENCE,17692.590378831672,-14660.643298702635,-21204.407060671696,-7477.843162756344,-187500.02235174447,-187500.02235174447,-187500.02235174447,-187500.02235174447
$SILENCE,17585.65963335748,-14725.776282045399,-21473.231491235674,-7567.1607335997505,-187500.02235174447,-187500.02235174447,-187500.02235174447,-187500.02235174447
$SILENCE,17531.724873986826,-14751.637250380189,-21748.001485824763,-7549.055820590952,-187500.02235174447,-187500.02235174447,-187500.02235174447,-187500.02235174447
$SILENCE,17612.660540659494,-14717.752005785944,-21546.969896193732,-7504.464090402615,-187500.02235174447,-187500.02235174447,-187500.02235174447,-187500.02235174447
$SILENCE,17693.238579420875,-14683.129153624674,-21236.034779075955,-7509.940267794164,-187500.02235174447,-187500.02235174447,-187500.02235174447,-187500.02235174447
$SILENCE,17613.733424393347,-14718.087281952774,-21398.53196126604,-7560.566968985435,-187500.02235174447,-187500.02235174447,-187500.02235174447,-187500.02235174447
$SILENCE,17514.424623778417,-14771.82087562333,-21750.147253292474,-7604.957533473675,-187500.02235174447,-187500.02235174447,-187500.02235174447,-187500.02235174447
$SILENCE,17571.890958773012,-14711.269999893904,-21622.51879245267,-7551.626271203312,-187500.02235174447,-187500.02235174447,-187500.02235174447,-187500.02235174447
$SILENCE,17683.895550238558,-14629.529670420847,-21255.05611360742,-7479.474840101581,-187500.02235174447,-187500.02235174447,-187500.02235174447,-187500.02235174447
$SILENCE,17640.622572973083,-14697.076642164784,-21314.332939902895,-7548.832303146399,-187500.02235174447,-187500.02235174447,-187500.02235174447,-187500.02235174447
$SILENCE,17534.42943506592,-14749.335020701292,-21710.741127817768,-7618.189766191217,-187500.02235174447,-187500.02235174447,-187500.02235174447,-187500.02235174447
$SILENCE,17574.39435415201,-14721.998837232451,-21654.750007957224,-7530.637983159779,-187500.02235174447,-187500.02235174447,-187500.02235174447,-187500.02235174447
$SILENCE,17673.524340811295,-14667.99702262843,-21312.07541371291,-7470.154162663718,-187500.02235174447,-187500.02235174447,-187500.02235174447,-187500.02235174447
$SILENCE,17660.090942393654,-14703.446889334547,-21264.73441895657,-7524.87123309031,-187500.02235174447,-187500.02235174447,-187500.02235174447,-187500.02235174447
$SILENCE,17536.597554278083,-14772.759648890455,-21663.48954003925,-7616.803958034988,-187500.02235174447,-187500.02235174447,-187500.02235174447,-187500.02235174447
$SILENCE,17549.89684222899,-14726.312723912326,-21704.661453325924,-7587.992559432097,-187500.02235174447,-187500.02235174447,-187500.02235174447,-187500.02235174447
$SILENCE,17648.53509051026,-14660.866816147187,-21380.8964348908,-7512.421311428704,-187500.02235174447,-187500.02235174447,-187500.02235174447,-187500.02235174447
$SILENCE,17672.429105332983,-14668.689926706546,-21224.233058003552,-7520.445587688159,-187500.02235174447,-187500.02235174447,-187500.02235174447,-187500.02235174447
$SILENCE,17545.627659038026,-14753.335982958793,-21609.24185624622,-7600.241315393605,-187500.02235174447,-187500.02235174447,-187500.02235174447,-187500.02235174447
$SILENCE,17536.418740322442,-14740.215508963527,-21724.465098913326,-7563.11506785334,-187500.02235174447,-187500.02235174447,-187500.02235174447,-187500.02235174447
$SILENCE,17646.92576490948,-14680.558703012313,-21407.450307303705,-7491.164802451707,-187500.02235174447,-187500.02235174447,-187500.02235174447,-187500.02235174447
$SILENCE,17688.701175296446,-14665.7618481829,-21182.23413017203,-7498.473822888592,-187500.02235174447,-187500.02235174447,-187500.02235174447,-187500.02235174447
$SILENCE,17560.58097607863,-14749.424427679114,-21534.36351232094,-7622.41424589327,-187500.02235174447,-187500.02235174447,-187500.02235174447,-187500.02235174447
$SILENCE,17513.575257489116,-14754.230052737004,-21770.21911981334,-7637.613432122878,-187500.02235174447,-187500.02235174447,-187500.02235174447,-187500.02235174447
$SILENCE,17608.39135746853,-14677.250644832928,-21499.517142715114,-7522.569003411413,-187500.02235174447,-187500.02235174447,-187500.02235174447,-187500.02235174447
$SILENCE,17674.708983267425,-14649.378019497159,-21204.228246716055,-7499.9490380226425,-187500.02235174447,-187500.02235174447,-187500.02235174447,-187500.02235174447
$SILENCE,17591.18051423794,-14716.05327320734,-21445.358865899907,-7581.868181451343,-187500.02235174447,-187500.02235174447,-187500.02235174447,-187500.02235174447
$SILENCE,17530.830804208614,-14750.787884090887,-21736.378578708005,-7566.311367310449,-187500.02235174447,-187500.02235174447,-187500.02235174447,-187500.02235174447
$SILENCE,17614.82865987166,-14697.702491009533,-21537.671570500323,-7504.665256102712,-187500.02235174447,-187500.02235174447,-187500.02235174447,-187500.02235174447
$SILENCE,17695.049070721754,-14669.315775551293,-21210.397328185718,-7505.91695379221,-187500.02235174447,-187500.02235174447,-187500.02235174447,-187500.02235174447
$SILENCE,17607.340825479132,-14734.58286936079,-21381.008193613077,-7596.55327755848,-187500.02235174447,-187500.02235174447,-187500.02235174447,-187500.02235174447
$SILENCE,17510.825992921113,-14793.256198555971,-21748.11324454704,-7639.155702490295,-187500.02235174447,-187500.02235174447,-187500.02235174447,-187500.02235174447
$SILENCE,17586.03961301322,-14715.650941807146,-21608.101917278997,-7524.290087734472,-187500.02235174447,-187500.02235174447,-187500.02235174447,-187500.02235174447
$SILENCE,17678.017041446812,-14649.154502052606,-21251.502186239028,-7478.826639512377,-187500.02235174447,-187500.02235174447,-187500.02235174447,-187500.02235174447
$SILENCE,17626.049235588223,-14695.534371797368,-21307.31449214393,-7575.587341259402,-187500.02235174447,-187500.02235174447,-187500.02235174447,-187500.02235174447
$SILENCE,17515.452804023364,-14767.931672088109,-21723.593380879567,-7626.392856406314,-187500.02235174447,-187500.02235174447,-187500.02235174447,-187500.02235174447
$SILENCE,17557.2952696437,-14714.958037729031,-21688.612900807013,-7569.395908045281,-187500.02235174447,-187500.02235174447,-187500.02235174447,-187500.02235174447
$SILENCE,17656.268794091797,-14670.701583707523,-21316.12107945932,-7527.44168370267,-187500.02235174447,-187500.02235174447,-187500.02235174447,-187500.02235174447
$SILENCE,17621.757700652804,-14699.267113121405,-21291.46710532512,-7575.363823814849,-187500.02235174447,-187500.02235174447,-187500.02235174447,-187500.02235174447
$SILENCE,17536.37403683353,-14757.940442316585,-21630.76658615668,-7598.721396770644,-187500.02235174447,-187500.02235174447,-187500.02235174447,-187500.02235174447
$SILENCE,17569.700487816393,-14739.433197907592,-21677.615842535,-7532.694343649668,-187500.02235174447,-187500.02235174447,-187500.02235174447,-187500.02235174447
$SILENCE,17664.60599477363,-14675.037822131851,-21354.74489387809,-7491.611837340813,-187500.02235174447,-187500.02235174447,-187500.02235174447,-187500.02235174447
$SILENCE,17660.560329027216,-14695.959054942019,-21226.758805127003,-7536.471788462614,-187500.02235174447,-187500.02235174447,-187500.02235174447,-187500.02235174447
$SILENCE,17534.317676343642,-14753.91712831463,-21604.682100377333,-7624.403551149792,-187500.02235174447,-187500.02235174447,-187500.02235174447,-187500.02235174447
$SILENCE,17542.409007836464,-14735.25342169445,-21734.433976940392,-7607.706798041678,-187500.02235174447,-187500.02235174447,-187500.02235174447,-187500.02235174447
$SILENCE,17659.06276214871,-14690.438174061559,-21416.703929508203,-7521.160843510729,-187500.02235174447,-187500.02235174447,-187500.02235174447,-187500.02235174447
$SILENCE,17684.387288616574,-14679.754040211921,-21200.093173991823,-7521.116140021818,-187500.02235174447,-187500.02235174447,-187500.02235174447,-187500.02235174447
$SILENCE,17563.86668251356,-14752.82189283632,-21511.78825042108,-7580.16944887274,-187500.02235174447,-187500.02235174447,-187500.02235174447,-187500.02235174447
$SILENCE,17512.345911544075,-14762.701363885566,-21756.40574173996,-7585.600922775379,-187500.02235174447,-187500.02235174447,-187500.02235174447,-187500.02235174447
$SILENCE,17596.00849104029,-14718.556668586334,-21520.550134247558,-7534.68364890619,-187500.02235174447,-187500.02235174447,-187500.02235174447,-187500.02235174447
$SILENCE,17690.198742174955,-14664.465447004492,-21195.28754893393,-7495.657503087224,-187500.02235174447,-187500.02235174447,-187500.02235174447,-187500.02235174447
$SILENCE,17577.702412331393,-14717.930819741587,-21449.203365946218,-7602.632952050323,-187500.02235174447,-187500.02235174447,-187500.02235174447,-187500.02235174447
$SILENCE,17507.74145218628,-14749.178558490106,-21749.11907304753,-7636.294679200016,-187500.02235174447,-187500.02235174447,-187500.02235174447,-187500.02235174447
$SILENCE,17596.187304995932,-14723.29523841086,-21563.55489057957,-7549.882835135799,-187500.02235174447,-187500.02235174447,-187500.02235174447,-187500.02235174447
talvez,17678.30761412473,-14672.445019775036,-21225.39534871523,-7488.43788962816,-187500.02235174447,-187500.02235174447,-187500.02235174447,-187500.02235174447
talvez,17611.252380758808,-14734.694628083067,-21361.9421555927,-7566.601939988368,-187500.02235174447,-187500.02235174447,-187500.02235174447,-187500.02235174447
talvez,17511.675359210418,-14766.098829042772,-21734.925715318408,-7600.330722371426,-187500.02235174447,-187500.02235174447,-187500.02235174447,-187500.02235174447
talvez,17566.638298826016,-14710.510040582425,-21625.6033331875,-7529.296878492461,-187500.02235174447,-187500.02235174447,-187500.02235174447,-187500.02235174447
talvez,17667.668183764003,-14656.530577722859,-21255.950183385634,-7487.8567442723215,-187500.02235174447,-187500.02235174447,-187500.02235174447,-187500.02235174447
talvez,17639.72850319487,-14710.286523137871,-21283.44282906566,-7549.234634546595,-187500.02235174447,-187500.02235174447,-187500.02235174447,-187500.02235174447
talvez,17515.788080190192,-14785.366032763248,-21696.59247357756,-7618.525042358046,-187500.02235174447,-187500.02235174447,-187500.02235174447,-187500.02235174447
talvez,17536.821071722636,-14746.496349155468,-21696.190142177362,-7561.97512888612,-187500.02235174447,-187500.02235174447,-187500.02235174447,-187500.02235174447
talvez,17644.601183486127,-14685.341976325748,-21336.63998086929,-7500.798404311944,-187500.02235174447,-187500.02235174447,-187500.02235174447,-187500.02235174447
talvez,17651.507872522816,-14715.695645296055,-21245.914250125203,-7560.678727707712,-187500.02235174447,-187500.02235174447,-187500.02235174447,-187500.02235174447
talvez,17533.46831005434,-14765.048297053374,-21637.717978682278,-7606.946838730198,-187500.02235174447,-187500.02235174447,-187500.02235174447,-187500.02235174447
talvez,17535.99405717779,-14728.257325679939,-21708.282435927682,-7549.63696594679,-187500.02235174447,-187500.02235174447,-187500.02235174447,-187500.02235174447
talvez,17637.470977004883,-14663.124342337172,-21384.785638426023,-7523.507776678536,-187500.02235174447,-187500.02235174447,-187500.02235174447,-187500.02235174447
talvez,17665.321250596196,-14661.85029290322,-21210.48673516354,-7537.231747774094,-187500.02235174447,-187500.02235174447,-187500.02235174447,-187500.02235174447
talvez,17549.986249206813,-14764.802427864364,-21571.266242416652,-7606.432748607725,-187500.02235174447,-187500.02235174447,-187500.02235174447,-187500.02235174447
talvez,17516.771556946227,-14764.891834842187,-21742.34649447757,-7576.324948826426,-187500.02235174447,-187500.02235174447,-187500.02235174447,-187500.02235174447
talvez,17606.58086616765,-14709.705377782033,-21452.556127614516,-7481.598255824835,-187500.02235174447,-187500.02235174447,-187500.02235174447,-187500.02235174447
talvez,17666.103561652133,-14669.740458695944,-21189.274929675452,-7489.935456506665,-187500.02235174447,-187500.02235174447,-187500.02235174447,-187500.02235174447
talvez,17543.32542935913,-14743.635325865189,-21521.89123891488,-7610.8360422654205,-187500.02235174447,-187500.02235174447,-187500.02235174447,-187500.02235174447
talvez,17499.538361971183,-14776.15711404766,-21765.435846499902,-7601.828289249932,-187500.02235174447,-187500.02235174447,-187500.02235174447,-187500.02235174447
talvez,17597.304892218697,-14702.686930023066,-21503.58516020598,-7521.63023014429,-187500.02235174447,-187500.02235174447,-187500.02235174447,-187500.02235174447
talvez,17685.102544439145,-14670.321604051782,-21195.555769867395,-7508.889735804765,-187500.02235174447,-187500.02235174447,-187500.02235174447,-187500.02235174447
talvez,17585.25730195729,-14746.026962521908,-21424.795261001025,-7581.8905331957985,-187500.02235174447,-187500.02235174447,-187500.02235174447,-187500.02235174447
talvez,17513.2846848112,-14770.6362331672,-21735.082177529595,-7578.515419783047,-187500.02235174447,-187500.02235174447,-187500.02235174447,-187500.02235174447
talvez,17580.33991817712,-14728.212622191028,-21584.766696067658,-7549.100524079862,-187500.02235174447,-187500.02235174447,-187500.02235174447,-187500.02235174447
talvez,17658.88394819307,-14677.921197166586,-21234.87248836428,-7532.582584927391,-187500.02235174447,-187500.02235174447,-187500.02235174447,-187500.02235174447
talvez,17603.026938799256,-14725.686875067579,-21331.52143138903,-7577.174315115728,-187500.02235174447,-187500.02235174447,-187500.02235174447,-187500.02235174447
talvez,17511.071862110122,-14770.770343633932,-21713.91507553042,-7588.260780365561,-187500.02235174447,-187500.02235174447,-187500.02235174447,-187500.02235174447
talvez,17569.365211649565,-14719.651904064645,-21611.678196391847,-7519.238593487572,-187500.02235174447,-187500.02235174447,-187500.02235174447,-187500.02235174447
talvez,17642.477767762874,-14692.338072340259,-21289.813076235423,-7520.043256287963,-187500.02235174447,-187500.02235174447,-187500.02235174447,-187500.02235174447
talvez,17626.58567745515,-14699.647092777144,-21299.714899029124,-7591.792355989499,-187500.02235174447,-187500.02235174447,-187500.02235174447,-187500.02235174447
talvez,17527.433339051408,-14757.783980105398,-21676.900586712432,-7595.614504291357,-187500.02235174447,-187500.02235174447,-187500.02235174447,-187500.02235174447
talvez,17563.978441235835,-14750.184386990595,-21653.47595852327,-7545.367782755827,-187500.02235174447,-187500.02235174447,-187500.02235174447,-187500.02235174447
talvez,17651.977259156378,-14680.782220456866,-21309.862591011835,-7499.122023477796,-187500.02235174447,-187500.02235174447,-187500.02235174447,-187500.02235174447
talvez,17631.05602634621,-14702.552819556335,-21244.237869291053,-7549.748724669066,-187500.02235174447,-187500.02235174447,-187500.02235174447,-187500.02235174447
talvez,17510.51306849874,-14763.103695285761,-21656.962830658296,-7641.837911824931,-187500.02235174447,-187500.02235174447,-187500.02235174447,-187500.02235174447
talvez,17526.740434973293,-14737.19802346206,-21715.39029066447,-7556.744820683578,-187500.02235174447,-187500.02235174447,-187500.02235174447,-187500.02235174447
talvez,17630.58663971265,-14680.692813479045,-21377.007231355576,-7486.739157049556,-187500.02235174447,-187500.02235174447,-187500.02235174447,-187500.02235174447
talvez,17659.934480182466,-14677.407107044115,-21189.319633164363,-7536.829416373899,-187500.02235174447,-187500.02235174447,-187500.02235174447,-187500.02235174447
talvez,17527.70155998487,-14771.977337834518,-21572.69675406179,-7649.437504939736,-187500.02235174447,-187500.02235174447,-187500.02235174447,-187500.02235174447
talvez,17493.771611901717,-14763.573081919323,-21760.004372597265,-7608.243239908606,-187500.02235174447,-187500.02235174447,-187500.02235174447,-187500.02235174447
talvez,17615.07452906067,-14671.059211618807,-21441.737883298145,-7513.896526562754,-187500.02235174447,-187500.02235174447,-187500.02235174447,-187500.02235174447
talvez,17650.34558181114,-14665.001888871418,-21206.57517988386,-7515.215279485617,-187500.02235174447,-187500.02235174447,-187500.02235174447,-187500.02235174447
talvez,17524.728777972316,-14756.420523693625,-21534.855250698954,-7622.07896972644,-187500.02235174447,-187500.02235174447,-187500.02235174447,-187500.02235174447
talvez,17497.12437357001,-14772.402020979169,-21764.139445321496,-7603.817594506454,-187500.02235174447,-187500.02235174447,-187500.02235174447,-187500.02235174447
talvez,17620.99774134132,-14669.025202873374,-21491.358755988927,-7503.480613646581,-187500.02235174447,-187500.02235174447,-187500.02235174447,-187500.02235174447
talvez,17688.79058227427,-14634.379998967648,-21179.775438281948,-7512.711884106623,-187500.02235174447,-187500.02235174447,-187500.02235174447,-187500.02235174447
talvez,17587.984214780834,-14731.095997225762,-21404.72339448016,-7614.054693466985,-187500.02235174447,-187500.02235174447,-187500.02235174447,-187500.02235174447
talvez,17498.063146837136,-14785.522494974435,-21739.44076769838,-7608.176184675239,-187500.02235174447,-187500.02235174447,-187500.02235174447,-187500.02235174447
talvez,17554.61306030906,-14717.684950552577,-21583.827922800534,-7540.49510246457,-187500.02235174447,-187500.02235174447,-187500.02235174447,-187500.02235174447
talvez,17658.906299937524,-14638.582126925246,-21236.325351753876,-7513.605953884835,-187500.02235174447,-187500.02235174447,-187500.02235174447,-187500.02235174447
talvez,17617.041482572735,-14699.155354399129,-21335.79061457999,-7589.557181543968,-187500.02235174447,-187500.02235174447,-187500.02235174447,-187500.02235174447
talvez,17504.299283540164,-14771.35148898977,-21722.20757272334,-7616.960420246175,-187500.02235174447,-187500.02235174447,-187500.02235174447,-187500.02235174447
talvez,17559.485740600318,-14712.76756677241,-21627.592638444024,-7540.428047231204,-187500.02235174447,-187500.02235174447,-187500.02235174447,-187500.02235174447
talvez,17653.653639990527,-14657.558757967801,-21267.953070158135,-7489.041386728452,-187500.02235174447,-187500.02235174447,-187500.02235174447,-187500.02235174447
talvez,17626.76449141079,-14697.255456120427,-21274.63624175027,-7550.531035725002,-187500.02235174447,-187500.02235174447,-187500.02235174447,-187500.02235174447
talvez,17520.057263381157,-14769.384535477702,-21678.509912313213,-7608.623219564345,-187500.02235174447,-187500.02235174447,-187500.02235174447,-187500.02235174447
talvez,17542.610173536563,-14727.385607646182,-21677.302918112626,-7561.8186666749325,-187500.02235174447,-187500.02235174447,-187500.02235174447,-187500.02235174447
talvez,17638.00741887181,-14671.394487785637,-21334.85184131287,-7503.570020624402,-187500.02235174447,-187500.02235174447,-187500.02235174447,-187500.02235174447
talvez,17636.934535137956,-14683.889112936153,-21245.489566980552,-7559.807009673955,-187500.02235174447,-187500.02235174447,-187500.02235174447,-187500.02235174447
talvez,17520.549001759173,-14747.546881144868,-21631.034807090142,-7634.238318710127,-187500.02235174447,-187500.02235174447,-187500.02235174447,-187500.02235174447
talvez,17525.287571583696,-14742.026000264408,-21718.653645354945,-7584.1257076413285,-187500.02235174447,-187500.02235174447,-187500.02235174447,-187500.02235174447
talvez,17618.002607584312,-14679.441115789548,-21398.308443821483,-7510.454357916637,-187500.02235174447,-187500.02235174447,-187500.02235174447,-187500.02235174447
talvez,17656.268794091797,-14666.56651098329,-21201.747203081515,-7519.6185731433125,-187500.02235174447,-187500.02235174447,-187500.02235174447,-187500.02235174447
talvez,17534.72000774384,-14754.095942270273,-21563.890166746398,-7608.466757353158,-187500.02235174447,-187500.02235174447,-187500.02235174447,-187500.02235174447
talvez,17510.110737098545,-14758.655698139155,-21750.929564348407,-7579.633007005812,-187500.02235174447,-187500.02235174447,-187500.02235174447,-187500.02235174447
talvez,17604.904485333504,-14696.070813664295,-21471.8680348239,-7510.34259919436,-187500.02235174447,-187500.02235174447,-187500.02235174447,-187500.02235174447
talvez,17660.783846471768,-14652.775484654367,-21201.523685636963,-7517.24928823105,-187500.02235174447,-187500.02235174447,-187500.02235174447,-187500.02235174447
talvez,17527.94742917388,-14733.91231702713,-21503.74162241717,-7615.328742900938,-187500.02235174447,-187500.02235174447,-187500.02235174447,-187500.02235174447
talvez,17473.498579680752,-14756.532282415901,-21779.15981759546,-7607.729149786133,-187500.02235174447,-187500.02235174447,-187500.02235174447,-187500.02235174447
talvez,17567.487665115317,-14685.967825170497,-21542.36543683594,-7529.699209892656,-187500.02235174447,-187500.02235174447,-187500.02235174447,-187500.02235174447
talvez,17645.942288153445,-14660.084505091252,-21230.044511561933,-7514.522375407502,-187500.02235174447,-187500.02235174447,-187500.02235174447,-187500.02235174447
talvez,17560.983307478822,-14720.031883720385,-21428.751519769612,-7580.504725039569,-187500.02235174447,-187500.02235174447,-187500.02235174447,-187500.02235174447
talvez,17469.654079634438,-14756.241709737982,-21773.08014310362,-7594.385158346315,-187500.02235174447,-187500.02235174447,-187500.02235174447,-187500.02235174447
talvez,17557.42938011043,-14706.15145041364,-21597.730707851733,-7509.739102094067,-187500.02235174447,-187500.02235174447,-187500.02235174447,-187500.02235174447
talvez,17648.892718421546,-14654.116589321684,-21252.0162763615,-7478.491363345548,-187500.02235174447,-187500.02235174447,-187500.02235174447,-187500.02235174447
talvez,17570.773371550247,-14709.86183999322,-21341.31149546045,-7562.69038470869,-187500.02235174447,-187500.02235174447,-187500.02235174447,-187500.02235174447
talvez,17464.334364454076,-14767.551692432367,-21740.424244454414,-7605.113995684862,-187500.02235174447,-187500.02235174447,-187500.02235174447,-187500.02235174447
talvez,17506.84738240807,-14722.28940991037,-21704.52734285919,-7549.279338035505,-187500.02235174447,-187500.02235174447,-187500.02235174447,-187500.02235174447
talvez,17604.748023122316,-14662.207920814506,-21339.903335559768,-7485.867439015799,-187500.02235174447,-187500.02235174447,-187500.02235174447,-187500.02235174447
talvez,17588.922988047958,-14689.320586838794,-21306.800402021458,-7523.865404589821,-187500.02235174447,-187500.02235174447,-187500.02235174447,-187500.02235174447
talvez,17462.143893497454,-14786.6400821972,-21721.87229655651,-7603.772891017544,-187500.02235174447,-187500.02235174447,-187500.02235174447,-187500.02235174447
talvez,17507.89791439747,-14751.950174802563,-21702.023947480197,-7518.992724298564,-187500.02235174447,-187500.02235174447,-187500.02235174447,-187500.02235174447
talvez,17633.313552536198,-14668.064077861796,-21337.04231226949,-7435.978345391553,-187500.02235174447,-187500.02235174447,-187500.02235174447,-187500.02235174447
talvez,17613.15227903751,-14694.327377596783,-21292.674099525702,-7508.15212823774,-187500.02235174447,-187500.02235174447,-187500.02235174447,-187500.02235174447
talvez,17507.205010319354,-14757.53811091639,-21677.459380323813,-7581.018815162041,-187500.02235174447,-187500.02235174447,-187500.02235174447,-187500.02235174447
talvez,17502.354681772555,-14762.321384229826,-21759.89261387499,-7551.44745724767,-187500.02235174447,-187500.02235174447,-187500.02235174447,-187500.02235174447
talvez,17606.334996978643,-14704.922104468598,-21434.786490772545,-7473.95395922112,-187500.02235174447,-187500.02235174447,-187500.02235174447,-187500.02235174447
talvez,17650.524395766784,-14683.062098391307,-21249.35641877132,-7471.651729542224,-187500.02235174447,-187500.02235174447,-187500.02235174447,-187500.02235174447
talvez,17546.052342182677,-14761.606128407257,-21581.302175677083,-7553.570872970924,-187500.02235174447,-187500.02235174447,-187500.02235174447,-187500.02235174447
talvez,17518.760862202747,-14768.602224421767,-21766.26286104475,-7528.492215692069,-187500.02235174447,-187500.02235174447,-187500.02235174447,-187500.02235174447
talvez,17625.87042163258,-14699.20005788804,-21495.270311268607,-7442.549758261413,-187500.02235174447,-187500.02235174447,-187500.02235174447,-187500.02235174447
talvez,17697.396003889564,-14676.28951982135,-21220.232095746054,-7429.094008099319,-187500.02235174447,-187500.02235174447,-187500.02235174447,-187500.02235174447
talvez,17603.33986322163,-14750.229090479505,-21472.315069713008,-7505.626381114291,-187500.02235174447,-187500.02235174447,-187500.02235174447,-187500.02235174447
talvez,17543.66070552596,-14773.720773902032,-21750.43782597039,-7506.319285192405,-187500.02235174447,-187500.02235174447,-187500.02235174447,-187500.02235174447
talvez,17602.065813787678,-14721.440043621069,-21555.21768989774,-7447.668307741679,-187500.02235174447,-187500.02235174447,-187500.02235174447,-187500.02235174447
talvez,17681.63802404857,-14679.307005322815,-21228.613999916794,-7417.582859704836,-187500.02235174447,-187500.02235174447,-187500.02235174447,-187500.02235174447
talvez,17606.24559000082,-14738.829700807299,-21409.774888727057,-7507.883907304276,-187500.02235174447,-187500.02235174447,-187500.02235174447,-187500.02235174447
talvez,17534.764711232747,-14780.001614093973,-21754.885823116998,-7539.288108263983,-187500.02235174447,-187500.02235174447,-187500.02235174447,-187500.02235174447
talvez,17598.780107352748,-14712.186421416573,-21607.52077192316,-7454.731458989556,-187500.02235174447,-187500.02235174447,-187500.02235174447,-187500.02235174447
talvez,17706.716681327427,-14657.37994401216,-21235.028950575466,-7403.121281042252,-187500.02235174447,-187500.02235174447,-187500.02235174447,-187500.02235174447
talvez,17664.60599477363,-14708.408976603625,-21303.02295720851,-7457.19015087964,-187500.02235174447,-187500.02235174447,-187500.02235174447,-187500.02235174447
talvez,17553.540176575207,-14766.50116044297,-21698.58177883408,-7501.379549667782,-187500.02235174447,-187500.02235174447,-187500.02235174447,-187500.02235174447
talvez,17592.76748809427,-14723.071720966307,-21639.260249049694,-7455.33495608985,-187500.02235174447,-187500.02235174447,-187500.02235174447,-187500.02235174447
talvez,17702.335739414186,-14663.28080454836,-21270.232948092576,-7395.812260605367,-187500.02235174447,-187500.02235174447,-187500.02235174447,-187500.02235174447
talvez,17674.329003611685,-14697.657787520622,-21240.907459367212,-7445.723705974067,-187500.02235174447,-187500.02235174447,-187500.02235174447,-187500.02235174447
talvez,17562.01148772377,-14770.122143044728,-21639.99785661672,-7507.995666026553,-187500.02235174447,-187500.02235174447,-187500.02235174447,-187500.02235174447
talvez,17586.263130457777,-14763.796599363875,-21677.638194279458,-7467.226084140073,-187500.02235174447,-187500.02235174447,-187500.02235174447,-187500.02235174447
talvez,17655.955869669422,-14722.244706421461,-21364.333792249417,-7396.661626894668,-187500.02235174447,-187500.02235174447,-187500.02235174447,-187500.02235174447
talvez,17686.175428173,-14696.853124720232,-21212.96777879808,-7416.8899556267215,-187500.02235174447,-187500.02235174447,-187500.02235174447,-187500.02235174447
talvez,17582.306871689187,-14758.834512094798,-21566.326506892026,-7505.96165728112,-187500.02235174447,-187500.02235174447,-187500.02235174447,-187500.02235174447
talvez,17587.380717680542,-14756.711096371544,-21673.637232021956,-7479.43013661267,-187500.02235174447,-187500.02235174447,-187500.02235174447,-187500.02235174447
talvez,17681.81683800421,-14714.801575517844,-21361.33865849241,-7424.891880141721,-187500.02235174447,-187500.02235174447,-187500.02235174447,-187500.02235174447
talvez,17712.751652330357,-14711.806441760833,-21146.9407256771,-7462.889845715743,-187500.02235174447,-187500.02235174447,-187500.02235174447,-187500.02235174447
talvez,17609.978331324855,-14778.682861171112,-21478.752372116134,-7556.767172428033,-187500.02235174447,-187500.02235174447,-187500.02235174447,-187500.02235174447
talvez,17581.077525744146,-14786.416564752648,-21686.71300252831,-7519.260945232028,-187500.02235174447,-187500.02235174447,-187500.02235174447,-187500.02235174447
talvez,17695.116125955123,-14709.012473703919,-21399.80601069999,-7432.491473256526,-187500.02235174447,-187500.02235174447,-187500.02235174447,-187500.02235174447
talvez,17735.50572818586,-14692.986272929464,-21119.716300930537,-7439.018182637476,-187500.02235174447,-187500.02235174447,-187500.02235174447,-187500.02235174447
talvez,17612.280561003754,-14781.767401905943,-21407.204438114695,-7540.293936764471,-187500.02235174447,-187500.02235174447,-187500.02235174447,-187500.02235174447
talvez,17550.679153284927,-14774.905416358164,-21702.627444580492,-7548.362916512838,-187500.02235174447,-187500.02235174447,-187500.02235174447,-187500.02235174447
talvez,17659.77801797128,-14707.000816702941,-21469.096418511443,-7471.159991164207,-187500.02235174447,-187500.02235174447,-187500.02235174447,-187500.02235174447
talvez,17748.581498692216,-14682.480953035469,-21126.913562645146,-7455.156142134207,-187500.02235174447,-187500.02235174447,-187500.02235174447,-187500.02235174447
talvez,17666.908224452523,-14742.182462475594,-21297.144448416766,-7550.575739213913,-187500.02235174447,-187500.02235174447,-187500.02235174447,-187500.02235174447
talvez,17574.81903729666,-14782.6391199397,-21658.57215625908,-7546.35125951186,-187500.02235174447,-187500.02235174447,-187500.02235174447,-187500.02235174447
talvez,17632.48653799135,-14737.645058351167,-21539.16913737883,-7500.619590356302,-187500.02235174447,-187500.02235174447,-187500.02235174447,-187500.02235174447
