WORD,Channel_1,Channel_2,Channel_3,Channel_4,Channel_5,Channel_6,Channel_7,Channel_8
não,3058.7691734754058,-8546.681230864671,6684.535048548585,12281.344804924109,-187500.02235174447,-187500.02235174447,-187500.02235174447,-187500.02235174447
não,3270.686062656172,-8499.384939597243,7144.51159769435,12249.359458608564,-187500.02235174447,-187500.02235174447,-187500.02235174447,-187500.02235174447
não,3171.176096341145,-8483.49284928952,7096.075367459699,12268.403144884485,-187500.02235174447,-187500.02235174447,-187500.02235174447,-187500.02235174447
não,2947.3233756212444,-8519.859137518304,6649.107533586924,12300.120270266567,-187500.02235174447,-187500.02235174447,-187500.02235174447,-187500.02235174447
não,3010.6458676631296,-8546.725934353582,6612.987114547148,12286.753927082293,-187500.02235174447,-187500.02235174447,-187500.02235174447,-187500.02235174447
não,3254.145771759245,-8508.571506568374,7090.286265645775,12246.744304507292,-187500.02235174447,-187500.02235174447,-187500.02235174447,-187500.02235174447
não,3211.453939849608,-8483.023462655958,7147.037344817799,12258.166045923954,-187500.02235174447,-187500.02235174447,-187500.02235174447,-187500.02235174447
não,2985.164878984079,-8509.465576346585,6729.506758392663,12301.841354589624,-187500.02235174447,-187500.02235174447,-187500.02235174447,-187500.02235174447
não,2975.4195184015657,-8543.97666978558,6564.260311634578,12298.510944665784,-187500.02235174447,-187500.02235174447,-187500.02235174447,-187500.02235174447
não,3228.776541802471,-8514.852346760315,7020.034732822744,12253.762752266259,-187500.02235174447,-187500.02235174447,-187500.02235174447,-187500.02235174447
não,3247.7531728450267,-8481.63765449973,7187.538705770816,12257.026106956733,-187500.02235174447,-187500.02235174447,-187500.02235174447,-187500.02235174447
não,3023.6992864250287,-8500.01078844199,6812.319971599576,12297.259246976286,-187500.02235174447,-187500.02235174447,-187500.02235174447,-187500.02235174447
não,2943.6353377861187,-8538.1652162272,6538.511102022065,12308.636284904038,-187500.02235174447,-187500.02235174447,-187500.02235174447,-187500.02235174447
não,3182.910762180181,-8520.037951473947,6938.830845216614,12264.245720415798,-187500.02235174447,-187500.02235174447,-187500.02235174447,-187500.02235174447
não,3252.7599636030154,-8480.520067276962,7205.844784479712,12256.266147645254,-187500.02235174447,-187500.02235174447,-187500.02235174447,-187500.02235174447
não,3066.7487462459503,-8492.746471494016,6900.564658709128,12292.610084129583,-187500.02235174447,-187500.02235174447,-187500.02235174447,-187500.02235174447
não,2939.9696516954486,-8533.203128958123,6539.382820055821,12313.218392517376,-187500.02235174447,-187500.02235174447,-187500.02235174447,-187500.02235174447
não,3157.2956630343992,-8528.911594022704,6850.4520476403295,12271.152409452488,-187500.02235174447,-187500.02235174447,-187500.02235174447,-187500.02235174447
não,3284.007702351535,-8487.337349335832,7205.889487968623,12255.148560422489,-187500.02235174447,-187500.02235174447,-187500.02235174447,-187500.02235174447
não,3118.2471654709775,-8488.767860980972,6977.052328235189,12288.184438727432,-187500.02235174447,-187500.02235174447,-187500.02235174447,-187500.02235174447
não,2939.3438028507,-8532.934908024657,6550.53634053902,12310.111500038089,-187500.02235174447,-187500.02235174447,-187500.02235174447,-187500.02235174447
não,3114.42501716912,-8539.439265661153,6753.490180193207,12276.405069399485,-187500.02235174447,-187500.02235174447,-187500.02235174447,-187500.02235174447
não,3293.7977664229593,-8493.238209872034,7182.867191179656,12250.722915020337,-187500.02235174447,-187500.02235174447,-187500.02235174447,-187500.02235174447
não,3166.7280991945386,-8486.644445257718,7053.450590783428,12277.05326998869,-187500.02235174447,-187500.02235174447,-187500.02235174447,-187500.02235174447
não,2958.8121722712726,-8524.485948620551,6608.44971042272,12312.257267505798,-187500.02235174447,-187500.02235174447,-187500.02235174447,-187500.02235174447
não,3074.37069110521,-8543.104951751822,6684.266827615122,12288.81028757218,-187500.02235174447,-187500.02235174447,-187500.02235174447,-187500.02235174447
não,3297.3740455358084,-8503.520012321474,7155.486304221905,12253.203958654876,-187500.02235174447,-187500.02235174447,-187500.02235174447,-187500.02235174447
não,3205.553079313407,-8486.800907468905,7107.899440276557,12266.369136139052,-187500.02235174447,-187500.02235174447,-187500.02235174447,-187500.02235174447
não,2982.1250417381575,-8523.278954419966,6657.310623802022,12304.38945345753,-187500.02235174447,-187500.02235174447,-187500.02235174447,-187500.02235174447
não,3028.6390219496516,-8556.158370513722,6601.230096963656,12285.837505559624,-187500.02235174447,-187500.02235174447,-187500.02235174447,-187500.02235174447
não,3279.4032429937415,-8518.02629447297,7084.921846976501,12249.18064465292,-187500.02235174447,-187500.02235174447,-187500.02235174447,-187500.02235174447
não,3248.5354839009624,-8487.87379120276,7161.163647313553,12261.228234914332,-187500.02235174447,-187500.02235174447,-187500.02235174447,-187500.02235174447
não,3029.5554434723194,-8515.522899093974,6743.09661902149,12300.075566777656,-187500.02235174447,-187500.02235174447,-187500.02235174447,-187500.02235174447
não,3005.1249867826687,-8552.224463489589,6560.39345984381,12300.321435966664,-187500.02235174447,-187500.02235174447,-187500.02235174447,-187500.02235174447
não,3251.530617657974,-8523.435416631153,7009.037674550734,12252.131074921022,-187500.02235174447,-187500.02235174447,-187500.02235174447,-187500.02235174447
não,3277.4362894816745,-8488.276122602954,7188.857458693678,12253.963917966357,-187500.02235174447,-187500.02235174447,-187500.02235174447,-187500.02235174447
não,3068.6486445246514,-8505.643428044728,6824.568727561084,12294.152354496999,-187500.02235174447,-187500.02235174447,-187500.02235174447,-187500.02235174447
não,2984.49432665042,-8549.855178577325,6534.95717465367,12301.81900284517,-187500.02235174447,-187500.02235174447,-187500.02235174447,-187500.02235174447
não,3221.534576598952,-8533.985440014058,6930.292478834686,12255.595595311594,-187500.02235174447,-187500.02235174447,-187500.02235174447,-187500.02235174447
não,3291.160260577233,-8492.813526727383,7208.012903691877,12246.94547020739,-187500.02235174447,-187500.02235174447,-187500.02235174447,-187500.02235174447
não,3108.211232210545,-8505.039930944435,6906.420815756419,12279.489610134318,-187500.02235174447,-187500.02235174447,-187500.02235174447,-187500.02235174447
não,2971.3067974217893,-8548.491722165552,6534.7113054646625,12298.667406876972,-187500.02235174447,-187500.02235174447,-187500.02235174447,-187500.02235174447
não,3175.981721399036,-8543.440227918652,6839.320878901587,12257.853121501581,-187500.02235174447,-187500.02235174447,-187500.02235174447,-187500.02235174447
não,3306.292391573476,-8497.485041318541,7205.978894946444,12238.429455569918,-187500.02235174447,-187500.02235174447,-187500.02235174447,-187500.02235174447
não,3142.118828549246,-8498.49086981903,6985.948322528401,12271.510037363772,-187500.02235174447,-187500.02235174447,-187500.02235174447,-187500.02235174447
não,2961.472029861454,-8542.88143430727,6560.058183676981,12306.021130802766,-187500.02235174447,-187500.02235174447,-187500.02235174447,-187500.02235174447
não,3126.80788359736,-8553.36440245681,6747.455209190275,12269.52073210725,-187500.02235174447,-187500.02235174447,-187500.02235174447,-187500.02235174447
não,3310.9415544201797,-8510.247887402522,7184.27535108034,12236.529557291218,-187500.02235174447,-187500.02235174447,-187500.02235174447,-187500.02235174447
não,3195.7630152419824,-8501.307189620398,7061.20664610942,12261.205883169876,-187500.02235174447,-187500.02235174447,-187500.02235174447,-187500.02235174447
não,2981.92387603806,-8538.232271460565,6610.662533123796,12297.795688843215,-187500.02235174447,-187500.02235174447,-187500.02235174447,-187500.02235174447
não,3083.557258076341,-8559.60053915984,6668.061812885024,12271.532389108228,-187500.02235174447,-187500.02235174447,-187500.02235174447,-187500.02235174447
não,3299.743330448071,-8519.121529951279,7140.063600547744,12230.785158966204,-187500.02235174447,-187500.02235174447,-187500.02235174447,-187500.02235174447
não,3225.3567249008092,-8499.966084953081,7127.725437608414,12253.919214477446,-187500.02235174447,-187500.02235174447,-187500.02235174447,-187500.02235174447
não,3007.628382161663,-8530.20799520111,6682.858667714438,12292.252456218297,-187500.02235174447,-187500.02235174447,-187500.02235174447,-187500.02235174447
não,3040.3513360442325,-8557.857103092325,6604.359341187399,12280.696604334904,-187500.02235174447,-187500.02235174447,-187500.02235174447,-187500.02235174447
não,3278.866801126814,-8520.753207296517,7083.491335331361,12238.943545692391,-187500.02235174447,-187500.02235174447,-187500.02235174447,-187500.02235174447
não,3255.039841537457,-8497.127413407256,7167.109211338665,12244.75499925077,-187500.02235174447,-187500.02235174447,-187500.02235174447,-187500.02235174447
não,3039.0102313769144,-8524.888280020748,6749.1986452577885,12285.591636370616,-187500.02235174447,-187500.02235174447,-187500.02235174447,-187500.02235174447
não,3012.232841519456,-8561.634547905272,6548.524683538042,12283.043537502712,-187500.02235174447,-187500.02235174447,-187500.02235174447,-187500.02235174447
não,3265.2769404979877,-8534.208957458612,7002.890944825524,12238.720028247837,-187500.02235174447,-187500.02235174447,-187500.02235174447,-187500.02235174447
não,3295.205926323644,-8495.987474440035,7203.296685611807,12242.81039748316,-187500.02235174447,-187500.02235174447,-187500.02235174447,-187500.02235174447
não,3079.5115923299304,-8514.025332215468,6839.589099835051,12282.328281680142,-187500.02235174447,-187500.02235174447,-187500.02235174447,-187500.02235174447
não,2974.704262578996,-8561.053402549434,6526.239994316101,12286.083374748634,-187500.02235174447,-187500.02235174447,-187500.02235174447,-187500.02235174447
não,3219.5005678535185,-8543.68609710766,6911.762882681237,12240.32935384862,-187500.02235174447,-187500.02235174447,-187500.02235174447,-187500.02235174447
não,3311.8803276873027,-8502.536535565441,7202.872002467157,12233.065036900645,-187500.02235174447,-187500.02235174447,-187500.02235174447,-187500.02235174447
não,3127.098456275279,-8510.851384502816,6908.6783419464045,12270.973595496846,-187500.02235174447,-187500.02235174447,-187500.02235174447,-187500.02235174447
não,2975.9112567795823,-8555.59957690234,6527.9610786391595,12291.380738184542,-187500.02235174447,-187500.02235174447,-187500.02235174447,-187500.02235174447
não,3180.3403115678207,-8552.805608845427,6830.06725669709,12253.338069121608,-187500.02235174447,-187500.02235174447,-187500.02235174447,-187500.02235174447
não,3319.5693277799282,-8507.833899001349,7211.186851404531,12227.365342064542,-187500.02235174447,-187500.02235174447,-187500.02235174447,-187500.02235174447
não,3164.582331726829,-8506.49279433403,6995.984255788834,12259.95418548038,-187500.02235174447,-187500.02235174447,-187500.02235174447,-187500.02235174447
não,2971.73148056644,-8547.843521576347,6566.786058758028,12294.755851597292,-187500.02235174447,-187500.02235174447,-187500.02235174447,-187500.02235174447
não,3130.272403987933,-8559.779353115482,6733.820645072537,12257.495493590295,-187500.02235174447,-187500.02235174447,-187500.02235174447,-187500.02235174447
não,3322.452702814663,-8511.410178114198,7198.379301831639,12235.814301468648,-187500.02235174447,-187500.02235174447,-187500.02235174447,-187500.02235174447
não,3205.2178031465774,-8491.248904615511,7090.487431345872,12267.352612895085,-187500.02235174447,-187500.02235174447,-187500.02235174447,-187500.02235174447
não,3002.5545361703084,-8535.840634803848,6651.275652799089,12301.796651100714,-187500.02235174447,-187500.02235174447,-187500.02235174447,-187500.02235174447
não,3082.6408365536736,-8575.783202145481,6640.747981160639,12256.66847904545,-187500.02235174447,-187500.02235174447,-187500.02235174447,-187500.02235174447
não,3324.151435393266,-8512.30424789241,7136.152045268064,12234.47319680133,-187500.02235174447,-187500.02235174447,-187500.02235174447,-187500.02235174447
não,3249.4072019347195,-8499.407291341699,7186.04113889231,12246.140807406999,-187500.02235174447,-187500.02235174447,-187500.02235174447,-187500.02235174447
não,3038.6526034656295,-8541.428570917675,6713.681723318306,12287.80445907169,-187500.02235174447,-187500.02235174447,-187500.02235174447,-187500.02235174447
não,3037.467961009498,-8593.239914565076,6587.036739234536,12253.159255165965,-187500.02235174447,-187500.02235174447,-187500.02235174447,-187500.02235174447
não,3310.3827608087972,-8536.533538881962,7096.723568048903,12224.638429240995,-187500.02235174447,-187500.02235174447,-187500.02235174447,-187500.02235174447
não,3294.7588914345374,-8487.15853538019,7257.4102589381055,12255.595595311594,-187500.02235174447,-187500.02235174447,-187500.02235174447,-187500.02235174447
não,3082.3949673646653,-8483.895180689715,6833.554128832117,12300.544953411218,-187500.02235174447,-187500.02235174447,-187500.02235174447,-187500.02235174447
não,3012.0316758193585,-8575.000891089547,6544.948404425193,12278.439078144918,-187500.02235174447,-187500.02235174447,-187500.02235174447,-187500.02235174447
não,3231.0564197369126,-8600.481879768597,6917.596687984073,12217.105891359555,-187500.02235174447,-187500.02235174447,-187500.02235174447,-187500.02235174447
não,3275.1564115472333,-8550.816303588905,7136.152045268064,12202.778423163703,-187500.02235174447,-187500.02235174447,-187500.02235174447,-187500.02235174447
não,3095.4036826376537,-8523.033085230958,6825.239279894743,12245.827882984626,-187500.02235174447,-187500.02235174447,-187500.02235174447,-187500.02235174447
não,2999.0006088019145,-8562.59567291685,6511.018456342037,12256.780237767725,-187500.02235174447,-187500.02235174447,-187500.02235174447,-187500.02235174447
não,3151.171285053645,-8651.533264104517,6803.625143006461,12144.529777113174,-187500.02235174447,-187500.02235174447,-187500.02235174447,-187500.02235174447
não,3304.392493294775,-8569.1223822978,7205.554211801793,12184.785268877182,-187500.02235174447,-187500.02235174447,-187500.02235174447,-187500.02235174447
não,3112.882746801704,-8597.687911711682,6899.4023679974525,12235.300211346175,-187500.02235174447,-187500.02235174447,-187500.02235174447,-187500.02235174447
não,2948.977404710937,-8612.618877007828,6478.0049297815485,12232.059208400156,-187500.02235174447,-187500.02235174447,-187500.02235174447,-187500.02235174447
não,3140.151875037179,-8623.258307368555,6742.71663936575,12180.2255130083,-187500.02235174447,-187500.02235174447,-187500.02235174447,-187500.02235174447
não,3298.2010600806548,-8587.27199879551,7146.724420395425,12148.776608559681,-187500.02235174447,-187500.02235174447,-187500.02235174447,-187500.02235174447
não,3150.0313460864245,-8587.249647051054,6970.860895021069,12170.971890803801,-187500.02235174447,-187500.02235174447,-187500.02235174447,-187500.02235174447
não,2954.6770995470406,-8619.32440034442,6576.620826318363,12215.720083203327,-187500.02235174447,-187500.02235174447,-187500.02235174447,-187500.02235174447
não,3117.3530956927652,-8625.962868447647,6695.9567899652475,12190.775536391204,-187500.02235174447,-187500.02235174447,-187500.02235174447,-187500.02235174447
não,3315.367199822331,-8595.028054121502,7116.951896780956,12154.163378973411,-187500.02235174447,-187500.02235174447,-187500.02235174447,-187500.02235174447
não,3200.6356955332394,-8589.976559874602,7092.677902302493,12201.929056874402,-187500.02235174447,-187500.02235174447,-187500.02235174447,-187500.02235174447
não,2974.436041645532,-8617.424502065718,6604.426396420765,12228.482929287307,-187500.02235174447,-187500.02235174447,-187500.02235174447,-187500.02235174447
não,3030.471864994987,-8651.71207806016,6514.86295638835,12169.384916947474,-187500.02235174447,-187500.02235174447,-187500.02235174447,-187500.02235174447
não,3281.258437783532,-8606.807423449449,7030.964735861389,12151.302355683132,-187500.02235174447,-187500.02235174447,-187500.02235174447,-187500.02235174447
não,3223.9932684890355,-8576.051423078945,7084.854791743135,12187.266312511721,-187500.02235174447,-187500.02235174447,-187500.02235174447,-187500.02235174447
não,2990.9092773090933,-8606.22627809361,6657.824713924493,12229.913440932447,-187500.02235174447,-187500.02235174447,-187500.02235174447,-187500.02235174447
não,3005.3261524827662,-8636.848167997381,6550.603395772386,12207.65110345496,-187500.02235174447,-187500.02235174447,-187500.02235174447,-187500.02235174447
não,3268.070908554901,-8602.426481536208,7035.166863818988,12171.396573948452,-187500.02235174447,-187500.02235174447,-187500.02235174447,-187500.02235174447
não,3274.4411557246635,-8576.163181801223,7175.7593364428685,12217.195298337378,-187500.02235174447,-187500.02235174447,-187500.02235174447,-187500.02235174447
não,3024.6157079476966,-8592.547010486962,6745.711773122761,12221.397426294974,-187500.02235174447,-187500.02235174447,-187500.02235174447,-187500.02235174447
não,2970.4574311324873,-8637.742237775594,6522.7978256699835,12237.110702647054,-187500.02235174447,-187500.02235174447,-187500.02235174447,-187500.02235174447
não,3240.198283219133,-8608.260286839042,6966.994043230301,12197.36930100552,-187500.02235174447,-187500.02235174447,-187500.02235174447,-187500.02235174447
não,3296.7258449466044,-8570.798763131948,7192.23257210643,12195.022367837711,-187500.02235174447,-187500.02235174447,-187500.02235174447,-187500.02235174447
não,3077.7458045179615,-8586.288522039476,6851.122599973989,12230.494586288285,-187500.02235174447,-187500.02235174447,-187500.02235174447,-187500.02235174447
não,2964.020128729359,-8625.225260880621,6533.414904286255,12250.879377231524,-187500.02235174447,-187500.02235174447,-187500.02235174447,-187500.02235174447
não,3208.883489237248,-8610.875440940314,6892.473327216307,12209.640408711482,-187500.02235174447,-187500.02235174447,-187500.02235174447,-187500.02235174447
não,3310.829795697903,-8569.144734042256,7208.906973470089,12194.575332948605,-187500.02235174447,-187500.02235174447,-187500.02235174447,-187500.02235174447
não,3114.849700313771,-8575.98436784558,6938.406162071963,12224.973705407823,-187500.02235174447,-187500.02235174447,-187500.02235174447,-187500.02235174447
não,2945.9375674650155,-8622.297182356975,6539.807503200473,12242.922156205435,-187500.02235174447,-187500.02235174447,-187500.02235174447,-187500.02235174447
não,3147.684412918617,-8628.399208593275,6802.328741828053,12198.620998695016,-187500.02235174447,-187500.02235174447,-187500.02235174447,-187500.02235174447
não,3316.5294905340065,-8579.426536491697,7207.6329240361365,12172.089478026566,-187500.02235174447,-187500.02235174447,-187500.02235174447,-187500.02235174447
não,3167.3092445503767,-8573.905655611235,7033.959869618401,12203.739548175281,-187500.02235174447,-187500.02235174447,-187500.02235174447,-187500.02235174447
não,2961.1367536946245,-8609.489632784085,6601.051283008013,12245.939641706902,-187500.02235174447,-187500.02235174447,-187500.02235174447,-187500.02235174447
não,3089.8157465238273,-8632.556633061962,6723.09180773399,12202.353740019053,-187500.02235174447,-187500.02235174447,-187500.02235174447,-187500.02235174447
não,3300.771510693015,-8585.729728428094,7178.173324844042,12166.680355868382,-187500.02235174447,-187500.02235174447,-187500.02235174447,-187500.02235174447
não,3196.5676780423737,-8571.424611976698,7100.098681461654,12180.672547897406,-187500.02235174447,-187500.02235174447,-187500.02235174447,-187500.02235174447
não,2969.853934032194,-8607.075644382912,6653.756696433627,12232.170967122433,-187500.02235174447,-187500.02235174447,-187500.02235174447,-187500.02235174447
não,3034.919862141593,-8636.132912174811,6654.539007489563,12214.177812835911,-187500.02235174447,-187500.02235174447,-187500.02235174447,-187500.02235174447
não,3273.7258999020937,-8596.32445529991,7127.837196330691,12163.037021522168,-187500.02235174447,-187500.02235174447,-187500.02235174447,-187500.02235174447
não,3219.0535329644126,-8564.652033406739,7157.162685056053,12181.052527553145,-187500.02235174447,-187500.02235174447,-187500.02235174447,-187500.02235174447
não,2988.025902274359,-8593.217562820622,6728.411522914354,12227.387693808996,-187500.02235174447,-187500.02235174447,-187500.02235174447,-187500.02235174447
não,2995.625495389163,-8629.337981860397,6599.441957407232,12222.135033862,-187500.02235174447,-187500.02235174447,-187500.02235174447,-187500.02235174447
não,3266.6851003986717,-8597.531449500495,7072.87425671509,12177.565655418117,-187500.02235174447,-187500.02235174447,-187500.02235174447,-187500.02235174447
não,3257.45382993863,-8567.758925886026,7202.737892000425,12181.656024653439,-187500.02235174447,-187500.02235174447,-187500.02235174447,-187500.02235174447
não,3021.1735393015792,-8584.813306905426,6806.374407574464,12227.722969975826,-187500.02235174447,-187500.02235174447,-187500.02235174447,-187500.02235174447
não,2954.6547478025855,-8623.347714346375,6561.086363921924,12228.013542653745,-187500.02235174447,-187500.02235174447,-187500.02235174447,-187500.02235174447
não,3218.9864777310468,-8600.638341979784,7005.2378779933315,12178.392669962963,-187500.02235174447,-187500.02235174447,-187500.02235174447,-187500.02235174447
não,3283.739481418071,-8555.55487341343,7265.523942175382,12177.990338562768,-187500.02235174447,-187500.02235174447,-187500.02235174447,-187500.02235174447
não,3039.79254243285,-8571.871646865804,6878.972873565302,12210.22155406732,-187500.02235174447,-187500.02235174447,-187500.02235174447,-187500.02235174447
não,2936.594538282697,-8615.524603787018,6568.350680869899,12237.602441025072,-187500.02235174447,-187500.02235174447,-187500.02235174447,-187500.02235174447
não,3156.9603868675695,-8602.784109447493,6893.970894094813,12204.454803997853,-187500.02235174447,-187500.02235174447,-187500.02235174447,-187500.02235174447
não,3291.31672278842,-8560.427553704685,7245.407372165606,12188.249789267755,-187500.02235174447,-187500.02235174447,-187500.02235174447,-187500.02235174447
não,3085.1889354215787,-8561.209864760622,6959.3944501154965,12230.673400243926,-187500.02235174447,-187500.02235174447,-187500.02235174447,-187500.02235174447
não,2914.734532205407,-8600.928914657703,6545.283680592022,12252.980441210324,-187500.02235174447,-187500.02235174447,-187500.02235174447,-187500.02235174447
não,3128.774837109427,-8591.943513386668,6811.8282332215595,12215.116586103033,-187500.02235174447,-187500.02235174447,-187500.02235174447,-187500.02235174447
não,3284.4994407295517,-8556.940681569658,7208.258772880885,12185.03113806619,-187500.02235174447,-187500.02235174447,-187500.02235174447,-187500.02235174447
não,3115.6320113697066,-8561.232216505077,7021.308782256697,12213.954295391357,-187500.02235174447,-187500.02235174447,-187500.02235174447,-187500.02235174447
não,2920.322468319234,-8590.580056974895,6594.792794560528,12272.359403653074,-187500.02235174447,-187500.02235174447,-187500.02235174447,-187500.02235174447
não,3053.851789695238,-8612.954153174658,6709.747816294172,12240.84344397109,-187500.02235174447,-187500.02235174447,-187500.02235174447,-187500.02235174447
não,3254.5928066483507,-8565.16612352921,7159.666080435048,12197.861039383537,-187500.02235174447,-187500.02235174447,-187500.02235174447,-187500.02235174447
não,3150.858360631271,-8546.97180354259,7092.677902302493,12231.1874903664,-187500.02235174447,-187500.02235174447,-187500.02235174447,-187500.02235174447
não,2912.186433337502,-8583.159277815734,6637.395219492343,12277.880284533536,-187500.02235174447,-187500.02235174447,-187500.02235174447,-187500.02235174447
não,2972.2902741778225,-8605.756891460049,6616.496338426631,12259.95418548038,-187500.02235174447,-187500.02235174447,-187500.02235174447,-187500.02235174447
não,3212.772692772471,-8570.396431731753,7089.146326678554,12209.50629824475,-187500.02235174447,-187500.02235174447,-187500.02235174447,-187500.02235174447
não,3156.5804072118294,-8550.145751255244,7126.473739918917,12220.928039661412,-187500.02235174447,-187500.02235174447,-187500.02235174447,-187500.02235174447
não,2917.3049828177673,-8560.98634731607,6689.743005006672,12265.251548916287,-187500.02235174447,-187500.02235174447,-187500.02235174447,-187500.02235174447
não,2921.887090431105,-8598.134946600789,6550.424581816743,12271.241816430309,-187500.02235174447,-187500.02235174447,-187500.02235174447,-187500.02235174447
não,3185.2129918590776,-8569.50236195354,7025.957945103401,12224.012580396246,-187500.02235174447,-187500.02235174447,-187500.02235174447,-187500.02235174447
não,3185.2576953479884,-8539.30515519442,7168.18209507252,12226.270106586231,-187500.02235174447,-187500.02235174447,-187500.02235174447,-187500.02235174447
não,2961.2485124169007,-8560.807533360427,6776.825401404549,12275.265130432264,-187500.02235174447,-187500.02235174447,-187500.02235174447,-187500.02235174447
não,2889.2982470152674,-8599.94543790167,6511.443139486688,12278.394374656007,-187500.02235174447,-187500.02235174447,-187500.02235174447,-187500.02235174447
não,3139.0119360699578,-8578.420707991208,6928.6384497449935,12210.46742325633,-187500.02235174447,-187500.02235174447,-187500.02235174447,-187500.02235174447
não,3203.5190705679743,-8544.848387819336,7180.520258011849,12206.153536576456,-187500.02235174447,-187500.02235174447,-187500.02235174447,-187500.02235174447
não,2996.87719307866,-8555.733687369071,6856.419963409897,12255.66265054496,-187500.02235174447,-187500.02235174447,-187500.02235174447,-187500.02235174447
não,2858.251673966846,-8595.27392331051,6504.648209172275,12272.538217608717,-187500.02235174447,-187500.02235174447,-187500.02235174447,-187500.02235174447
não,3086.8429645112715,-8587.18259181769,6846.406381893919,12238.205938125366,-187500.02235174447,-187500.02235174447,-187500.02235174447,-187500.02235174447
não,3207.7882537589376,-8534.074846991878,7197.440528564517,12232.796815967182,-187500.02235174447,-187500.02235174447,-187500.02235174447,-187500.02235174447
não,3013.59629793123,-8535.25948944801,6944.619947030538,12262.792857026203,-187500.02235174447,-187500.02235174447,-187500.02235174447,-187500.02235174447
não,2826.89217649605,-8583.740423171572,6521.702590191673,12293.14652599651,-187500.02235174447,-187500.02235174447,-187500.02235174447,-187500.02235174447
não,3017.97723984447,-8587.18259181769,6747.2540434901775,12256.0426302007,-187500.02235174447,-187500.02235174447,-187500.02235174447,-187500.02235174447
não,3202.6026490453064,-8536.824111559881,7191.51731628386,12212.233211068298,-187500.02235174447,-187500.02235174447,-187500.02235174447,-187500.02235174447
não,3047.347432058744,-8534.1642539697,7020.593526434127,12246.766656251748,-187500.02235174447,-187500.02235174447,-187500.02235174447,-187500.02235174447
não,2837.643365579053,-8572.832771877382,6559.72290751015,12281.590674113117,-187500.02235174447,-187500.02235174447,-187500.02235174447,-187500.02235174447
não,2962.5225618508534,-8585.081527838889,6648.258167297622,12262.546987837195,-187500.02235174447,-187500.02235174447,-187500.02235174447,-187500.02235174447
não,3185.77178547046,-8541.093294750845,7118.337704937185,12228.885260687503,-187500.02235174447,-187500.02235174447,-187500.02235174447,-187500.02235174447
não,3088.8769732567043,-8526.005867243513,7069.432088068973,12252.153426665476,-187500.02235174447,-187500.02235174447,-187500.02235174447,-187500.02235174447
não,2849.1992174624465,-8566.887207852269,6611.780120346561,12286.172781726455,-187500.02235174447,-187500.02235174447,-187500.02235174447,-187500.02235174447
não,2911.158253092558,-8585.997949361557,6583.125183954858,12274.348708909596,-187500.02235174447,-187500.02235174447,-187500.02235174447,-187500.02235174447
não,3165.074070104846,-8545.36247794181,7075.310596860719,12234.249679356775,-187500.02235174447,-187500.02235174447,-187500.02235174447,-187500.02235174447
não,3110.535813633897,-8520.082654962856,7119.544699137771,12240.463464315351,-187500.02235174447,-187500.02235174447,-187500.02235174447,-187500.02235174447
não,2869.874581083606,-8550.145751255244,6685.540877049074,12276.025089743745,-187500.02235174447,-187500.02235174447,-187500.02235174447,-187500.02235174447
não,2862.677319368997,-8583.338091771377,6524.273040804034,12272.448810630896,-187500.02235174447,-187500.02235174447,-187500.02235174447,-187500.02235174447
não,3132.105247033268,-8548.245852976544,6994.464337165873,12234.696714245882,-187500.02235174447,-187500.02235174447,-187500.02235174447,-187500.02235174447
não,3140.7330203930164,-8513.824166515371,7159.822542646235,12237.289516602697,-187500.02235174447,-187500.02235174447,-187500.02235174447,-187500.02235174447
não,2901.055264598759,-8535.617117359296,6768.130572811434,12276.561531610672,-187500.02235174447,-187500.02235174447,-187500.02235174447,-187500.02235174447
não,2818.733789769863,-8580.633530692283,6482.7658513505285,12282.082412491132,-187500.02235174447,-187500.02235174447,-187500.02235174447,-187500.02235174447
não,3080.919752230615,-8560.315794982409,6898.798870897159,12234.540252034694,-187500.02235174447,-187500.02235174447,-187500.02235174447,-187500.02235174447
não,3156.3121862783655,-8521.535518352452,7168.5397229838045,12227.298286831176,-187500.02235174447,-187500.02235174447,-187500.02235174447,-187500.02235174447
não,2945.6469947870964,-8535.840634803848,6846.406381893919,12269.364269896063,-187500.02235174447,-187500.02235174447,-187500.02235174447,-187500.02235174447
não,2798.483109293355,-8581.974635359602,6475.926217547205,12281.210694457377,-187500.02235174447,-187500.02235174447,-187500.02235174447,-187500.02235174447
não,3028.6390219496516,-8569.971748587102,6802.999294161713,12233.75794097876,-187500.02235174447,-187500.02235174447,-187500.02235174447,-187500.02235174447
não,3162.011881114469,-8520.440282874142,7163.689394437003,12219.005789638257,-187500.02235174447,-187500.02235174447,-187500.02235174447,-187500.02235174447
não,2983.7120155944845,-8526.274088176977,6923.5869554980945,12256.75788602327,-187500.02235174447,-187500.02235174447,-187500.02235174447,-187500.02235174447
não,2798.6842749934526,-8571.31285325442,6498.47912770261,12291.559552140183,-187500.02235174447,-187500.02235174447,-187500.02235174447,-187500.02235174447
não,2985.6342656176407,-8572.832771877382,6715.603973341463,12261.563511081162,-187500.02235174447,-187500.02235174447,-187500.02235174447,-187500.02235174447
não,3169.9020469071925,-8525.871756776782,7150.501865208372,12234.47319680133,-187500.02235174447,-187500.02235174447,-187500.02235174447,-187500.02235174447
não,3029.019001605392,-8523.144843953234,7002.510965169784,12259.99888896929,-187500.02235174447,-187500.02235174447,-187500.02235174447,-187500.02235174447
$SILENCE,2804.5851355296536,-8569.144734042256,6534.666601975751,12291.380738184542,-187500.02235174447,-187500.02235174447,-187500.02235174447,-187500.02235174447
$SILENCE,2920.993020652893,-8589.484821496586,6611.511899413097,12255.059153444667,-187500.02235174447,-187500.02235174447,-187500.02235174447,-187500.02235174447
$SILENCE,3149.785476897416,-8539.081637749869,7093.951951736445,12215.697731458871,-187500.02235174447,-187500.02235174447,-187500.02235174447,-187500.02235174447
$SILENCE,3053.851789695238,-8515.142919438234,7049.248462825831,12236.127225891021,-187500.02235174447,-187500.02235174447,-187500.02235174447,-187500.02235174447
$SILENCE,2816.409208346511,-8553.207940245622,6589.450727635709,12280.33897642362,-187500.02235174447,-187500.02235174447,-187500.02235174447,-187500.02235174447
$SILENCE,2873.2049910074466,-8586.534391228484,6543.070857890947,12269.967766996357,-187500.02235174447,-187500.02235174447,-187500.02235174447,-187500.02235174447
$SILENCE,3131.814674355349,-8546.234195975567,7039.77132317678,12227.164176364444,-187500.02235174447,-187500.02235174447,-187500.02235174447,-187500.02235174447
$SILENCE,3093.3249704033105,-8519.054474717912,7106.983018753889,12238.340048592097,-187500.02235174447,-187500.02235174447,-187500.02235174447,-187500.02235174447
$SILENCE,2852.216702963913,-8549.810475088416,6675.326129832999,12281.747136324304,-187500.02235174447,-187500.02235174447,-187500.02235174447,-187500.02235174447
$SILENCE,2831.831912020673,-8586.869667395315,6496.445118957176,12275.488647876817,-187500.02235174447,-187500.02235174447,-187500.02235174447,-187500.02235174447
$SILENCE,3104.94787752007,-8558.572358914895,6967.508133352773,12223.923173418425,-187500.02235174447,-187500.02235174447,-187500.02235174447,-187500.02235174447
$SILENCE,3124.3715434517317,-8520.015599729491,7139.728324380913,12225.823071697125,-187500.02235174447,-187500.02235174447,-187500.02235174447,-187500.02235174447
$SILENCE,2894.0815203287034,-8540.713315095105,6752.886683092915,12266.61500532806,-187500.02235174447,-187500.02235174447,-187500.02235174447,-187500.02235174447
$SILENCE,2808.250821620324,-8580.924103370202,6461.8669702848165,12279.62372060105,-187500.02235174447,-187500.02235174447,-187500.02235174447,-187500.02235174447
$SILENCE,3073.1636969046235,-8559.913463582214,6875.910684574925,12238.9882491813,-187500.02235174447,-187500.02235174447,-187500.02235174447,-187500.02235174447
$SILENCE,3153.071183332346,-8520.663800318694,7156.9391676115,12230.941621177391,-187500.02235174447,-187500.02235174447,-187500.02235174447,-187500.02235174447
$SILENCE,2938.24856737239,-8534.611288858807,6839.92437600188,12263.686926804416,-187500.02235174447,-187500.02235174447,-187500.02235174447,-187500.02235174447
$SILENCE,2794.348036569123,-8578.688928924672,6462.09048772937,12285.837505559624,-187500.02235174447,-187500.02235174447,-187500.02235174447,-187500.02235174447
$SILENCE,3023.78869340285,-8573.45862072213,6778.993520616713,12240.821092226637,-187500.02235174447,-187500.02235174447,-187500.02235174447,-187500.02235174447
$SILENCE,3162.280102047933,-8528.956297511613,7150.41245823055,12215.675379714416,-187500.02235174447,-187500.02235174447,-187500.02235174447,-187500.02235174447
$SILENCE,2992.0939197652247,-8533.44899814713,6920.278897318709,12256.869644745548,-187500.02235174447,-187500.02235174447,-187500.02235174447,-187500.02235174447
$SILENCE,2799.131309882559,-8578.979501602591,6483.257589728545,12292.788898085226,-187500.02235174447,-187500.02235174447,-187500.02235174447,-187500.02235174447
$SILENCE,2977.2076579579902,-8576.565513201418,6686.636112527384,12260.960013980868,-187500.02235174447,-187500.02235174447,-187500.02235174447,-187500.02235174447
$SILENCE,3165.2528840604887,-8523.725989309072,7128.418341686528,12227.946487420379,-187500.02235174447,-187500.02235174447,-187500.02235174447,-187500.02235174447
$SILENCE,3033.087019096258,-8519.568564840385,6996.878325567046,12257.271976145743,-187500.02235174447,-187500.02235174447,-187500.02235174447,-187500.02235174447
$SILENCE,2807.155586142014,-8563.31092873942,6536.678258976729,12300.47789817785,-187500.02235174447,-187500.02235174447,-187500.02235174447,-187500.02235174447
$SILENCE,2920.5012822748763,-8584.969769116613,6606.236887721645,12275.265130432264,-187500.02235174447,-187500.02235174447,-187500.02235174447,-187500.02235174447
$SILENCE,3162.4142125146645,-8540.981536028568,7086.173544665998,12226.22540309732,-187500.02235174447,-187500.02235174447,-187500.02235174447,-187500.02235174447
$SILENCE,3081.143269675168,-8519.009771229003,7055.104619873121,12247.258394629765,-187500.02235174447,-187500.02235174447,-187500.02235174447,-187500.02235174447
$SILENCE,2837.509255112321,-8553.07382977889,6597.899687039815,12290.28550270623,-187500.02235174447,-187500.02235174447,-187500.02235174447,-187500.02235174447
$SILENCE,2877.317711987223,-8583.494553982562,6529.525700751031,12275.265130432264,-187500.02235174447,-187500.02235174447,-187500.02235174447,-187500.02235174447
$SILENCE,3138.9225290921368,-8542.859082562814,7023.029866579755,12230.963972921845,-187500.02235174447,-187500.02235174447,-187500.02235174447,-187500.02235174447
$SILENCE,3113.732113091006,-8521.02142822998,7106.804204798246,12244.822054484137,-187500.02235174447,-187500.02235174447,-187500.02235174447,-187500.02235174447
$SILENCE,2870.9474648174605,-8543.619041874295,6681.405804324842,12292.095994007112,-187500.02235174447,-187500.02235174447,-187500.02235174447,-187500.02235174447
$SILENCE,2841.8454935366503,-8583.494553982562,6485.537467662986,12289.48083990584,-187500.02235174447,-187500.02235174447,-187500.02235174447,-187500.02235174447
$SILENCE,3115.810825325349,-8556.851274591836,6946.855121476069,12238.876490459024,-187500.02235174447,-187500.02235174447,-187500.02235174447,-187500.02235174447
$SILENCE,3141.8729593602375,-8513.354779881809,7140.868263348135,12244.598537039583,-187500.02235174447,-187500.02235174447,-187500.02235174447,-187500.02235174447
$SILENCE,2908.2972298022783,-8535.952393526124,6765.895398365903,12286.418650915462,-187500.02235174447,-187500.02235174447,-187500.02235174447,-187500.02235174447
$SILENCE,2808.8766704650725,-8579.65005393625,6462.13519121828,12293.079470763145,-187500.02235174447,-187500.02235174447,-187500.02235174447,-187500.02235174447
$SILENCE,3080.94210397507,-8559.958167071125,6864.958329791824,12248.621851041538,-187500.02235174447,-187500.02235174447,-187500.02235174447,-187500.02235174447
$SILENCE,3187.6716837491613,-8517.847480517326,7175.08878410921,12234.316734590142,-187500.02235174447,-187500.02235174447,-187500.02235174447,-187500.02235174447
$SILENCE,2956.5769978257417,-8534.812454558903,6832.011858464702,12275.91333102147,-187500.02235174447,-187500.02235174447,-187500.02235174447,-187500.02235174447
$SILENCE,2801.6570570060085,-8577.571341701907,6448.970013734104,12296.566342898172,-187500.02235174447,-187500.02235174447,-187500.02235174447,-187500.02235174447
$SILENCE,3033.1540743296237,-8564.897902595747,6767.080040822035,12251.840502243103,-187500.02235174447,-187500.02235174447,-187500.02235174447,-187500.02235174447
$SILENCE,3180.273256334455,-8526.072922476878,7150.1665890415425,12234.406141567963,-187500.02235174447,-187500.02235174447,-187500.02235174447,-187500.02235174447
$SILENCE,2998.844146590727,-8527.458730633109,6929.331353823109,12273.47699087584,-187500.02235174447,-187500.02235174447,-187500.02235174447,-187500.02235174447
$SILENCE,2807.155586142014,-8562.59567291685,6489.404319453754,12304.881191835546,-187500.02235174447,-187500.02235174447,-187500.02235174447,-187500.02235174447
$SILENCE,2993.2338587324452,-8571.826943376893,6671.526333275597,12267.218502428354,-187500.02235174447,-187500.02235174447,-187500.02235174447,-187500.02235174447
$SILENCE,3191.337369839832,-8533.180777213667,7117.667152603526,12226.918307175436,-187500.02235174447,-187500.02235174447,-187500.02235174447,-187500.02235174447
$SILENCE,3059.953815931537,-8523.927155009169,6998.688816867926,12249.38181035302,-187500.02235174447,-187500.02235174447,-187500.02235174447,-187500.02235174447
$SILENCE,2834.000031232838,-8564.227350262088,6537.907604921771,12283.691738091915,-187500.02235174447,-187500.02235174447,-187500.02235174447,-187500.02235174447
$SILENCE,2931.9006719470826,-8597.687911711682,6583.661625821785,12265.922101249946,-187500.02235174447,-187500.02235174447,-187500.02235174447,-187500.02235174447
$SILENCE,3181.5696575128627,-8537.293498193443,7080.6079602966265,12269.341918151607,-187500.02235174447,-187500.02235174447,-187500.02235174447,-187500.02235174447
$SILENCE,3099.069368728324,-8513.243021159533,7070.2814543582745,12277.43324964443,-187500.02235174447,-187500.02235174447,-187500.02235174447,-187500.02235174447
$SILENCE,2861.157400746036,-8542.25558546252,6616.496338426631,12286.441002659918,-187500.02235174447,-187500.02235174447,-187500.02235174447,-187500.02235174447
$SILENCE,2889.342950504178,-8581.907580126235,6521.769645425039,12257.696659290394,-187500.02235174447,-187500.02235174447,-187500.02235174447,-187500.02235174447
$SILENCE,3161.296625291899,-8548.335259954365,7013.53037518625,12228.438225798396,-187500.02235174447,-187500.02235174447,-187500.02235174447,-187500.02235174447
$SILENCE,3154.6358054442176,-8491.91945694917,7125.557318396249,12260.602386069582,-187500.02235174447,-187500.02235174447,-187500.02235174447,-187500.02235174447
$SILENCE,2907.984305379904,-8526.989343999547,6712.295915162077,12310.558534927195,-187500.02235174447,-187500.02235174447,-187500.02235174447,-187500.02235174447
$SILENCE,2860.6433106235636,-8577.347824257353,6489.918409576227,12304.836488346637,-187500.02235174447,-187500.02235174447,-187500.02235174447,-187500.02235174447
$SILENCE,3132.2840609889104,-8564.830847362382,6939.389638827996,12242.117493405045,-187500.02235174447,-187500.02235174447,-187500.02235174447,-187500.02235174447
$SILENCE,3167.041023616913,-8534.87950979227,7131.681696377003,12222.51501351774,-187500.02235174447,-187500.02235174447,-187500.02235174447,-187500.02235174447
$SILENCE,2952.307814634778,-8526.341143410342,6775.1490205704,12278.95316826739,-187500.02235174447,-187500.02235174447,-187500.02235174447,-187500.02235174447
$SILENCE,2859.860999567628,-8557.834751347871,6474.383947179788,12311.027921560755,-187500.02235174447,-187500.02235174447,-187500.02235174447,-187500.02235174447
$SILENCE,3110.1558339781564,-8566.686042152172,6855.078858742579,12250.655859786972,-187500.02235174447,-187500.02235174447,-187500.02235174447,-187500.02235174447
$SILENCE,3207.900012481214,-8519.725027051572,7160.515446724349,12239.770560237237,-187500.02235174447,-187500.02235174447,-187500.02235174447,-187500.02235174447
$SILENCE,2997.726559367962,-8524.553003853918,6865.517123403207,12282.171819468955,-187500.02235174447,-187500.02235174447,-187500.02235174447,-187500.02235174447
$SILENCE,2837.062220223215,-8565.948434585147,6474.205133224146,12312.525488439262,-187500.02235174447,-187500.02235174447,-187500.02235174447,-187500.02235174447
$SILENCE,3064.267702611411,-8567.781277630482,6761.894436108403,12261.362345381063,-187500.02235174447,-187500.02235174447,-187500.02235174447,-187500.02235174447
$SILENCE,3241.092352997345,-8516.394617127731,7179.84970567819,12243.190377138899,-187500.02235174447,-187500.02235174447,-187500.02235174447,-187500.02235174447
$SILENCE,3064.3571095892326,-8507.140994923235,6963.6189298175495,12288.00562477179,-187500.02235174447,-187500.02235174447,-187500.02235174447,-187500.02235174447
$SILENCE,2866.0747845262035,-8566.015489818512,6534.331325808922,12319.119253053577,-187500.02235174447,-187500.02235174447,-187500.02235174447,-187500.02235174447
$SILENCE,3004.029751304359,-8574.352690500342,6678.5224292901075,12283.691738091915,-187500.02235174447,-187500.02235174447,-187500.02235174447,-187500.02235174447
$SILENCE,3215.678419551661,-8526.87758527727,7112.414492656529,12252.689868532405,-187500.02235174447,-187500.02235174447,-187500.02235174447,-187500.02235174447
$SILENCE,3109.887613044693,-8513.01950371498,7021.621706679071,12280.361328168074,-187500.02235174447,-187500.02235174447,-187500.02235174447,-187500.02235174447
$SILENCE,2886.146651047069,-8558.393544959254,6567.702480280695,12326.62943919056,-187500.02235174447,-187500.02235174447,-187500.02235174447,-187500.02235174447
$SILENCE,2980.918047537571,-8583.405147004742,6597.363245172888,12304.367101713075,-187500.02235174447,-187500.02235174447,-187500.02235174447,-187500.02235174447
$SILENCE,3227.435437135153,-8539.483969150064,7091.157983679532,12257.942528479402,-187500.02235174447,-187500.02235174447,-187500.02235174447,-187500.02235174447
$SILENCE,3145.7621628954607,-8518.048646217423,7086.866448744113,12273.231121686831,-187500.02235174447,-187500.02235174447,-187500.02235174447,-187500.02235174447
$SILENCE,2895.959066862949,-8543.797855829938,6632.701353156728,12310.53618318274,-187500.02235174447,-187500.02235174447,-187500.02235174447,-187500.02235174447
$SILENCE,2926.6927154889963,-8582.242856293065,6533.05727637497,12294.755851597292,-187500.02235174447,-187500.02235174447,-187500.02235174447,-187500.02235174447
$SILENCE,3204.1896229016334,-8549.095219265846,7020.548822945217,12265.13979019401,-187500.02235174447,-187500.02235174447,-187500.02235174447,-187500.02235174447
$SILENCE,3192.522012295963,-8511.007846714003,7135.146216767575,12277.701470577893,-187500.02235174447,-187500.02235174447,-187500.02235174447,-187500.02235174447
$SILENCE,2946.1387331651135,-8543.060248262913,6727.09276999149,12312.749005883814,-187500.02235174447,-187500.02235174447,-187500.02235174447,-187500.02235174447
$SILENCE,2892.606305194653,-8582.309911526432,6498.032092813503,12318.985142586846,-187500.02235174447,-187500.02235174447,-187500.02235174447,-187500.02235174447
$SILENCE,3170.170267840656,-8553.342050712354,6935.500435292774,12273.745211809304,-187500.02235174447,-187500.02235174447,-187500.02235174447,-187500.02235174447
$SILENCE,3217.39950387472,-8523.569527097885,7153.519350709838,12264.603348327084,-187500.02235174447,-187500.02235174447,-187500.02235174447,-187500.02235174447
$SILENCE,2985.9471900400154,-8541.36151568431,6798.238372592732,12304.098880779611,-187500.02235174447,-187500.02235174447,-187500.02235174447,-187500.02235174447
$SILENCE,2869.5840084056867,-8581.527600470496,6474.808630324439,12324.9083548675,-187500.02235174447,-187500.02235174447,-187500.02235174447,-187500.02235174447
$SILENCE,3125.6008893967737,-8561.768658372004,6852.195483707844,12276.71799382186,-187500.02235174447,-187500.02235174447,-187500.02235174447,-187500.02235174447
$SILENCE,3236.6443558507394,-8520.283820662955,7168.092688094698,12253.941566221902,-187500.02235174447,-187500.02235174447,-187500.02235174447,-187500.02235174447
$SILENCE,3044.106429112724,-8534.87950979227,6885.007844568235,12294.867610319568,-187500.02235174447,-187500.02235174447,-187500.02235174447,-187500.02235174447
$SILENCE,2875.797793364262,-8576.230237034588,6479.726014104607,12321.689703665937,-187500.02235174447,-187500.02235174447,-187500.02235174447,-187500.02235174447
$SILENCE,3085.3230458883104,-8571.31285325442,6747.455209190275,12277.656767088982,-187500.02235174447,-187500.02235174447,-187500.02235174447,-187500.02235174447
$SILENCE,3246.8591030668144,-8525.692942821139,7155.7992286442795,12247.303098118675,-187500.02235174447,-187500.02235174447,-187500.02235174447,-187500.02235174447
$SILENCE,3086.7982610223607,-8524.463596876098,6972.00083398829,12274.549874609695,-187500.02235174447,-187500.02235174447,-187500.02235174447,-187500.02235174447
$SILENCE,2882.927999845505,-8570.687004409672,6530.173901340235,12308.904505837501,-187500.02235174447,-187500.02235174447,-187500.02235174447,-187500.02235174447
$SILENCE,3035.992745875448,-8581.549952214951,6667.994757651658,12280.294272934709,-187500.02235174447,-187500.02235174447,-187500.02235174447,-187500.02235174447
$SILENCE,3254.54810315944,-8535.795931314937,7130.139426009587,12252.46635108785,-187500.02235174447,-187500.02235174447,-187500.02235174447,-187500.02235174447
$SILENCE,3143.079953560824,-8529.358628911808,7047.259157569309,12266.61500532806,-187500.02235174447,-187500.02235174447,-187500.02235174447,-187500.02235174447
$SILENCE,2898.7753866643175,-8564.070888050901,6571.502276838098,12294.442927174918,-187500.02235174447,-187500.02235174447,-187500.02235174447,-187500.02235174447
$SILENCE,2981.2309719599452,-8585.327397027899,6570.831724504438,12274.371060654052,-187500.02235174447,-187500.02235174447,-187500.02235174447,-187500.02235174447
$SILENCE,3243.461637909608,-8546.033030275468,7084.675977787492,12234.294382845686,-187500.02235174447,-187500.02235174447,-187500.02235174447,-187500.02235174447
$SILENCE,3179.7144627230723,-8517.981590984058,7116.929545036501,12249.851196986581,-187500.02235174447,-187500.02235174447,-187500.02235174447,-187500.02235174447
$SILENCE,2915.8744711726276,-8557.991213559057,6631.069675811491,12291.157220739988,-187500.02235174447,-187500.02235174447,-187500.02235174447,-187500.02235174447
$SILENCE,2928.7043724899736,-8594.648074465762,6519.24389830159,12275.443944387907,-187500.02235174447,-187500.02235174447,-187500.02235174447,-187500.02235174447
$SILENCE,3201.5744688003624,-8556.828922847382,7004.544973915216,12220.503356516761,-187500.02235174447,-187500.02235174447,-187500.02235174447,-187500.02235174447
$SILENCE,3206.335390369343,-8527.279916677466,7141.382353470606,12234.048513656679,-187500.02235174447,-187500.02235174447,-187500.02235174447,-187500.02235174447
$SILENCE,2965.2941781633112,-8551.688021622662,6731.205490971267,12271.174761196944,-187500.02235174447,-187500.02235174447,-187500.02235174447,-187500.02235174447
$SILENCE,2904.720950689429,-8597.531449500495,6488.242028742079,12273.409935642474,-187500.02235174447,-187500.02235174447,-187500.02235174447,-187500.02235174447
$SILENCE,3178.306302822388,-8565.546103184952,6935.902766692969,12230.51693803274,-187500.02235174447,-187500.02235174447,-187500.02235174447,-187500.02235174447
$SILENCE,3238.7677715739933,-8523.97185849808,7170.484324751416,12222.067978628635,-187500.02235174447,-187500.02235174447,-187500.02235174447,-187500.02235174447
$SILENCE,3011.5175856968863,-8543.30611745192,6822.020628693179,12260.37886862503,-187500.02235174447,-187500.02235174447,-187500.02235174447,-187500.02235174447
$SILENCE,2884.470270212921,-8588.970731374113,6480.955360049648,12269.341918151607,-187500.02235174447,-187500.02235174447,-187500.02235174447,-187500.02235174447
$SILENCE,3137.2908517468995,-8576.721975412605,6838.784437034659,12224.280801329709,-187500.02235174447,-187500.02235174447,-187500.02235174447,-187500.02235174447
$SILENCE,3260.4713154400965,-8530.476216134575,7176.340481798707,12210.735644189794,-187500.02235174447,-187500.02235174447,-187500.02235174447,-187500.02235174447
$SILENCE,3064.111240400224,-8542.07677150688,6910.198260569366,12242.56452829415,-187500.02235174447,-187500.02235174447,-187500.02235174447,-187500.02235174447
$SILENCE,2884.1349940460914,-8589.909504641237,6500.446081214676,12266.994984983801,-187500.02235174447,-187500.02235174447,-187500.02235174447,-187500.02235174447
$SILENCE,3085.65832205514,-8587.227295306599,6746.158808011867,12228.997019409779,-187500.02235174447,-187500.02235174447,-187500.02235174447,-187500.02235174447
$SILENCE,3258.0796787833788,-8535.415951659197,7163.1976560589865,12200.543248718173,-187500.02235174447,-187500.02235174447,-187500.02235174447,-187500.02235174447
$SILENCE,3107.3171624323327,-8532.510224880007,6994.978427288345,12232.729760733815,-187500.02235174447,-187500.02235174447,-187500.02235174447,-187500.02235174447
$SILENCE,2889.387653993089,-8579.560646958429,6541.126256123335,12266.1456186945,-187500.02235174447,-187500.02235174447,-187500.02235174447,-187500.02235174447
$SILENCE,3032.148245829135,-8589.976559874602,6662.049193626546,12235.210804368355,-187500.02235174447,-187500.02235174447,-187500.02235174447,-187500.02235174447
$SILENCE,3256.135077015767,-8542.769675584994,7144.466894205439,12206.801737165659,-187500.02235174447,-187500.02235174447,-187500.02235174447,-187500.02235174447
$SILENCE,3145.5162937064524,-8532.711390580105,7073.611864282116,12227.90178393147,-187500.02235174447,-187500.02235174447,-187500.02235174447,-187500.02235174447
$SILENCE,2906.7549594348625,-8570.351728242842,6604.001713276114,12269.14075245151,-187500.02235174447,-187500.02235174447,-187500.02235174447,-187500.02235174447
$SILENCE,2978.6828730920406,-8598.581981489895,6581.471154865165,12245.202034139877,-187500.02235174447,-187500.02235174447,-187500.02235174447,-187500.02235174447
$SILENCE,3235.3479546723315,-8558.192379259155,7072.091945659155,12197.436356238886,-187500.02235174447,-187500.02235174447,-187500.02235174447,-187500.02235174447
$SILENCE,3185.8835441927367,-8530.565623112396,7113.129748479098,12213.239039568787,-187500.02235174447,-187500.02235174447,-187500.02235174447,-187500.02235174447
$SILENCE,2944.5964627976973,-8564.808495617926,6684.579752037496,12259.015412213257,-187500.02235174447,-187500.02235174447,-187500.02235174447,-187500.02235174447
$SILENCE,2950.8773029896383,-8599.632513479295,6541.640346245807,12248.487740574807,-187500.02235174447,-187500.02235174447,-187500.02235174447,-187500.02235174447
$SILENCE,3219.8581957648034,-8561.545140927452,7014.759721131292,12197.816335894626,-187500.02235174447,-187500.02235174447,-187500.02235174447,-187500.02235174447
$SILENCE,3220.68521030965,-8529.78331205646,7165.589292715704,12204.723024931316,-187500.02235174447,-187500.02235174447,-187500.02235174447,-187500.02235174447
$SILENCE,2981.58859987123,-8554.638451890762,6757.222921517244,12238.89884220348,-187500.02235174447,-187500.02235174447,-187500.02235174447,-187500.02235174447
$SILENCE,2914.3992560385773,-8596.279751810998,6498.926162591715,12251.080542931622,-187500.02235174447,-187500.02235174447,-187500.02235174447,-187500.02235174447
$SILENCE,3187.001131415502,-8573.480972466585,6939.233176616809,12207.964027877335,-187500.02235174447,-187500.02235174447,-187500.02235174447,-187500.02235174447
$SILENCE,3250.904768813225,-8537.293498193443,7181.727252212436,12191.177867791399,-187500.02235174447,-187500.02235174447,-187500.02235174447,-187500.02235174447
$SILENCE,3028.795484160839,-8550.458675677619,6845.534663860162,12226.001885652768,-187500.02235174447,-187500.02235174447,-187500.02235174447,-187500.02235174447
$SILENCE,2897.85896514165,-8586.109708083834,6487.392662452778,12249.515920819751,-187500.02235174447,-187500.02235174447,-187500.02235174447,-187500.02235174447
$SILENCE,3140.8000756263827,-8576.006719590036,6851.144951718445,12212.032045368202,-187500.02235174447,-187500.02235174447,-187500.02235174447,-187500.02235174447
$SILENCE,3262.192399763155,-8537.06998074889,7201.128566399642,12189.814411379626,-187500.02235174447,-187500.02235174447,-187500.02235174447,-187500.02235174447
$SILENCE,3084.518383087919,-8542.79202732945,6936.349801582075,12222.582068751106,-187500.02235174447,-187500.02235174447,-187500.02235174447,-187500.02235174447
$SILENCE,2901.3234855322225,-8587.249647051054,6510.325552263922,12248.018353941245,-187500.02235174447,-187500.02235174447,-187500.02235174447,-187500.02235174447
$SILENCE,3095.224868682011,-8590.1777255747,6749.757438869172,12209.573353478117,-187500.02235174447,-187500.02235174447,-187500.02235174447,-187500.02235174447
$SILENCE,3266.841562609859,-8539.26045170551,7173.747679441891,12184.673510154906,-187500.02235174447,-187500.02235174447,-187500.02235174447,-187500.02235174447
$SILENCE,3119.3200492048322,-8537.248794704532,7013.776244375258,12216.36828379253,-187500.02235174447,-187500.02235174447,-187500.02235174447,-187500.02235174447
$SILENCE,2895.2661627848343,-8581.952283615146,6550.938671939215,12248.420685341442,-187500.02235174447,-187500.02235174447,-187500.02235174447,-187500.02235174447
$SILENCE,3031.0977138397357,-8599.476051268108,6657.400030779842,12216.234173325798,-187500.02235174447,-187500.02235174447,-187500.02235174447,-187500.02235174447
$SILENCE,3267.467411454608,-8549.408143688219,7134.587423156193,12179.823181608102,-187500.02235174447,-187500.02235174447,-187500.02235174447,-187500.02235174447
$SILENCE,3163.621206715251,-8532.68903883565,7081.278512630286,12204.074824342111,-187500.02235174447,-187500.02235174447,-187500.02235174447,-187500.02235174447
$SILENCE,2921.8200351977393,-8572.564550943918,6621.816053606994,12244.218557383843,-187500.02235174447,-187500.02235174447,-187500.02235174447,-187500.02235174447
$SILENCE,2984.0919952502245,-8598.224353578611,6585.561524100486,12222.671475728926,-187500.02235174447,-187500.02235174447,-187500.02235174447,-187500.02235174447
$SILENCE,3242.1875884756555,-8551.442152433652,7076.852867228135,12181.566617675617,-187500.02235174447,-187500.02235174447,-187500.02235174447,-187500.02235174447
$SILENCE,3192.901991951703,-8526.944640510636,7130.31823996523,12199.760937662237,-187500.02235174447,-187500.02235174447,-187500.02235174447,-187500.02235174447
$SILENCE,2945.982270953926,-8560.941643827158,6690.413557340331,12237.937717191902,-187500.02235174447,-187500.02235174447,-187500.02235174447,-187500.02235174447
$SILENCE,2940.9978319403926,-8600.213658835133,6525.323572793433,12232.550946778172,-187500.02235174447,-187500.02235174447,-187500.02235174447,-187500.02235174447
$SILENCE,3213.8008730174156,-8560.204036260133,7003.092110525622,12188.36154799003,-187500.02235174447,-187500.02235174447,-187500.02235174447,-187500.02235174447
$SILENCE,3229.692963325139,-8526.005867243513,7166.840990405201,12192.31780675862,-187500.02235174447,-187500.02235174447,-187500.02235174447,-187500.02235174447
$SILENCE,2995.826661089261,-8553.140885012255,6782.323930540554,12235.61313576855,-187500.02235174447,-187500.02235174447,-187500.02235174447,-187500.02235174447
$SILENCE,2914.95804964996,-8595.408033777241,6508.157433051758,12242.408066082962,-187500.02235174447,-187500.02235174447,-187500.02235174447,-187500.02235174447
$SILENCE,3179.9603319120806,-8572.318681754909,6926.604440999561,12193.837725381582,-187500.02235174447,-187500.02235174447,-187500.02235174447,-187500.02235174447
$SILENCE,3248.781353089971,-8528.77748355597,7190.265618594363,12188.607417179039,-187500.02235174447,-187500.02235174447,-187500.02235174447,-187500.02235174447
$SILENCE,3030.136588828157,-8540.73566683956,6871.283873472676,12231.075731644123,-187500.02235174447,-187500.02235174447,-187500.02235174447,-187500.02235174447
$SILENCE,2889.47706097091,-8587.27199879551,6503.7764911385175,12246.006696940267,-187500.02235174447,-187500.02235174447,-187500.02235174447,-187500.02235174447
$SILENCE,3131.077066788324,-8579.091260324867,6826.982715962257,12200.65500744045,-187500.02235174447,-187500.02235174447,-187500.02235174447,-187500.02235174447
$SILENCE,3268.9649783331133,-8530.476216134575,7187.404595304084,12182.393632220464,-187500.02235174447,-187500.02235174447,-187500.02235174447,-187500.02235174447
$SILENCE,3078.595170807263,-8538.366381927299,6944.999926686279,12214.669551213927,-187500.02235174447,-187500.02235174447,-187500.02235174447,-187500.02235174447
$SILENCE,2879.977569577404,-8581.639359192772,6516.628744200319,12247.772484752237,-187500.02235174447,-187500.02235174447,-187500.02235174447,-187500.02235174447
$SILENCE,3067.240484623967,-8580.253551036543,6737.016944529646,12211.808527923647,-187500.02235174447,-187500.02235174447,-187500.02235174447,-187500.02235174447
$SILENCE,3259.9572253176243,-8530.11858822329,7173.479458508427,12185.634635166483,-187500.02235174447,-187500.02235174447,-187500.02235174447,-187500.02235174447
$SILENCE,3113.441540413087,-8523.703637564617,7028.707209671404,12214.267219813732,-187500.02235174447,-187500.02235174447,-187500.02235174447,-187500.02235174447
$SILENCE,2890.5275929603094,-8571.379908487786,6575.011500717581,12250.141769664498,-187500.02235174447,-187500.02235174447,-187500.02235174447,-187500.02235174447
$SILENCE,3017.753722399917,-8590.244780808065,6648.481684742175,12220.525708261217,-187500.02235174447,-187500.02235174447,-187500.02235174447,-187500.02235174447
$SILENCE,3250.2789199684767,-8541.853254062326,7120.3493619381625,12177.40919320693,-187500.02235174447,-187500.02235174447,-187500.02235174447,-187500.02235174447
$SILENCE,3154.3452327662985,-8527.16815795519,7081.144402163554,12197.257542283243,-187500.02235174447,-187500.02235174447,-187500.02235174447,-187500.02235174447
$SILENCE,2908.3866367800997,-8562.618024661306,6628.722742643684,12241.111664904556,-187500.02235174447,-187500.02235174447,-187500.02235174447,-187500.02235174447
$SILENCE,2962.9025415065935,-8590.93768488618,6577.961930985682,12222.738530962293,-187500.02235174447,-187500.02235174447,-187500.02235174447,-187500.02235174447
$SILENCE,3232.4645796375967,-8549.36344019931,7071.108468903121,12180.31491998612,-187500.02235174447,-187500.02235174447,-187500.02235174447,-187500.02235174447
$SILENCE,3195.6959600086166,-8522.943678253136,7142.5893476711935,12195.111774815534,-187500.02235174447,-187500.02235174447,-187500.02235174447,-187500.02235174447
$SILENCE,2952.084297190225,-8555.040783290957,6709.300781405066,12235.367266579542,-187500.02235174447,-187500.02235174447,-187500.02235174447,-187500.02235174447
$SILENCE,2927.9667649229486,-8591.921161642214,6530.799750184983,12233.243850856286,-187500.02235174447,-187500.02235174447,-187500.02235174447,-187500.02235174447
$SILENCE,3197.3276373538542,-8559.421725204198,7000.09697676861,12184.449992710352,-187500.02235174447,-187500.02235174447,-187500.02235174447,-187500.02235174447
$SILENCE,3214.5831840733513,-8523.390713142242,7174.060603864265,12184.69586189936,-187500.02235174447,-187500.02235174447,-187500.02235174447,-187500.02235174447
$SILENCE,2982.594428371719,-8544.937794797159,6791.48814576723,12221.41977803943,-187500.02235174447,-187500.02235174447,-187500.02235174447,-187500.02235174447
$SILENCE,2894.215630795435,-8588.926027885202,6501.653075415263,12230.248717099275,-187500.02235174447,-187500.02235174447,-187500.02235174447,-187500.02235174447
$SILENCE,3152.333575765321,-8570.307024753933,6912.120510592522,12183.064184554123,-187500.02235174447,-187500.02235174447,-187500.02235174447,-187500.02235174447
$SILENCE,3239.2818616964655,-8527.928117266669,7194.75831922988,12176.112792028522,-187500.02235174447,-187500.02235174447,-187500.02235174447,-187500.02235174447
$SILENCE,3029.6224987056853,-8542.25558546252,6881.185696266377,12214.55779249165,-187500.02235174447,-187500.02235174447,-187500.02235174447,-187500.02235174447
$SILENCE,2879.932866088494,-8588.858972651837,6501.496613204076,12231.098083388577,-187500.02235174447,-187500.02235174447,-187500.02235174447,-187500.02235174447
$SILENCE,3119.968249794036,-8582.533428970984,6813.303448355609,12182.572446176106,-187500.02235174447,-187500.02235174447,-187500.02235174447,-187500.02235174447
$SILENCE,3278.6879871711717,-8536.667649348694,7193.32780758474,12163.126428499989,-187500.02235174447,-187500.02235174447,-187500.02235174447,-187500.02235174447
$SILENCE,3112.2345462125,-8541.40621917322,6963.171894928443,12197.302245772153,-187500.02235174447,-187500.02235174447,-187500.02235174447,-187500.02235174447
$SILENCE,2922.311773575756,-8586.288522039476,6529.257479817567,12226.47127228633,-187500.02235174447,-187500.02235174447,-187500.02235174447,-187500.02235174447
$SILENCE,3089.2793046569,-8590.26713255252,6729.28324094811,12188.383899734486,-187500.02235174447,-187500.02235174447,-187500.02235174447,-187500.02235174447
$SILENCE,3282.9571703621355,-8539.50632089452,7165.857513649168,12156.242091207754,-187500.02235174447,-187500.02235174447,-187500.02235174447,-187500.02235174447
$SILENCE,3152.6465001876954,-8533.270184191488,7036.48561674185,12189.836763124082,-187500.02235174447,-187500.02235174447,-187500.02235174447,-187500.02235174447
$SILENCE,2920.3895235525997,-8575.760850401026,6585.717986311673,12232.66270550045,-187500.02235174447,-187500.02235174447,-187500.02235174447,-187500.02235174447
$SILENCE,3037.4456092650425,-8593.284618053987,6653.622585966896,12212.546135490673,-187500.02235174447,-187500.02235174447,-187500.02235174447,-187500.02235174447
$SILENCE,3268.2944259994542,-8544.35664944132,7142.678754649014,12166.658004123927,-187500.02235174447,-187500.02235174447,-187500.02235174447,-187500.02235174447
$SILENCE,3169.72323295155,-8522.183718941656,7115.946068280467,12188.875638112502,-187500.02235174447,-187500.02235174447,-187500.02235174447,-187500.02235174447
$SILENCE,2935.1640266375575,-8564.048536306445,6647.654670197328,12233.84734795658,-187500.02235174447,-187500.02235174447,-187500.02235174447,-187500.02235174447
$SILENCE,2984.695492350518,-8591.205905819645,6606.1474807438235,12222.626772240017,-187500.02235174447,-187500.02235174447,-187500.02235174447,-187500.02235174447
$SILENCE,3235.7502860725267,-8553.274995478987,7058.367974563596,12175.88927458397,-187500.02235174447,-187500.02235174447,-187500.02235174447,-187500.02235174447
$SILENCE,3222.4733498660744,-8521.513166607996,7161.744792669391,12183.354757232042,-187500.02235174447,-187500.02235174447,-187500.02235174447,-187500.02235174447
$SILENCE,2966.0988409637025,-8553.923196068192,6711.625362828418,12228.482929287307,-187500.02235174447,-187500.02235174447,-187500.02235174447,-187500.02235174447
$SILENCE,2960.5109048498757,-8593.530487242995,6555.744296997106,12229.533461276706,-187500.02235174447,-187500.02235174447,-187500.02235174447,-187500.02235174447
$SILENCE,3222.898033010725,-8567.490704952563,6989.971636530357,12182.79596362066,-187500.02235174447,-187500.02235174447,-187500.02235174447,-187500.02235174447
$SILENCE,3258.9290450726803,-8529.78331205646,7194.04306340731,12183.868847354513,-187500.02235174447,-187500.02235174447,-187500.02235174447,-187500.02235174447
$SILENCE,3020.8606148792046,-8553.744382112549,6796.561991758585,12231.835690955602,-187500.02235174447,-187500.02235174447,-187500.02235174447,-187500.02235174447
$SILENCE,2934.8063987262726,-8597.84437392287,6506.90573536226,12240.597574782083,-187500.02235174447,-187500.02235174447,-187500.02235174447,-187500.02235174447
$SILENCE,3198.8922594657256,-8578.755984158039,6907.538402979184,12188.942693345869,-187500.02235174447,-187500.02235174447,-187500.02235174447,-187500.02235174447
não,3283.426556995697,-8534.477178392075,7199.787461732324,12178.616187407517,-187500.02235174447,-187500.02235174447,-187500.02235174447,-187500.02235174447
não,3074.393042849665,-8546.234195975567,6899.089443575078,12218.357589049052,-187500.02235174447,-187500.02235174447,-187500.02235174447,-187500.02235174447
não,2921.0377241418037,-8587.629626706796,6517.0981308338805,12245.55966205116,-187500.02235174447,-187500.02235174447,-187500.02235174447,-187500.02235174447
não,3148.4890757190083,-8578.241894035566,6831.095436942034,12208.947504633368,-187500.02235174447,-187500.02235174447,-187500.02235174447,-187500.02235174447
não,3305.644190984272,-8534.097198736334,7214.785482261835,12184.293530499164,-187500.02235174447,-187500.02235174447,-187500.02235174447,-187500.02235174447
não,3141.403572726676,-8541.629736617773,6981.612084104072,12212.344969790574,-187500.02235174447,-187500.02235174447,-187500.02235174447,-187500.02235174447
não,2940.595500540197,-8587.27199879551,6550.0893056499135,12249.001830697278,-187500.02235174447,-187500.02235174447,-187500.02235174447,-187500.02235174447
não,3111.0499037563686,-8594.60337097685,6731.47371190473,12219.27401057172,-187500.02235174447,-187500.02235174447,-187500.02235174447,-187500.02235174447
não,3307.968772407624,-8543.149655240733,7174.306473053274,12187.154553789444,-187500.02235174447,-187500.02235174447,-187500.02235174447,-187500.02235174447
não,3179.8262214453484,-8532.68903883565,7059.150285619532,12215.250696569765,-187500.02235174447,-187500.02235174447,-187500.02235174447,-187500.02235174447
não,2958.789820526817,-8573.79389688896,6598.659646351296,12254.94739472239,-187500.02235174447,-187500.02235174447,-187500.02235174447,-187500.02235174447
não,3064.692385756062,-8594.715129699127,6647.319394030499,12225.711312974849,-187500.02235174447,-187500.02235174447,-187500.02235174447,-187500.02235174447
não,3305.554784006451,-8546.748286098038,7133.469835933428,12187.109850300534,-187500.02235174447,-187500.02235174447,-187500.02235174447,-187500.02235174447
não,3232.978669760069,-8528.017524244491,7125.244393973875,12210.400368022963,-187500.02235174447,-187500.02235174447,-187500.02235174447,-187500.02235174447
não,2992.1833267430457,-8568.429478219687,6685.764394493627,12251.594633054094,-187500.02235174447,-187500.02235174447,-187500.02235174447,-187500.02235174447
não,3026.0015161039255,-8598.649036723262,6599.8666405518825,12236.551909035672,-187500.02235174447,-187500.02235174447,-187500.02235174447,-187500.02235174447
não,3294.490670501074,-8557.052440291935,7068.135686890565,12189.210914279332,-187500.02235174447,-187500.02235174447,-187500.02235174447,-187500.02235174447
não,3273.345920246353,-8529.40333240072,7160.56015021326,12198.978626606302,-187500.02235174447,-187500.02235174447,-187500.02235174447,-187500.02235174447
não,3038.943176143548,-8558.795876359449,6759.301633751587,12246.543138807196,-187500.02235174447,-187500.02235174447,-187500.02235174447,-187500.02235174447
não,2988.6741028635624,-8598.202001834155,6543.62965150233,12243.726819005826,-187500.02235174447,-187500.02235174447,-187500.02235174447,-187500.02235174447
não,3267.3556527323312,-8581.75111791505,7002.712130869882,12191.043757324667,-187500.02235174447,-187500.02235174447,-187500.02235174447,-187500.02235174447
não,3329.225281384621,-8538.1652162272,7248.447209411527,12200.051510340156,-187500.02235174447,-187500.02235174447,-187500.02235174447,-187500.02235174447
não,3083.177278420601,-8559.287614737465,6846.629899338473,12240.821092226637,-187500.02235174447,-187500.02235174447,-187500.02235174447,-187500.02235174447
não,2982.6391318606297,-8600.146603601766,6532.118503107847,12242.966859694347,-187500.02235174447,-187500.02235174447,-187500.02235174447,-187500.02235174447
não,3219.232346920055,-8590.334187785887,6888.4276614698965,12201.41496675193,-187500.02235174447,-187500.02235174447,-187500.02235174447,-187500.02235174447
não,3325.067856915934,-8568.831809619882,7204.503679812394,12175.93397807288,-187500.02235174447,-187500.02235174447,-187500.02235174447,-187500.02235174447
não,3145.918625106648,-8557.477123436585,6941.691868506893,12218.871679171525,-187500.02235174447,-187500.02235174447,-187500.02235174447,-187500.02235174447
não,2987.4224051740653,-8574.486800967074,6542.534416024019,12254.254490644276,-187500.02235174447,-187500.02235174447,-187500.02235174447,-187500.02235174447
não,3199.518108310474,-8585.260341794532,6839.1197132014895,12206.354702276552,-187500.02235174447,-187500.02235174447,-187500.02235174447,-187500.02235174447
não,3330.320516862931,-8573.950359100147,7179.2238568334415,12159.684259853871,-187500.02235174447,-187500.02235174447,-187500.02235174447,-187500.02235174447
não,3192.1420326402226,-8562.640376405761,7002.533316914239,12209.573353478117,-187500.02235174447,-187500.02235174447,-187500.02235174447,-187500.02235174447
não,2997.7042076235066,-8612.998856663567,6581.627617076352,12236.954240435869,-187500.02235174447,-187500.02235174447,-187500.02235174447,-187500.02235174447
não,3173.9924161425133,-8606.025112393512,6750.070363291546,12211.964990134835,-187500.02235174447,-187500.02235174447,-187500.02235174447,-187500.02235174447
não,3375.7839650850256,-8552.31387046741,7211.611534549182,12176.291605984165,-187500.02235174447,-187500.02235174447,-187500.02235174447,-187500.02235174447
não,3223.7697510444823,-8579.091260324867,7074.081250915677,12173.788210605171,-187500.02235174447,-187500.02235174447,-187500.02235174447,-187500.02235174447
não,3013.0598560643025,-8611.993028163079,6637.641088681351,12218.245830326776,-187500.02235174447,-187500.02235174447,-187500.02235174447,-187500.02235174447
não,3144.6445756726953,-8606.89683042727,6687.127850905401,12222.671475728926,-187500.02235174447,-187500.02235174447,-187500.02235174447,-187500.02235174447
não,3350.0347554725117,-8591.764699431027,7099.517536105816,12148.64249809295,-187500.02235174447,-187500.02235174447,-187500.02235174447,-187500.02235174447
não,3247.686117611661,-8602.873516425314,7089.302788889741,12142.78634104566,-187500.02235174447,-187500.02235174447,-187500.02235174447,-187500.02235174447
não,3033.891681896649,-8620.419635822731,6693.766319008627,12211.786176179192,-187500.02235174447,-187500.02235174447,-187500.02235174447,-187500.02235174447
não,3062.4572113105314,-8643.33017388942,6582.611093832385,12208.969856377824,-187500.02235174447,-187500.02235174447,-187500.02235174447,-187500.02235174447
não,3324.777284238015,-8610.361350817842,7057.630366996571,12144.842701535548,-187500.02235174447,-187500.02235174447,-187500.02235174447,-187500.02235174447
não,3320.3963423247747,-8578.93479811368,7191.383205817128,12153.336364428564,-187500.02235174447,-187500.02235174447,-187500.02235174447,-187500.02235174447
não,3085.121880188213,-8612.618877007828,6769.29286352311,12189.926170101902,-187500.02235174447,-187500.02235174447,-187500.02235174447,-187500.02235174447
não,3012.9704490864815,-8677.215418483665,6513.499499976576,12171.754201859738,-187500.02235174447,-187500.02235174447,-187500.02235174447,-187500.02235174447
não,3290.2438390545653,-8645.341830890398,6980.0474619922,12127.765968771693,-187500.02235174447,-187500.02235174447,-187500.02235174447,-187500.02235174447
não,3337.227205899621,-8606.963885660636,7210.404540348594,12119.92050646788,-187500.02235174447,-187500.02235174447,-187500.02235174447,-187500.02235174447
não,3117.8895375596926,-8621.559574789952,6854.408306408919,12163.238187222265,-187500.02235174447,-187500.02235174447,-187500.02235174447,-187500.02235174447
não,3002.8451088482275,-8669.437011413218,6522.864880903349,12175.1740187614,-187500.02235174447,-187500.02235174447,-187500.02235174447,-187500.02235174447
não,3250.8600653243143,-8654.99778449509,6892.965065594324,12128.63768680545,-187500.02235174447,-187500.02235174447,-187500.02235174447,-187500.02235174447
não,3357.991976498601,-8612.350656074364,7214.159633417086,12116.388930843941,-187500.02235174447,-187500.02235174447,-187500.02235174447,-187500.02235174447
não,3162.8388956593153,-8624.577060291418,6943.748228996781,12157.382030174975,-187500.02235174447,-187500.02235174447,-187500.02235174447,-187500.02235174447
não,2992.026864531859,-8671.292206203008,6542.780285213028,12178.370318218509,-187500.02235174447,-187500.02235174447,-187500.02235174447,-187500.02235174447
não,3201.77563450046,-8671.113392247367,6812.454082066308,12132.526890340674,-187500.02235174447,-187500.02235174447,-187500.02235174447,-187500.02235174447
não,3383.025930288545,-8623.437121324198,7238.120703473175,12108.2081923733,-187500.02235174447,-187500.02235174447,-187500.02235174447,-187500.02235174447
não,3205.7318932690496,-8624.308839357953,7024.840357880636,12149.424809148886,-187500.02235174447,-187500.02235174447,-187500.02235174447,-187500.02235174447
não,2986.3942249291213,-8671.225150969643,6559.2982243655,12184.69586189936,-187500.02235174447,-187500.02235174447,-187500.02235174447,-187500.02235174447
não,3146.745639651494,-8680.076441773945,6712.362970395443,12151.659983594416,-187500.02235174447,-187500.02235174447,-187500.02235174447,-187500.02235174447
não,3368.318482436953,-8632.89190922879,7178.933284155522,12117.685332022349,-187500.02235174447,-187500.02235174447,-187500.02235174447,-187500.02235174447
não,3250.234216479566,-8622.923031201724,7092.566143580216,12143.389838145953,-187500.02235174447,-187500.02235174447,-187500.02235174447,-187500.02235174447
não,3012.523414197375,-8662.686784587715,6637.417571236798,12183.60062642105,-187500.02235174447,-187500.02235174447,-187500.02235174447,-187500.02235174447
não,3096.878897771704,-8686.893723832813,6646.760600419117,12160.64538486545,-187500.02235174447,-187500.02235174447,-187500.02235174447,-187500.02235174447
não,3346.5255315930285,-8644.358354134363,7132.486359177395,12124.837890248047,-187500.02235174447,-187500.02235174447,-187500.02235174447,-187500.02235174447
não,3278.7326906600824,-8623.258307368555,7151.910025109056,12141.825216034082,-187500.02235174447,-187500.02235174447,-187500.02235174447,-187500.02235174447
não,3035.590414475252,-8652.270871671542,6712.698246562272,12176.69393738436,-187500.02235174447,-187500.02235174447,-187500.02235174447,-187500.02235174447
não,3055.818743207305,-8683.228037742143,6595.262181194089,12182.036004309179,-187500.02235174447,-187500.02235174447,-187500.02235174447,-187500.02235174447
não,3325.8948714607805,-8648.538130347506,7076.763460250314,12136.036114220156,-187500.02235174447,-187500.02235174447,-187500.02235174447,-187500.02235174447
não,3318.6305545128057,-8618.296220099475,7214.740778772924,12136.0137624757,-187500.02235174447,-187500.02235174447,-187500.02235174447,-187500.02235174447
não,3070.4144323366204,-8646.548825090984,6798.216020848277,12175.330480972587,-187500.02235174447,-187500.02235174447,-187500.02235174447,-187500.02235174447
não,2998.1288907681574,-8689.330063978441,6534.040753131003,12175.21872225031,-187500.02235174447,-187500.02235174447,-187500.02235174447,-187500.02235174447
não,3279.7385191605713,-8661.278624687031,6975.8900375235135,12130.604640317517,-187500.02235174447,-187500.02235174447,-187500.02235174447,-187500.02235174447
não,3356.7849822980147,-8615.65871425375,7233.76211330439,12136.058465964612,-187500.02235174447,-187500.02235174447,-187500.02235174447,-187500.02235174447
não,3132.9322615781143,-8631.550804561473,6894.909667361935,12181.723079886804,-187500.02235174447,-187500.02235174447,-187500.02235174447,-187500.02235174447
não,2998.441815190532,-8674.756726593581,6550.446933561198,12193.45774572584,-187500.02235174447,-187500.02235174447,-187500.02235174447,-187500.02235174447
não,3223.6579923222057,-8671.493371903107,6883.689091645371,12124.480262336763,-187500.02235174447,-187500.02235174447,-187500.02235174447,-187500.02235174447
não,3341.4740373461295,-8624.71117075815,7218.205299163497,12111.136270896945,-187500.02235174447,-187500.02235174447,-187500.02235174447,-187500.02235174447
não,3178.4851167780303,-8619.65967651125,6991.424499919952,12208.500469744262,-187500.02235174447,-187500.02235174447,-187500.02235174447,-187500.02235174447
não,3000.2970099803224,-8666.218360211655,6592.8258410484605,12258.970708724346,-187500.02235174447,-187500.02235174447,-187500.02235174447,-187500.02235174447
não,3197.908782709692,-8664.787848566515,6829.709628785805,12166.367431446008,-187500.02235174447,-187500.02235174447,-187500.02235174447,-187500.02235174447
não,3378.7567470975814,-8606.673312982717,7234.119741215675,12128.011837960701,-187500.02235174447,-187500.02235174447,-187500.02235174447,-187500.02235174447
não,3206.4471490916194,-8618.810310221948,7045.672183712982,12149.715381826805,-187500.02235174447,-187500.02235174447,-187500.02235174447,-187500.02235174447
não,2981.990931271426,-8669.772287580048,6592.088233481435,12187.735699145282,-187500.02235174447,-187500.02235174447,-187500.02235174447,-187500.02235174447
não,3144.488113461508,-8675.42727892724,6729.327944437021,12184.472344454807,-187500.02235174447,-187500.02235174447,-187500.02235174447,-187500.02235174447
não,3377.326235452442,-8625.89581321428,7212.393845605117,12213.976647135813,-187500.02235174447,-187500.02235174447,-187500.02235174447,-187500.02235174447
não,3267.3333009878756,-8613.647057252772,7141.807036615257,12191.200219535855,-187500.02235174447,-187500.02235174447,-187500.02235174447,-187500.02235174447
não,3037.6691267095957,-8651.555615848973,6691.821717241016,12170.323690214598,-187500.02235174447,-187500.02235174447,-187500.02235174447,-187500.02235174447
não,3083.400795865154,-8682.24456098611,6657.8023621800385,12148.486035881762,-187500.02235174447,-187500.02235174447,-187500.02235174447,-187500.02235174447
não,3334.187368653699,-8634.56829006294,7121.779873583302,12136.460797364807,-187500.02235174447,-187500.02235174447,-187500.02235174447,-187500.02235174447
não,3275.4469842251524,-8607.545031016472,7157.587368200704,12145.088570724556,-187500.02235174447,-187500.02235174447,-187500.02235174447,-187500.02235174447
não,3018.8489578782273,-8651.667374571249,6713.3911506403865,12214.55779249165,-187500.02235174447,-187500.02235174447,-187500.02235174447,-187500.02235174447
não,3033.6458127076403,-8682.445726686206,6590.7694805585725,12240.441112570896,-187500.02235174447,-187500.02235174447,-187500.02235174447,-187500.02235174447
não,3322.3632958368416,-8645.364182634852,7069.610902024616,12138.137178198956,-187500.02235174447,-187500.02235174447,-187500.02235174447,-187500.02235174447
não,3337.89775823328,-8605.756891460049,7225.983706233944,12148.150759714934,-187500.02235174447,-187500.02235174447,-187500.02235174447,-187500.02235174447
não,3085.4795080994977,-8631.550804561473,6822.490015326741,12198.777460906203,-187500.02235174447,-187500.02235174447,-187500.02235174447,-187500.02235174447
não,3001.8616320921938,-8677.930674306235,6553.643233018307,12210.825051167614,-187500.02235174447,-187500.02235174447,-187500.02235174447,-187500.02235174447
não,3267.512114943518,-8653.053182727479,6977.499363124295,12164.892216311959,-187500.02235174447,-187500.02235174447,-187500.02235174447,-187500.02235174447
não,3311.1427201202778,-8614.60818226435,7209.421063592561,12149.983602760269,-187500.02235174447,-187500.02235174447,-187500.02235174447,-187500.02235174447
não,3074.348339360755,-8635.887042985803,6871.261521728221,12227.052417642168,-187500.02235174447,-187500.02235174447,-187500.02235174447,-187500.02235174447
não,2972.536143366831,-8664.541979377505,6554.447895818698,12257.584900568118,-187500.02235174447,-187500.02235174447,-187500.02235174447,-187500.02235174447
não,3220.528748098463,-8652.963775749657,6898.932981363891,12177.699765884849,-187500.02235174447,-187500.02235174447,-187500.02235174447,-187500.02235174447
não,3324.464359815641,-8608.684969983695,7227.615383579181,12155.728001085283,-187500.02235174447,-187500.02235174447,-187500.02235174447,-187500.02235174447
não,3134.4074767121647,-8616.619839265328,6980.829773048136,12213.596667480073,-187500.02235174447,-187500.02235174447,-187500.02235174447,-187500.02235174447
não,2940.2602243733677,-8659.490485130607,6555.744296997106,12240.776388737726,-187500.02235174447,-187500.02235174447,-187500.02235174447,-187500.02235174447
não,3122.493996917486,-8661.658604342772,6778.121802582956,12190.931998602391,-187500.02235174447,-187500.02235174447,-187500.02235174447,-187500.02235174447
não,3289.193307065166,-8613.915278186236,7192.299627339796,12155.906815040924,-187500.02235174447,-187500.02235174447,-187500.02235174447,-187500.02235174447
não,3126.80788359736,-8614.362313075342,7030.763570161292,12186.282835755686,-187500.02235174447,-187500.02235174447,-187500.02235174447,-187500.02235174447
não,2902.441072754988,-8659.848113041891,6577.313730396478,12214.691902958382,-187500.02235174447,-187500.02235174447,-187500.02235174447,-187500.02235174447
não,3040.6866122110623,-8671.739241092115,6686.680816016295,12190.060280568634,-187500.02235174447,-187500.02235174447,-187500.02235174447,-187500.02235174447
não,3266.2827689984765,-8617.871536954824,7156.089801322199,12166.523893657195,-187500.02235174447,-187500.02235174447,-187500.02235174447,-187500.02235174447
não,3162.011881114469,-8605.041635637479,7100.83628902868,12190.239094524277,-187500.02235174447,-187500.02235174447,-187500.02235174447,-187500.02235174447
não,2912.1640815930464,-8643.352525633874,6639.876263126882,12219.855155927558,-187500.02235174447,-187500.02235174447,-187500.02235174447,-187500.02235174447
não,2968.0434427313144,-8672.588607381416,6603.509974898097,12196.98932134978,-187500.02235174447,-187500.02235174447,-187500.02235174447,-187500.02235174447
não,3218.5394428419404,-8634.322420873932,7093.750786036348,12147.860187037015,-187500.02235174447,-187500.02235174447,-187500.02235174447,-187500.02235174447
não,3160.62607295824,-8607.70149322766,7142.924623838023,12158.54432088665,-187500.02235174447,-187500.02235174447,-187500.02235174447,-187500.02235174447
não,2913.795758938284,-8634.300069129476,6708.406711626853,12207.248772054765,-187500.02235174447,-187500.02235174447,-187500.02235174447,-187500.02235174447
não,2898.57422096422,-8669.258197457577,6546.781247470528,12205.035949353689,-187500.02235174447,-187500.02235174447,-187500.02235174447,-187500.02235174447
não,3155.239302544511,-8635.976449963624,7010.758758873792,12153.112846984011,-187500.02235174447,-187500.02235174447,-187500.02235174447,-187500.02235174447
não,3159.396727013198,-8603.052330380957,7169.634958462115,12157.78436157517,-187500.02235174447,-187500.02235174447,-187500.02235174447,-187500.02235174447
não,2911.7393984483956,-8644.492464601095,6770.298692023599,12183.131239787488,-187500.02235174447,-187500.02235174447,-187500.02235174447,-187500.02235174447
não,2829.0379439637595,-8666.821857311948,6498.121499791325,12199.380958006497,-187500.02235174447,-187500.02235174447,-187500.02235174447,-187500.02235174447
não,3103.1597379636455,-8631.461397583651,6934.9192899369355,12160.466570909808,-187500.02235174447,-187500.02235174447,-187500.02235174447,-187500.02235174447
não,3166.214009072067,-8595.765661688527,7195.987665174922,12145.468550380296,-187500.02235174447,-187500.02235174447,-187500.02235174447,-187500.02235174447
não,2937.667422016552,-8610.540164773485,6862.521989646196,12179.130277529988,-187500.02235174447,-187500.02235174447,-187500.02235174447,-187500.02235174447
não,2797.9466674264277,-8656.562406606961,6501.42955797071,12211.1826790789,-187500.02235174447,-187500.02235174447,-187500.02235174447,-187500.02235174447
não,3036.819760420294,-8646.146493690789,6833.241204409744,12171.821257093103,-187500.02235174447,-187500.02235174447,-187500.02235174447,-187500.02235174447
não,3163.5765032263403,-8599.811327434936,7186.935208670522,12151.570576616596,-187500.02235174447,-187500.02235174447,-187500.02235174447,-187500.02235174447
não,2976.5371056243307,-8604.482842026096,6944.1952638858875,12189.188562534877,-187500.02235174447,-187500.02235174447,-187500.02235174447,-187500.02235174447
não,2781.540486996232,-8644.894796001292,6518.752159923573,12225.688961230393,-187500.02235174447,-187500.02235174447,-187500.02235174447,-187500.02235174447
não,2971.820887544261,-8652.449685627185,6744.504778922174,12186.931036344891,-187500.02235174447,-187500.02235174447,-187500.02235174447,-187500.02235174447
não,3168.6503492176953,-8603.499365270063,7179.581484744726,12163.461704666819,-187500.02235174447,-187500.02235174447,-187500.02235174447,-187500.02235174447
não,3019.02777183387,-8598.649036723262,7021.48759621234,12190.060280568634,-187500.02235174447,-187500.02235174447,-187500.02235174447,-187500.02235174447
não,2790.9729231563715,-8636.80346450847,6559.253520876589,12224.683132729904,-187500.02235174447,-187500.02235174447,-187500.02235174447,-187500.02235174447
não,2916.634430484108,-8650.169807692744,6642.379658505876,12198.93392311739,-187500.02235174447,-187500.02235174447,-187500.02235174447,-187500.02235174447
não,3147.8632268742595,-8603.298199569965,7119.7011613489585,12162.053544766135,-187500.02235174447,-187500.02235174447,-187500.02235174447,-187500.02235174447
não,3050.0296413933806,-8585.729728428094,7081.636140541571,12183.734736887782,-187500.02235174447,-187500.02235174447,-187500.02235174447,-187500.02235174447
não,2811.7600454998073,-8623.99591493558,6638.110475314913,12223.90082167397,-187500.02235174447,-187500.02235174447,-187500.02235174447,-187500.02235174447
não,2864.1748862475024,-8649.834531525914,6577.671358307763,12209.662760455938,-187500.02235174447,-187500.02235174447,-187500.02235174447,-187500.02235174447
não,3124.3938951961873,-8610.763682218038,7059.7090792309145,12166.903873312936,-187500.02235174447,-187500.02235174447,-187500.02235174447,-187500.02235174447
não,3089.145194190168,-8591.429423264197,7133.402780700062,12181.83483860908,-187500.02235174447,-187500.02235174447,-187500.02235174447,-187500.02235174447
não,2848.7521825733406,-8613.043560152479,6707.333827892999,12232.863871200547,-187500.02235174447,-187500.02235174447,-187500.02235174447,-187500.02235174447
não,2824.0088014613157,-8645.006554723568,6520.04856110198,12226.761844964249,-187500.02235174447,-187500.02235174447,-187500.02235174447,-187500.02235174447
não,3096.18599369359,-8610.89779268477,6990.217505719364,12182.952425831847,-187500.02235174447,-187500.02235174447,-187500.02235174447,-187500.02235174447
não,3115.2520317139665,-8579.560646958429,7170.305510795773,12183.533571187685,-187500.02235174447,-187500.02235174447,-187500.02235174447,-187500.02235174447
não,2881.8774678561053,-8602.22531583611,6787.308369554087,12219.788100694192,-187500.02235174447,-187500.02235174447,-187500.02235174447,-187500.02235174447
não,2796.627914503564,-8643.911319245259,6499.529659692009,12239.792911981693,-187500.02235174447,-187500.02235174447,-187500.02235174447,-187500.02235174447
não,3059.2385601089672,-8621.51487130104,6907.516051234728,12193.994187592769,-187500.02235174447,-187500.02235174447,-187500.02235174447,-187500.02235174447
não,3140.6659651596506,-8583.539257471473,7184.454165035983,12179.59966416355,-187500.02235174447,-187500.02235174447,-187500.02235174447,-187500.02235174447
não,2930.8724917021386,-8597.08441461139,6870.926245561391,12214.021350624724,-187500.02235174447,-187500.02235174447,-187500.02235174447,-187500.02235174447
não,2782.2110393298913,-8643.33017388942,6495.260476501046,12237.55773753616,-187500.02235174447,-187500.02235174447,-187500.02235174447,-187500.02235174447
não,3019.2512892784225,-8630.410865594253,6813.884593711447,12197.995149850269,-187500.02235174447,-187500.02235174447,-187500.02235174447,-187500.02235174447
não,3162.4812677480304,-8583.561609215929,7188.119851126654,12182.17011477591,-187500.02235174447,-187500.02235174447,-187500.02235174447,-187500.02235174447
não,2980.538067881831,-8585.886190639281,6962.836618761614,12217.977609393312,-187500.02235174447,-187500.02235174447,-187500.02235174447,-187500.02235174447
não,2777.36071078309,-8630.433217338708,6526.888194905305,12252.153426665476,-187500.02235174447,-187500.02235174447,-187500.02235174447,-187500.02235174447
não,2956.9793292259374,-8638.546900575984,6719.403769898864,12212.948466890868,-187500.02235174447,-187500.02235174447,-187500.02235174447,-187500.02235174447
não,3158.8826368907257,-8589.350711029854,7161.141295569098,12179.845533352558,-187500.02235174447,-187500.02235174447,-187500.02235174447,-187500.02235174447
não,3016.3902659881433,-8578.018376591013,7030.182424805454,12206.555867976651,-187500.02235174447,-187500.02235174447,-187500.02235174447,-187500.02235174447
não,2789.2965423222236,-8622.274830612521,6566.92016922476,12238.138882891999,-187500.02235174447,-187500.02235174447,-187500.02235174447,-187500.02235174447
não,2907.760787935351,-8643.777208778525,6633.014277579103,12211.1826790789,-187500.02235174447,-187500.02235174447,-187500.02235174447,-187500.02235174447
não,3147.9302821076253,-8596.74913844456,7120.572879382716,12175.732812372782,-187500.02235174447,-187500.02235174447,-187500.02235174447,-187500.02235174447
não,3063.910074700126,-8576.185533545677,7099.226963427897,12196.922266116413,-187500.02235174447,-187500.02235174447,-187500.02235174447,-187500.02235174447
não,2820.767798515296,-8614.764644475537,6643.653707939829,12238.60826952556,-187500.02235174447,-187500.02235174447,-187500.02235174447,-187500.02235174447
não,2866.2983019707567,-8643.061952955955,6572.977491972148,12229.399350809974,-187500.02235174447,-187500.02235174447,-187500.02235174447,-187500.02235174447
não,3124.6844678741063,-8602.828812936403,7051.058954126711,12178.035042051679,-187500.02235174447,-187500.02235174447,-187500.02235174447,-187500.02235174447
não,3088.653455812151,-8571.759888143526,7135.302678978763,12191.624902680505,-187500.02235174447,-187500.02235174447,-187500.02235174447,-187500.02235174447
não,2845.6452900940526,-8599.185478590189,6712.340618650987,12234.696714245882,-187500.02235174447,-187500.02235174447,-187500.02235174447,-187500.02235174447
não,2812.832929233662,-8634.94826971868,6511.130215064313,12233.065036900645,-187500.02235174447,-187500.02235174447,-187500.02235174447,-187500.02235174447
não,3083.8925342431708,-8608.46145253914,6970.235046176321,12184.584103177083,-187500.02235174447,-187500.02235174447,-187500.02235174447,-187500.02235174447
não,3115.1849764806007,-8576.900789368246,7163.354118270174,12179.89023684147,-187500.02235174447,-187500.02235174447,-187500.02235174447,-187500.02235174447
não,2886.5266307028096,-8590.580056974895,6795.511459769185,12227.722969975826,-187500.02235174447,-187500.02235174447,-187500.02235174447,-187500.02235174447
não,2788.9612661553942,-8629.874423727326,6492.8017846109615,12249.627679542027,-187500.02235174447,-187500.02235174447,-187500.02235174447,-187500.02235174447
não,3049.3590890597216,-8612.03773165199,6888.986455081279,12205.192411564876,-187500.02235174447,-187500.02235174447,-187500.02235174447,-187500.02235174447
não,3131.7923226108937,-8576.632568434783,7180.810830689768,12191.84842012506,-187500.02235174447,-187500.02235174447,-187500.02235174447,-187500.02235174447
não,2922.0659043867477,-8589.21660056312,6882.526800933695,12225.286629830198,-187500.02235174447,-187500.02235174447,-187500.02235174447,-187500.02235174447
não,2771.638664202531,-8620.017304422534,6496.7356916350955,12247.839539985604,-187500.02235174447,-187500.02235174447,-187500.02235174447,-187500.02235174447
não,2997.7042076235066,-8614.94345843118,6788.135384098934,12196.162306804932,-187500.02235174447,-187500.02235174447,-187500.02235174447,-187500.02235174447
não,3148.310261763366,-8565.143771784757,7170.193752073497,12170.100172770044,-187500.02235174447,-187500.02235174447,-187500.02235174447,-187500.02235174447
não,2969.92098926556,-8567.602463674839,6956.42166810294,12204.566562720129,-187500.02235174447,-187500.02235174447,-187500.02235174447,-187500.02235174447
não,2772.577437469654,-8617.17863287671,6520.517947735542,12242.296307360686,-187500.02235174447,-187500.02235174447,-187500.02235174447,-187500.02235174447
não,2947.368079110155,-8625.046446924978,6698.080205688501,12212.79200467968,-187500.02235174447,-187500.02235174447,-187500.02235174447,-187500.02235174447
não,3147.5503024518853,-8580.834696392381,7147.439676217995,12183.667681654417,-187500.02235174447,-187500.02235174447,-187500.02235174447,-187500.02235174447
não,3013.59629793123,-8570.038803820467,7035.546843474727,12212.054397112655,-187500.02235174447,-187500.02235174447,-187500.02235174447,-187500.02235174447
não,2774.83496365964,-8606.89683042727,6569.468268092664,12248.644202785994,-187500.02235174447,-187500.02235174447,-187500.02235174447,-187500.02235174447
não,2888.1359563035917,-8617.066874154434,6614.082350025457,12222.604420495561,-187500.02235174447,-187500.02235174447,-187500.02235174447,-187500.02235174447
não,3146.9244536071365,-8570.59759743185,7106.267762931319,12181.320748486609,-187500.02235174447,-187500.02235174447,-187500.02235174447,-187500.02235174447
não,3069.877990469693,-8557.41006820322,7098.377597138596,12199.537420217684,-187500.02235174447,-187500.02235174447,-187500.02235174447,-187500.02235174447
não,2824.947574728438,-8596.704434955649,6645.307737029521,12241.648106771483,-187500.02235174447,-187500.02235174447,-187500.02235174447,-187500.02235174447
não,2853.311938442223,-8629.025057438022,6549.932843438726,12232.908574689458,-187500.02235174447,-187500.02235174447,-187500.02235174447,-187500.02235174447
não,3116.2355084700002,-8592.32349304241,7030.271831783275,12189.009748579234,-187500.02235174447,-187500.02235174447,-187500.02235174447,-187500.02235174447
não,3089.078138956802,-8559.444076948652,7132.978097555411,12206.757033676748,-187500.02235174447,-187500.02235174447,-187500.02235174447,-187500.02235174447
não,2849.981528518382,-8580.74528941456,6719.694342576783,12250.745266764792,-187500.02235174447,-187500.02235174447,-187500.02235174447,-187500.02235174447
não,2816.163339157503,-8617.692722999183,6505.452871972665,12248.443037085895,-187500.02235174447,-187500.02235174447,-187500.02235174447,-187500.02235174447
não,3099.9857902509916,-8590.93768488618,6962.367232128052,12203.516030730729,-187500.02235174447,-187500.02235174447,-187500.02235174447,-187500.02235174447
não,3143.6387471722064,-8558.907635081725,7175.491115509405,12211.383844778997,-187500.02235174447,-187500.02235174447,-187500.02235174447,-187500.02235174447
não,2914.376904294122,-8579.851219636348,6813.169337888878,12255.95322322288,-187500.02235174447,-187500.02235174447,-187500.02235174447,-187500.02235174447
não,2804.31691459619,-8610.473109540118,6486.230371741101,12263.910444248968,-187500.02235174447,-187500.02235174447,-187500.02235174447,-187500.02235174447
$SILENCE,3061.6078450212294,-8591.429423264197,6867.55113214864,12210.46742325633,-187500.02235174447,-187500.02235174447,-187500.02235174447,-187500.02235174447
$SILENCE,3163.0177096149578,-8555.756039113527,7182.576618501737,12200.0291585957,-187500.02235174447,-187500.02235174447,-187500.02235174447,-187500.02235174447
$SILENCE,2962.053175217292,-8566.686042152172,6896.250772029254,12245.0902754176,-187500.02235174447,-187500.02235174447,-187500.02235174447,-187500.02235174447
$SILENCE,2798.7513302268185,-8609.824908950915,6500.3343224924,12277.321490922153,-187500.02235174447,-187500.02235174447,-187500.02235174447,-187500.02235174447
$SILENCE,3018.3572195002102,-8603.544068758973,6782.368634029464,12229.511109532252,-187500.02235174447,-187500.02235174447,-187500.02235174447,-187500.02235174447
$SILENCE,3176.495811521508,-8548.581129143373,7178.240380077408,12208.835745911092,-187500.02235174447,-187500.02235174447,-187500.02235174447,-187500.02235174447
$SILENCE,3007.5166234393864,-8549.721068110593,6973.878380522536,12239.100007903578,-187500.02235174447,-187500.02235174447,-187500.02235174447,-187500.02235174447
$SILENCE,2807.736731497852,-8600.66069372424,6530.3080118069665,12270.504208863284,-187500.02235174447,-187500.02235174447,-187500.02235174447,-187500.02235174447
$SILENCE,2976.3582916686883,-8610.070778139923,6687.105499160945,12235.076693901623,-187500.02235174447,-187500.02235174447,-187500.02235174447,-187500.02235174447
$SILENCE,3197.037064675935,-8557.722992625593,7156.022746088833,12215.116586103033,-187500.02235174447,-187500.02235174447,-187500.02235174447,-187500.02235174447
$SILENCE,3066.860504968227,-8546.79298958695,7056.177503606976,12240.239946870799,-187500.02235174447,-187500.02235174447,-187500.02235174447,-187500.02235174447
$SILENCE,2823.1147316831034,-8590.848277908359,6583.102832210402,12266.838522772614,-187500.02235174447,-187500.02235174447,-187500.02235174447,-187500.02235174447
$SILENCE,2928.927889934527,-8609.355522317353,6604.672265609774,12237.647144513983,-187500.02235174447,-187500.02235174447,-187500.02235174447,-187500.02235174447
$SILENCE,3188.5210500384633,-8563.087411294868,7100.970399495412,12204.298341786665,-187500.02235174447,-187500.02235174447,-187500.02235174447,-187500.02235174447
$SILENCE,3111.6310491122067,-8547.172969242689,7111.989809511878,12228.70644673186,-187500.02235174447,-187500.02235174447,-187500.02235174447,-187500.02235174447
$SILENCE,2871.3274444732006,-8576.856085879337,6671.503981531141,12270.52656060774,-187500.02235174447,-187500.02235174447,-187500.02235174447,-187500.02235174447
$SILENCE,2912.0746746152254,-8611.590696762883,6560.818142988461,12247.683077774416,-187500.02235174447,-187500.02235174447,-187500.02235174447,-187500.02235174447
$SILENCE,3200.166308899678,-8577.861914379826,7039.301936543219,12192.295455014164,-187500.02235174447,-187500.02235174447,-187500.02235174447,-187500.02235174447
$SILENCE,3198.333465854343,-8553.02912628998,7158.436734490006,12204.231286553299,-187500.02235174447,-187500.02235174447,-187500.02235174447,-187500.02235174447
$SILENCE,2960.5779600832416,-8579.89592312526,6755.7700581276495,12256.310851134163,-187500.02235174447,-187500.02235174447,-187500.02235174447,-187500.02235174447
$SILENCE,2898.887145386594,-8610.026074651012,6521.367314024844,12268.559607095673,-187500.02235174447,-187500.02235174447,-187500.02235174447,-187500.02235174447
$SILENCE,3180.072090634357,-8580.812344647926,6967.217560674854,12219.162251849444,-187500.02235174447,-187500.02235174447,-187500.02235174447,-187500.02235174447
$SILENCE,3229.6035563473174,-8547.776466342983,7191.696130239503,12208.723987188816,-187500.02235174447,-187500.02235174447,-187500.02235174447,-187500.02235174447
$SILENCE,2999.492347179931,-8561.679251394184,6836.146931188933,12245.47025507334,-187500.02235174447,-187500.02235174447,-187500.02235174447,-187500.02235174447
$SILENCE,2884.2020492794572,-8606.56155426044,6502.211869026646,12257.875473246035,-187500.02235174447,-187500.02235174447,-187500.02235174447,-187500.02235174447
$SILENCE,3129.4453894430867,-8582.309911526432,6877.9223415759025,12216.725911703816,-187500.02235174447,-187500.02235174447,-187500.02235174447,-187500.02235174447
$SILENCE,3238.834826807359,-8538.321678438388,7208.124662414153,12209.685112200394,-187500.02235174447,-187500.02235174447,-187500.02235174447,-187500.02235174447
$SILENCE,3040.6195569776964,-8555.800742602438,6931.030086401712,12248.107760919067,-187500.02235174447,-187500.02235174447,-187500.02235174447,-187500.02235174447
$SILENCE,2864.443107180966,-8602.337074558387,6521.255555302568,12273.320528664653,-187500.02235174447,-187500.02235174447,-187500.02235174447,-187500.02235174447
$SILENCE,3076.7399760174726,-8593.418728520719,6783.441517763319,12236.998943924778,-187500.02235174447,-187500.02235174447,-187500.02235174447,-187500.02235174447
$SILENCE,3251.0612310244123,-8545.921271553192,7193.4842697959275,12204.544210975673,-187500.02235174447,-187500.02235174447,-187500.02235174447,-187500.02235174447
$SILENCE,3092.2297349250002,-8550.033992532968,7013.776244375258,12239.94937419288,-187500.02235174447,-187500.02235174447,-187500.02235174447,-187500.02235174447
$SILENCE,2884.3361597461894,-8589.55187672995,6566.406079102288,12278.819057800658,-187500.02235174447,-187500.02235174447,-187500.02235174447,-187500.02235174447
$SILENCE,3038.8984726546378,-8599.2301820791,6703.444624357775,12245.89493821799,-187500.02235174447,-187500.02235174447,-187500.02235174447,-187500.02235174447
$SILENCE,3258.2361409945656,-8552.760905356516,7169.523199739838,12208.098138344067,-187500.02235174447,-187500.02235174447,-187500.02235174447,-187500.02235174447
$SILENCE,3140.464799459553,-8541.808550573414,7083.40192835354,12229.220536854333,-187500.02235174447,-187500.02235174447,-187500.02235174447,-187500.02235174447
$SILENCE,2899.2671250423346,-8583.159277815734,6616.07165528198,12269.923063507445,-187500.02235174447,-187500.02235174447,-187500.02235174447,-187500.02235174447
$SILENCE,2983.7120155944845,-8607.41092054974,6618.30682972751,12250.94643246489,-187500.02235174447,-187500.02235174447,-187500.02235174447,-187500.02235174447
$SILENCE,3238.6113093628064,-8556.895978080747,7110.581649611194,12198.755109161748,-187500.02235174447,-187500.02235174447,-187500.02235174447,-187500.02235174447
$SILENCE,3187.649332004706,-8542.188530229156,7138.834254602702,12213.440205268886,-187500.02235174447,-187500.02235174447,-187500.02235174447,-187500.02235174447
$SILENCE,2943.411820341566,-8577.1243068128,6695.688569031784,12265.408011127474,-187500.02235174447,-187500.02235174447,-187500.02235174447,-187500.02235174447
$SILENCE,2939.209692383968,-8597.777318689505,6560.482866821631,12262.032897714722,-187500.02235174447,-187500.02235174447,-187500.02235174447,-187500.02235174447
$SILENCE,3217.265393407988,-8556.44894319164,7049.136704103555,12225.711312974849,-187500.02235174447,-187500.02235174447,-187500.02235174447,-187500.02235174447
$SILENCE,3214.2479079065215,-8530.029181245469,7179.447374277995,12230.069903143634,-187500.02235174447,-187500.02235174447,-187500.02235174447,-187500.02235174447
$SILENCE,2976.8947335356156,-8554.794914101949,6779.239389805722,12274.885150776525,-187500.02235174447,-187500.02235174447,-187500.02235174447,-187500.02235174447
$SILENCE,2910.890032159094,-8598.023187878513,6527.648154216785,12271.510037363772,-187500.02235174447,-187500.02235174447,-187500.02235174447,-187500.02235174447
$SILENCE,3186.710558737583,-8584.679196438694,6957.941586725901,12218.93873440489,-187500.02235174447,-187500.02235174447,-187500.02235174447,-187500.02235174447
$SILENCE,3247.283786211465,-8537.36055342681,7198.625171020648,12217.530574504206,-187500.02235174447,-187500.02235174447,-187500.02235174447,-187500.02235174447
$SILENCE,3026.69442018204,-8552.31387046741,6857.246977954743,12259.641261058005,-187500.02235174447,-187500.02235174447,-187500.02235174447,-187500.02235174447
$SILENCE,2904.698598944974,-8595.944475644168,6513.030113343015,12264.424534371441,-187500.02235174447,-187500.02235174447,-187500.02235174447,-187500.02235174447
$SILENCE,3159.2626165464662,-8579.046556835956,6875.463649685818,12221.151557105966,-187500.02235174447,-187500.02235174447,-187500.02235174447,-187500.02235174447
$SILENCE,3282.398376750753,-8537.159387726711,7219.300534641807,12211.517955245728,-187500.02235174447,-187500.02235174447,-187500.02235174447,-187500.02235174447
$SILENCE,3084.5854383212854,-8549.45284717713,6959.5732640711385,12244.151502150477,-187500.02235174447,-187500.02235174447,-187500.02235174447,-187500.02235174447
$SILENCE,2898.3730552641223,-8593.821059920914,6539.651040989285,12265.653880316482,-187500.02235174447,-187500.02235174447,-187500.02235174447,-187500.02235174447
$SILENCE,3094.8001855373604,-8602.09120536938,6780.58049447304,12218.04466462668,-187500.02235174447,-187500.02235174447,-187500.02235174447,-187500.02235174447
$SILENCE,3287.673388442205,-8545.697754108638,7221.178081176053,12199.380958006497,-187500.02235174447,-187500.02235174447,-187500.02235174447,-187500.02235174447
$SILENCE,3121.2199474835334,-8536.131207481767,7031.858805639602,12245.04557192869,-187500.02235174447,-187500.02235174447,-187500.02235174447,-187500.02235174447
$SILENCE,2911.7393984483956,-8581.594655703862,6578.58777983043,12277.790877555713,-187500.02235174447,-187500.02235174447,-187500.02235174447,-187500.02235174447
$SILENCE,3048.8673506817045,-8593.239914565076,6695.330941120499,12248.778313252726,-187500.02235174447,-187500.02235174447,-187500.02235174447,-187500.02235174447
$SILENCE,3272.384795234775,-8553.990251301557,7146.322088995229,12210.266257556232,-187500.02235174447,-187500.02235174447,-187500.02235174447,-187500.02235174447
$SILENCE,3166.526933494441,-8537.874643549281,7077.6128265396155,12224.034932140701,-187500.02235174447,-187500.02235174447,-187500.02235174447,-187500.02235174447
$SILENCE,2932.4818173029207,-8572.989234088569,6628.342762987943,12267.151447194989,-187500.02235174447,-187500.02235174447,-187500.02235174447,-187500.02235174447
$SILENCE,3003.761530370895,-8603.745234459071,6614.059998281003,12250.499397575784,-187500.02235174447,-187500.02235174447,-187500.02235174447,-187500.02235174447
$SILENCE,3265.165181775711,-8558.639414148261,7110.469890888917,12207.092309843578,-187500.02235174447,-187500.02235174447,-187500.02235174447,-187500.02235174447
$SILENCE,3214.136149184245,-8535.2147859591,7156.156856555564,12228.460577542852,-187500.02235174447,-187500.02235174447,-187500.02235174447,-187500.02235174447
$SILENCE,2970.524486365853,-8573.659786422228,6706.752682537161,12274.304005420687,-187500.02235174447,-187500.02235174447,-187500.02235174447,-187500.02235174447
$SILENCE,2962.8131345287725,-8611.434234551696,6549.351698082888,12264.335127393619,-187500.02235174447,-187500.02235174447,-187500.02235174447,-187500.02235174447
$SILENCE,3235.9514517726248,-8569.591768931361,7029.1318928160545,12218.93873440489,-187500.02235174447,-187500.02235174447,-187500.02235174447,-187500.02235174447
$SILENCE,3241.427629164175,-8530.140939967745,7186.175249359042,12226.247754841776,-187500.02235174447,-187500.02235174447,-187500.02235174447,-187500.02235174447
$SILENCE,2996.3183994672777,-8560.762829871515,6791.510497511685,12262.479932603828,-187500.02235174447,-187500.02235174447,-187500.02235174447,-187500.02235174447
$SILENCE,2934.0687911592477,-8595.922123899714,6528.296354805989,12269.163104195966,-187500.02235174447,-187500.02235174447,-187500.02235174447,-187500.02235174447
$SILENCE,3215.9913439740353,-8570.664652665217,6957.718069281348,12225.286629830198,-187500.02235174447,-187500.02235174447,-187500.02235174447,-187500.02235174447
$SILENCE,3264.204056764133,-8541.45092266213,7208.951676959,12217.888202415492,-187500.02235174447,-187500.02235174447,-187500.02235174447,-187500.02235174447
$SILENCE,3039.9266528995818,-8556.158370513722,6873.0496612846455,12255.640298800505,-187500.02235174447,-187500.02235174447,-187500.02235174447,-187500.02235174447
$SILENCE,2907.9396018909933,-8602.649998980762,6512.71718892064,12274.1475432095,-187500.02235174447,-187500.02235174447,-187500.02235174447,-187500.02235174447
$SILENCE,3141.33651749331,-8581.371138259308,6853.625995352983,12235.859004957558,-187500.02235174447,-187500.02235174447,-187500.02235174447,-187500.02235174447
$SILENCE,3274.396452235753,-8529.06805623389,7211.030389193344,12230.941621177391,-187500.02235174447,-187500.02235174447,-187500.02235174447,-187500.02235174447
$SILENCE,3083.110223187235,-8548.245852976544,6957.47220009234,12259.820075013648,-187500.02235174447,-187500.02235174447,-187500.02235174447,-187500.02235174447
$SILENCE,2892.338084261189,-8591.138850586278,6535.135988609313,12287.67034860496,-187500.02235174447,-187500.02235174447,-187500.02235174447,-187500.02235174447
$SILENCE,3094.330798903799,-8595.005702377046,6766.789468144116,12254.90269123348,-187500.02235174447,-187500.02235174447,-187500.02235174447,-187500.02235174447
$SILENCE,3270.9319318451803,-8543.753152341027,7188.164554615564,12224.593725752084,-187500.02235174447,-187500.02235174447,-187500.02235174447,-187500.02235174447
$SILENCE,3110.111130489246,-8533.940736525146,7031.3000120282195,12262.56933958165,-187500.02235174447,-187500.02235174447,-187500.02235174447,-187500.02235174447
$SILENCE,2891.1087383161475,-8570.083507309379,6576.956102485193,12305.305874980197,-187500.02235174447,-187500.02235174447,-187500.02235174447,-187500.02235174447
$SILENCE,3033.8246266632827,-8587.450812751153,6677.494249045164,12271.599444341595,-187500.02235174447,-187500.02235174447,-187500.02235174447,-187500.02235174447
$SILENCE,3284.320626773909,-8545.206015730622,7174.6417492201035,12225.80071995267,-187500.02235174447,-187500.02235174447,-187500.02235174447,-187500.02235174447
$SILENCE,3179.558000511885,-8529.44803588963,7118.874146804113,12249.918252219946,-187500.02235174447,-187500.02235174447,-187500.02235174447,-187500.02235174447
$SILENCE,2928.81613121225,-8571.044632320956,6634.824768879983,12289.637302117028,-187500.02235174447,-187500.02235174447,-187500.02235174447,-187500.02235174447
$SILENCE,2992.630361632152,-8596.145641344267,6612.45067268022,12275.086316476622,-187500.02235174447,-187500.02235174447,-187500.02235174447,-187500.02235174447
$SILENCE,3247.6637658672057,-8559.689946137662,7088.095794689155,12230.494586288285,-187500.02235174447,-187500.02235174447,-187500.02235174447,-187500.02235174447
$SILENCE,3215.2313846625552,-8535.17008247019,7159.330804268218,12245.202034139877,-187500.02235174447,-187500.02235174447,-187500.02235174447,-187500.02235174447
$SILENCE,2958.052212959792,-8564.562626428919,6693.721615519717,12293.526505652251,-187500.02235174447,-187500.02235174447,-187500.02235174447,-187500.02235174447
$SILENCE,2951.994890212404,-8599.073719867913,6538.287584577512,12287.62564511605,-187500.02235174447,-187500.02235174447,-187500.02235174447,-187500.02235174447
$SILENCE,3226.8989952682255,-8569.144734042256,7015.519680442772,12236.820129969137,-187500.02235174447,-187500.02235174447,-187500.02235174447,-187500.02235174447
$SILENCE,3248.490780412052,-8534.343067925343,7187.739871470913,12239.256470114764,-187500.02235174447,-187500.02235174447,-187500.02235174447,-187500.02235174447
$SILENCE,3006.980181572459,-8562.528617683485,6798.193669103822,12275.645110088004,-187500.02235174447,-187500.02235174447,-187500.02235174447,-187500.02235174447
$SILENCE,2922.7811602093175,-8611.009551407045,6517.567517467442,12291.023110273256,-187500.02235174447,-187500.02235174447,-187500.02235174447,-187500.02235174447
$SILENCE,3195.271276863966,-8577.012548090524,6935.65689750396,12243.190377138899,-187500.02235174447,-187500.02235174447,-187500.02235174447,-187500.02235174447
$SILENCE,3272.8988853572473,-8527.88341377776,7207.52116531386,12236.306039846664,-187500.02235174447,-187500.02235174447,-187500.02235174447,-187500.02235174447
$SILENCE,3059.149153131146,-8542.79202732945,6886.751280635748,12278.841409545113,-187500.02235174447,-187500.02235174447,-187500.02235174447,-187500.02235174447
$SILENCE,2911.0464943702814,-8590.021263363513,6511.890174375793,12293.124174252054,-187500.02235174447,-187500.02235174447,-187500.02235174447,-187500.02235174447
$SILENCE,3146.7679913959496,-8580.32060626991,6840.371410890986,12238.787083481204,-187500.02235174447,-187500.02235174447,-187500.02235174447,-187500.02235174447
$SILENCE,3286.421690752708,-8539.841597061348,7204.861307723679,12218.51405126024,-187500.02235174447,-187500.02235174447,-187500.02235174447,-187500.02235174447
$SILENCE,3107.8089008103493,-8552.135056511766,6964.7365170403145,12259.730668035827,-187500.02235174447,-187500.02235174447,-187500.02235174447,-187500.02235174447
$SILENCE,2914.0639798717475,-8593.731652943094,6539.539282267008,12291.850124818102,-187500.02235174447,-187500.02235174447,-187500.02235174447,-187500.02235174447
$SILENCE,3101.5727641073186,-8590.624760463807,6753.311366237565,12251.32641212063,-187500.02235174447,-187500.02235174447,-187500.02235174447,-187500.02235174447
$SILENCE,3294.4459670121632,-8542.479102907075,7188.030444148832,12219.743397205282,-187500.02235174447,-187500.02235174447,-187500.02235174447,-187500.02235174447
$SILENCE,3147.885578618715,-8541.517977895497,7046.25332906882,12248.308926619164,-187500.02235174447,-187500.02235174447,-187500.02235174447,-187500.02235174447
$SILENCE,2921.14948286408,-8585.550914472451,6589.11545146888,12290.106688750588,-187500.02235174447,-187500.02235174447,-187500.02235174447,-187500.02235174447
$SILENCE,3045.089905868758,-8601.331246057898,6668.151219862845,12264.71510704936,-187500.02235174447,-187500.02235174447,-187500.02235174447,-187500.02235174447
$SILENCE,3282.487783728574,-8547.97763204308,7150.032478574811,12221.732702461804,-187500.02235174447,-187500.02235174447,-187500.02235174447,-187500.02235174447
$SILENCE,3188.3198843383652,-8528.241041689043,7109.59817285516,12235.970763679834,-187500.02235174447,-187500.02235174447,-187500.02235174447,-187500.02235174447
$SILENCE,2944.44000058651,-8570.351728242842,6645.59830970744,12274.259301931776,-187500.02235174447,-187500.02235174447,-187500.02235174447,-187500.02235174447
$SILENCE,2998.017132045881,-8600.437176279685,6595.955085272203,12262.85991225957,-187500.02235174447,-187500.02235174447,-187500.02235174447,-187500.02235174447
$SILENCE,3274.329397002387,-8561.746306627549,7092.007349968833,12220.995094894779,-187500.02235174447,-187500.02235174447,-187500.02235174447,-187500.02235174447
$SILENCE,3237.4490186511302,-8536.824111559881,7162.616510703148,12232.685057244904,-187500.02235174447,-187500.02235174447,-187500.02235174447,-187500.02235174447
$SILENCE,2995.1114052666912,-8570.21761777611,6738.76038059716,12275.354537410085,-187500.02235174447,-187500.02235174447,-187500.02235174447,-187500.02235174447
$SILENCE,2977.8335068027386,-8605.55572575995,6574.251541406101,12280.964825268367,-187500.02235174447,-187500.02235174447,-187500.02235174447,-187500.02235174447
$SILENCE,3237.225501206577,-8565.032013062479,7005.170822759966,12235.70254274637,-187500.02235174447,-187500.02235174447,-187500.02235174447,-187500.02235174447
$SILENCE,3270.5743039338954,-8526.609364343807,7211.924458971555,12225.0854641301,-187500.02235174447,-187500.02235174447,-187500.02235174447,-187500.02235174447
$SILENCE,3010.847033363227,-8555.2195972466,6791.331683556043,12260.557682580673,-187500.02235174447,-187500.02235174447,-187500.02235174447,-187500.02235174447
$SILENCE,2921.1941863529905,-8601.353597802354,6498.814403869439,12264.133961693522,-187500.02235174447,-187500.02235174447,-187500.02235174447,-187500.02235174447
$SILENCE,3190.1303756392454,-8579.314777769421,6915.853251916558,12218.379940793508,-187500.02235174447,-187500.02235174447,-187500.02235174447,-187500.02235174447
$SILENCE,3273.7706033910044,-8537.315849937899,7203.319037356262,12211.60736222355,-187500.02235174447,-187500.02235174447,-187500.02235174447,-187500.02235174447
$SILENCE,3061.920769443604,-8552.805608845427,6893.345045250064,12251.23700514281,-187500.02235174447,-187500.02235174447,-187500.02235174447,-187500.02235174447
$SILENCE,2915.9638781504486,-8591.98821687558,6520.383837268811,12273.47699087584,-187500.02235174447,-187500.02235174447,-187500.02235174447,-187500.02235174447
$SILENCE,3147.393840240698,-8586.26617029502,6832.771817776182,12225.554850763661,-187500.02235174447,-187500.02235174447,-187500.02235174447,-187500.02235174447
$SILENCE,3294.065987356423,-8545.228367475078,7210.091615926221,12206.533516232195,-187500.02235174447,-187500.02235174447,-187500.02235174447,-187500.02235174447
$SILENCE,3116.5707846368296,-8547.396486687241,6988.004683018289,12243.458598072362,-187500.02235174447,-187500.02235174447,-187500.02235174447,-187500.02235174447
$SILENCE,2913.3040205602674,-8589.03778660748,6549.597567271897,12277.165028710966,-187500.02235174447,-187500.02235174447,-187500.02235174447,-187500.02235174447
$SILENCE,3094.464909370531,-8589.596580218862,6739.900319564381,12245.716124262348,-187500.02235174447,-187500.02235174447,-187500.02235174447,-187500.02235174447
$SILENCE,3295.5635542349287,-8541.40621917322,7186.957560414978,12215.742434947782,-187500.02235174447,-187500.02235174447,-187500.02235174447,-187500.02235174447
$SILENCE,3155.552226966885,-8537.82994006037,7059.373803064085,12242.855100972069,-187500.02235174447,-187500.02235174447,-187500.02235174447,-187500.02235174447
$SILENCE,2925.932756177516,-8576.40905099023,6600.559544629997,12274.57222635415,-187500.02235174447,-187500.02235174447,-187500.02235174447,-187500.02235174447
$SILENCE,3038.2279203209782,-8598.51492625653,6656.975347635192,12240.530519548718,-187500.02235174447,-187500.02235174447,-187500.02235174447,-187500.02235174447
$SILENCE,3279.64911218275,-8557.320661225398,7140.108304036654,12202.1302225745,-187500.02235174447,-187500.02235174447,-187500.02235174447,-187500.02235174447
$SILENCE,3193.527840796452,-8537.919347038192,7120.036437515788,12223.252621084765,-187500.02235174447,-187500.02235174447,-187500.02235174447,-187500.02235174447
$SILENCE,2957.6051780706857,-8571.98340558808,6668.732365218683,12264.201016926887,-187500.02235174447,-187500.02235174447,-187500.02235174447,-187500.02235174447
$SILENCE,3002.2416117479343,-8604.795766448471,6592.624675348363,12252.0416679432,-187500.02235174447,-187500.02235174447,-187500.02235174447,-187500.02235174447
$SILENCE,3268.3391294883645,-8564.719088640106,7084.094832431654,12203.873658642015,-187500.02235174447,-187500.02235174447,-187500.02235174447,-187500.02235174447
$SILENCE,3240.5782628748734,-8529.44803588963,7176.318130054251,12220.212783838842,-187500.02235174447,-187500.02235174447,-187500.02235174447,-187500.02235174447
$SILENCE,2994.530259910853,-8559.511132182019,6753.356069726476,12264.268072160254,-187500.02235174447,-187500.02235174447,-187500.02235174447,-187500.02235174447
$SILENCE,2963.081355462236,-8603.052330380957,6549.530512038531,12258.434266857419,-187500.02235174447,-187500.02235174447,-187500.02235174447,-187500.02235174447
$SILENCE,3238.790123318449,-8573.056289321934,7009.305895484197,12206.533516232195,-187500.02235174447,-187500.02235174447,-187500.02235174447,-187500.02235174447
$SILENCE,3266.6851003986717,-8532.778445813472,7204.883659468134,12207.919324388424,-187500.02235174447,-187500.02235174447,-187500.02235174447,-187500.02235174447
$SILENCE,3030.5165684838976,-8550.391620444254,6835.029343966168,12253.919214477446,-187500.02235174447,-187500.02235174447,-187500.02235174447,-187500.02235174447
$SILENCE,2925.731590477418,-8597.866725667325,6523.758950681562,12264.245720415798,-187500.02235174447,-187500.02235174447,-187500.02235174447,-187500.02235174447
