WORD,Channel_1,Channel_2,Channel_3,Channel_4,Channel_5,Channel_6,Channel_7,Channel_8
talvez,3414.743055670626,-8414.448310667076,8252.040535454815,12440.109245790154,-187500.02235174447,-187500.02235174447,-187500.02235174447,-187500.02235174447
talvez,3112.3463049347765,-8423.277249726922,7793.338035743003,12495.787441228324,-187500.02235174447,-187500.02235174447,-187500.02235174447,-187500.02235174447
talvez,2904.8327094117058,-8467.086668859323,7321.78328296939,12549.029296520865,-187500.02235174447,-187500.02235174447,-187500.02235174447,-187500.02235174447
talvez,3242.6122716203063,-8478.217837598067,7771.008643032151,12485.148010867599,-187500.02235174447,-187500.02235174447,-187500.02235174447,-187500.02235174447
talvez,3449.3435560874414,-8416.169394990135,8243.122189417147,12457.141275065098,-187500.02235174447,-187500.02235174447,-187500.02235174447,-187500.02235174447
talvez,3196.142994897723,-8395.09169996878,7917.747845381242,12519.56969732877,-187500.02235174447,-187500.02235174447,-187500.02235174447,-187500.02235174447
talvez,2910.308886803256,-8461.00699436748,7321.515062035926,12560.741610615447,-187500.02235174447,-187500.02235174447,-187500.02235174447,-187500.02235174447
talvez,3185.101233136801,-8483.716366734072,7638.239280967628,12484.969196911956,-187500.02235174447,-187500.02235174447,-187500.02235174447,-187500.02235174447
talvez,3483.474669870695,-8430.653325397174,8288.563285894787,12448.312336005252,-187500.02235174447,-187500.02235174447,-187500.02235174447,-187500.02235174447
talvez,3237.06903899539,-8416.415264179142,8034.06632352666,12474.195656084497,-187500.02235174447,-187500.02235174447,-187500.02235174447,-187500.02235174447
talvez,2949.5585500667753,-8464.046831613401,7385.105775011275,12552.024430277877,-187500.02235174447,-187500.02235174447,-187500.02235174447,-187500.02235174447
talvez,3117.241336970489,-8479.067203887369,7507.973314282098,12519.18971767303,-187500.02235174447,-187500.02235174447,-187500.02235174447,-187500.02235174447
talvez,3473.1258121878877,-8448.914700617159,8213.684941969508,12476.252016574386,-187500.02235174447,-187500.02235174447,-187500.02235174447,-187500.02235174447
talvez,3331.1028279188668,-8402.110147727746,8147.948461526449,12507.924438467555,-187500.02235174447,-187500.02235174447,-187500.02235174447,-187500.02235174447
talvez,2963.4166316290657,-8431.770912619939,7499.8372793003655,12530.544403856327,-187500.02235174447,-187500.02235174447,-187500.02235174447,-187500.02235174447
talvez,3045.6039959912296,-8488.566695280873,7457.7489444910225,12500.190734886019,-187500.02235174447,-187500.02235174447,-187500.02235174447,-187500.02235174447
talvez,3449.3882595763516,-8457.430715254632,8161.627729133097,12427.145234006077,-187500.02235174447,-187500.02235174447,-187500.02235174447,-187500.02235174447
talvez,3349.0289269720233,-8423.05373228237,8219.876375183627,12433.962516064945,-187500.02235174447,-187500.02235174447,-187500.02235174447,-187500.02235174447
talvez,2998.7770913573613,-8438.38702897871,7575.944969170687,12522.76599678588,-187500.02235174447,-187500.02235174447,-187500.02235174447,-187500.02235174447
talvez,3002.8674605926826,-8489.01373016998,7375.852152806778,12535.953526014511,-187500.02235174447,-187500.02235174447,-187500.02235174447,-187500.02235174447
talvez,3450.9752334326786,-8491.472422060064,8020.163538475459,12438.589327167194,-187500.02235174447,-187500.02235174447,-187500.02235174447,-187500.02235174447
talvez,3421.9179656407796,-8422.450235182076,8234.58382303522,12414.225925710909,-187500.02235174447,-187500.02235174447,-187500.02235174447,-187500.02235174447
talvez,3089.592229079274,-8431.279174241921,7750.556796855545,12494.71455749447,-187500.02235174447,-187500.02235174447,-187500.02235174447,-187500.02235174447
talvez,3004.5438414268306,-8482.48702078903,7383.295283710395,12552.918500056088,-187500.02235174447,-187500.02235174447,-187500.02235174447,-187500.02235174447
talvez,3360.8306480444253,-8485.571561523862,7908.5165749212,12456.26955703134,-187500.02235174447,-187500.02235174447,-187500.02235174447,-187500.02235174447
talvez,3461.5252568155834,-8434.296659743388,8274.772259565862,12420.774986836313,-187500.02235174447,-187500.02235174447,-187500.02235174447,-187500.02235174447
talvez,3177.613398744273,-8438.074104556335,7865.310652889091,12492.904066193589,-187500.02235174447,-187500.02235174447,-187500.02235174447,-187500.02235174447
talvez,2979.0628527477807,-8480.274198087955,7310.987390397477,12531.349066656718,-187500.02235174447,-187500.02235174447,-187500.02235174447,-187500.02235174447
talvez,3284.1865163071775,-8490.287779603932,7746.287613664582,12452.447408729484,-187500.02235174447,-187500.02235174447,-187500.02235174447,-187500.02235174447
talvez,3512.93426906279,-8441.315107502354,8310.244478016433,12413.421262910517,-187500.02235174447,-187500.02235174447,-187500.02235174447,-187500.02235174447
talvez,3235.839693050348,-8424.90892707216,7986.635921792498,12486.980853912934,-187500.02235174447,-187500.02235174447,-187500.02235174447,-187500.02235174447
talvez,2927.2962125892896,-8465.633805469728,7342.771571012923,12502.872944220657,-187500.02235174447,-187500.02235174447,-187500.02235174447,-187500.02235174447
talvez,3220.037009720446,-8507.230401901055,7623.330667415938,12440.086894045699,-187500.02235174447,-187500.02235174447,-187500.02235174447,-187500.02235174447
talvez,3518.5892604099827,-8454.323822775343,8264.803381538795,12396.053957468745,-187500.02235174447,-187500.02235174447,-187500.02235174447,-187500.02235174447
talvez,3355.063897974956,-8424.148967760679,8085.74355670733,12462.617452456649,-187500.02235174447,-187500.02235174447,-187500.02235174447,-187500.02235174447
talvez,2983.823774316761,-8461.029346111936,7437.3194500588725,12524.71059855349,-187500.02235174447,-187500.02235174447,-187500.02235174447,-187500.02235174447
talvez,3093.7049500590506,-8491.964160438081,7540.405695486748,12458.840007643701,-187500.02235174447,-187500.02235174447,-187500.02235174447,-187500.02235174447
talvez,3516.734065620192,-8458.771819921949,8224.592593263698,12396.925675502502,-187500.02235174447,-187500.02235174447,-187500.02235174447,-187500.02235174447
talvez,3376.4321656742295,-8429.491034685498,8127.071932205193,12441.740923135392,-187500.02235174447,-187500.02235174447,-187500.02235174447,-187500.02235174447
talvez,3019.1618823006015,-8451.663965185162,7513.8071195849325,12516.842784505223,-187500.02235174447,-187500.02235174447,-187500.02235174447,-187500.02235174447
talvez,3045.112257613213,-8492.34414009382,7417.001714348998,12477.101382863688,-187500.02235174447,-187500.02235174447,-187500.02235174447,-187500.02235174447
talvez,3461.480553326673,-8466.19259908111,8094.192516111436,12396.568047591216,-187500.02235174447,-187500.02235174447,-187500.02235174447,-187500.02235174447
talvez,3450.5952537769385,-8430.675677141628,8212.120319857637,12428.329876462207,-187500.02235174447,-187500.02235174447,-187500.02235174447,-187500.02235174447
talvez,3059.7750019758946,-8448.713534917062,7656.478304443158,12514.473499592961,-187500.02235174447,-187500.02235174447,-187500.02235174447,-187500.02235174447
talvez,2982.795594071817,-8487.314997591377,7357.031983975409,12495.586275528227,-187500.02235174447,-187500.02235174447,-187500.02235174447,-187500.02235174447
talvez,3427.282384310053,-8483.984587667535,7975.549456542666,12390.77894577729,-187500.02235174447,-187500.02235174447,-187500.02235174447,-187500.02235174447
talvez,3451.2434543661425,-8429.759255618961,8256.957919234983,12413.667132099526,-187500.02235174447,-187500.02235174447,-187500.02235174447,-187500.02235174447
talvez,3142.2752907604327,-8426.42884569512,7761.889131294386,12512.372435614161,-187500.02235174447,-187500.02235174447,-187500.02235174447,-187500.02235174447
talvez,3034.718696441495,-8490.623055770762,7326.655963260647,12512.148918169609,-187500.02235174447,-187500.02235174447,-187500.02235174447,-187500.02235174447
talvez,3340.870540245836,-8482.330558577843,7857.465190585279,12428.799263095769,-187500.02235174447,-187500.02235174447,-187500.02235174447,-187500.02235174447
talvez,3492.147146719354,-8437.917642345148,8270.391317652622,12392.902361500546,-187500.02235174447,-187500.02235174447,-187500.02235174447,-187500.02235174447
talvez,3226.139035956745,-8432.061485297858,7878.788754795642,12464.070315846244,-187500.02235174447,-187500.02235174447,-187500.02235174447,-187500.02235174447
talvez,2954.9676722249596,-8485.504506290497,7342.235129145995,12503.878772721146,-187500.02235174447,-187500.02235174447,-187500.02235174447,-187500.02235174447
talvez,3229.357687158309,-8485.77272722396,7741.951375240252,12440.332763234706,-187500.02235174447,-187500.02235174447,-187500.02235174447,-187500.02235174447
talvez,3490.873097285402,-8425.423017194631,8268.804343796295,12412.50484138785,-187500.02235174447,-187500.02235174447,-187500.02235174447,-187500.02235174447
talvez,3307.834661940892,-8431.078008541825,7957.310433067136,12459.577615210726,-187500.02235174447,-187500.02235174447,-187500.02235174447,-187500.02235174447
talvez,3007.5836786727523,-8478.620168998263,7360.272986921429,12506.873906478157,-187500.02235174447,-187500.02235174447,-187500.02235174447,-187500.02235174447
talvez,3173.813602186871,-8492.701768005105,7597.737920014611,12444.065504558743,-187500.02235174447,-187500.02235174447,-187500.02235174447,-187500.02235174447
talvez,3544.182007811309,-8451.775723907438,8231.521634044842,12388.968454476411,-187500.02235174447,-187500.02235174447,-187500.02235174447,-187500.02235174447
talvez,3373.839363317414,-8417.935182802103,8107.201231384424,12466.953690880979,-187500.02235174447,-187500.02235174447,-187500.02235174447,-187500.02235174447
talvez,2973.050233489303,-8462.057526356879,7464.946206205632,12510.204316401998,-187500.02235174447,-187500.02235174447,-187500.02235174447,-187500.02235174447
talvez,3110.111130489246,-8506.761015267493,7463.493342816037,12468.831237415223,-187500.02235174447,-187500.02235174447,-187500.02235174447,-187500.02235174447
talvez,3459.021861436589,-8448.713534917062,8127.004876971827,12389.817820765713,-187500.02235174447,-187500.02235174447,-187500.02235174447,-187500.02235174447
talvez,3399.38740722983,-8424.28307822741,8146.830874303684,12415.298809444763,-187500.02235174447,-187500.02235174447,-187500.02235174447,-187500.02235174447
talvez,3088.0276069674023,-8449.562901206364,7560.768134685533,12499.43077557454,-187500.02235174447,-187500.02235174447,-187500.02235174447,-187500.02235174447
talvez,3068.849810224749,-8485.77272722396,7404.9764758320425,12477.883693919623,-187500.02235174447,-187500.02235174447,-187500.02235174447,-187500.02235174447
talvez,3427.1482738433215,-8455.91079663167,8058.675594171953,12408.16860296352,-187500.02235174447,-187500.02235174447,-187500.02235174447,-187500.02235174447
talvez,3418.028762105556,-8403.495955883975,8241.512863816364,12425.111225260644,-187500.02235174447,-187500.02235174447,-187500.02235174447,-187500.02235174447
talvez,3094.174336692612,-8434.967212077048,7624.56001336098,12512.685360036536,-187500.02235174447,-187500.02235174447,-187500.02235174447,-187500.02235174447
talvez,3012.590469430741,-8487.449108058108,7360.116524710242,12512.19362165852,-187500.02235174447,-187500.02235174447,-187500.02235174447,-187500.02235174447
talvez,3347.4419531156964,-8463.890369402216,7911.601115656033,12416.706969345447,-187500.02235174447,-187500.02235174447,-187500.02235174447,-187500.02235174447
talvez,3493.063568242022,-8425.981810806014,8228.660610754563,12387.001500964345,-187500.02235174447,-187500.02235174447,-187500.02235174447,-187500.02235174447
talvez,3127.14315976419,-8428.865185840748,7728.316811122515,12492.077051648743,-187500.02235174447,-187500.02235174447,-187500.02235174447,-187500.02235174447
talvez,2925.955107921971,-8460.33644203382,7263.177009007574,12538.658087093603,-187500.02235174447,-187500.02235174447,-187500.02235174447,-187500.02235174447
talvez,3286.488745986074,-8462.638671712717,7775.277826223115,12434.476606187416,-187500.02235174447,-187500.02235174447,-187500.02235174447,-187500.02235174447
talvez,3546.0148508566444,-8443.058543569869,8287.713919605485,12427.927545062012,-187500.02235174447,-187500.02235174447,-187500.02235174447,-187500.02235174447
talvez,3147.6397094297063,-8400.165545960135,7906.1472900089375,12520.463767106983,-187500.02235174447,-187500.02235174447,-187500.02235174447,-187500.02235174447
talvez,2860.822124579206,-8444.310241259365,7302.672541460102,12559.512264670404,-187500.02235174447,-187500.02235174447,-187500.02235174447,-187500.02235174447
talvez,3274.55291444694,-8468.383070037731,7710.100139391439,12482.644615488603,-187500.02235174447,-187500.02235174447,-187500.02235174447,-187500.02235174447
talvez,3512.1072545179436,-8401.618409349729,8253.135770933124,12437.315277733242,-187500.02235174447,-187500.02235174447,-187500.02235174447,-187500.02235174447
talvez,3202.0885589228346,-8399.13736571519,7948.280328307192,12511.299551880307,-187500.02235174447,-187500.02235174447,-187500.02235174447,-187500.02235174447
talvez,2887.778328392307,-8444.064372070357,7349.879425749711,12553.343183200739,-187500.02235174447,-187500.02235174447,-187500.02235174447,-187500.02235174447
talvez,3162.257750303477,-8471.624072983752,7575.654396492768,12508.349121612207,-187500.02235174447,-187500.02235174447,-187500.02235174447,-187500.02235174447
talvez,3428.1764540882655,-8393.705891812551,8228.593555521198,12477.771935197346,-187500.02235174447,-187500.02235174447,-187500.02235174447,-187500.02235174447
talvez,3280.8561063833367,-8408.636857108695,8050.4278004679445,12476.050850874288,-187500.02235174447,-187500.02235174447,-187500.02235174447,-187500.02235174447
talvez,2978.3252451807557,-8441.71743890255,7435.285441313439,12560.652203637625,-187500.02235174447,-187500.02235174447,-187500.02235174447,-187500.02235174447
talvez,3045.045202379847,-8459.10709608878,7432.9161564011765,12530.633810834148,-187500.02235174447,-187500.02235174447,-187500.02235174447,-187500.02235174447
talvez,3429.942241900235,-8425.914755572649,8139.186577699969,12479.738888709413,-187500.02235174447,-187500.02235174447,-187500.02235174447,-187500.02235174447
talvez,3337.808351255459,-8385.815726019828,8161.203045988446,12496.905028451089,-187500.02235174447,-187500.02235174447,-187500.02235174447,-187500.02235174447
talvez,3040.0607633663135,-8415.655304867661,7550.285166535994,12559.400505948128,-187500.02235174447,-187500.02235174447,-187500.02235174447,-187500.02235174447
talvez,3012.076379308269,-8466.550226992396,7389.8890483247105,12537.182871959552,-187500.02235174447,-187500.02235174447,-187500.02235174447,-187500.02235174447
talvez,3344.290357147498,-8429.133406774212,8009.904087770473,12482.644615488603,-187500.02235174447,-187500.02235174447,-187500.02235174447,-187500.02235174447
talvez,3375.9851307851236,-8399.1820692041,8178.23507526339,12474.821504929247,-187500.02235174447,-187500.02235174447,-187500.02235174447,-187500.02235174447
talvez,3041.692440711551,-8418.493976413487,7655.383068964848,12557.67942162507,-187500.02235174447,-187500.02235174447,-187500.02235174447,-187500.02235174447
talvez,2923.608174754164,-8440.041058068402,7311.948515409054,12578.8688753687,-187500.02235174447,-187500.02235174447,-187500.02235174447,-187500.02235174447
talvez,3313.2214323546214,-8441.069238313346,7927.672019919399,12469.591196726704,-187500.02235174447,-187500.02235174447,-187500.02235174447,-187500.02235174447
talvez,3494.963466520723,-8419.544508402885,8297.88396333265,12470.597025227193,-187500.02235174447,-187500.02235174447,-187500.02235174447,-187500.02235174447
talvez,3079.84686849676,-8402.668941339129,7757.508189381146,12559.020526292388,-187500.02235174447,-187500.02235174447,-187500.02235174447,-187500.02235174447
talvez,2909.213651324946,-8450.121694817746,7330.969849940521,12579.695889913546,-187500.02235174447,-187500.02235174447,-187500.02235174447,-187500.02235174447
talvez,3231.25758543701,-8458.145971077201,7779.390547202891,12509.198487901509,-187500.02235174447,-187500.02235174447,-187500.02235174447,-187500.02235174447
talvez,3407.4340352337404,-8404.278266939911,8248.553663319786,12473.41334502856,-187500.02235174447,-187500.02235174447,-187500.02235174447,-187500.02235174447
talvez,3171.7348899525273,-8377.791449760372,7892.535077635655,12542.077903995265,-187500.02235174447,-187500.02235174447,-187500.02235174447,-187500.02235174447
talvez,2887.9347906034936,-8430.787435863906,7337.317745365828,12596.9737883775,-187500.02235174447,-187500.02235174447,-187500.02235174447,-187500.02235174447
talvez,3220.7522655430157,-8468.092497359812,7677.444240742236,12535.260621936397,-187500.02235174447,-187500.02235174447,-187500.02235174447,-187500.02235174447
talvez,3488.906143773335,-8423.05373228237,8253.135770933124,12463.869150146145,-187500.02235174447,-187500.02235174447,-187500.02235174447,-187500.02235174447
talvez,3250.6588996242167,-8422.182014248612,7998.102366698071,12496.010958672878,-187500.02235174447,-187500.02235174447,-187500.02235174447,-187500.02235174447
talvez,2973.497268378409,-8412.682522855106,7461.302871859417,12599.477183756493,-187500.02235174447,-187500.02235174447,-187500.02235174447,-187500.02235174447
talvez,3107.8089008103493,-8447.350078505287,7527.821663358411,12534.835938791746,-187500.02235174447,-187500.02235174447,-187500.02235174447,-187500.02235174447
talvez,3422.6332214633494,-8423.85839508276,8177.877447352105,12469.010051370866,-187500.02235174447,-187500.02235174447,-187500.02235174447,-187500.02235174447
talvez,3306.582964251395,-8356.154961127635,8172.155400771547,12552.024430277877,-187500.02235174447,-187500.02235174447,-187500.02235174447,-187500.02235174447
talvez,3042.430048278576,-8364.335699598278,7566.758402199555,12645.968812223533,-187500.02235174447,-187500.02235174447,-187500.02235174447,-187500.02235174447
talvez,3042.6312139786737,-8497.663855274184,7463.515694560492,12543.419008662584,-187500.02235174447,-187500.02235174447,-187500.02235174447,-187500.02235174447
talvez,3398.515689196073,-8461.878712401238,8083.5307340062545,12471.424039772039,-187500.02235174447,-187500.02235174447,-187500.02235174447,-187500.02235174447
talvez,3314.22726085511,-8457.877750143738,8152.932900539983,12502.09063316472,-187500.02235174447,-187500.02235174447,-187500.02235174447,-187500.02235174447
talvez,3018.111350311202,-8434.162549276656,7581.197629117683,12583.339224259762,-187500.02235174447,-187500.02235174447,-187500.02235174447,-187500.02235174447
talvez,2952.6430908016077,-8477.927264920148,7250.436514668049,12522.296610152318,-187500.02235174447,-187500.02235174447,-187500.02235174447,-187500.02235174447
talvez,3307.611144496339,-8506.515146078485,7875.883028016452,12394.064652212222,-187500.02235174447,-187500.02235174447,-187500.02235174447,-187500.02235174447
talvez,3383.428261688741,-8436.598889422285,8216.657723982064,12427.547565406272,-187500.02235174447,-187500.02235174447,-187500.02235174447,-187500.02235174447
talvez,3084.9207144881148,-8476.228532341544,7727.735665766677,12579.651186424637,-187500.02235174447,-187500.02235174447,-187500.02235174447,-187500.02235174447
talvez,2963.2601694178784,-8501.843631487327,7351.220530417029,12602.628779724691,-187500.02235174447,-187500.02235174447,-187500.02235174447,-187500.02235174447
talvez,3362.3952701562966,-8476.943788164113,7977.4046513324565,12462.483341989917,-187500.02235174447,-187500.02235174447,-187500.02235174447,-187500.02235174447
talvez,3433.3620588018966,-8506.626904800762,8130.715266551408,12360.82760820718,-187500.02235174447,-187500.02235174447,-187500.02235174447,-187500.02235174447
talvez,3163.040061359413,-8467.95838689308,7693.872772916887,12489.618359758659,-187500.02235174447,-187500.02235174447,-187500.02235174447,-187500.02235174447
talvez,3009.528280440364,-8465.544398491907,7277.39271848115,12553.00790703391,-187500.02235174447,-187500.02235174447,-187500.02235174447,-187500.02235174447
talvez,3239.9971175190353,-8609.444929295174,7632.092551242417,12352.311593569708,-187500.02235174447,-187500.02235174447,-187500.02235174447,-187500.02235174447
talvez,3507.6145538824267,-8516.282858405455,8244.35153536219,12395.785736535281,-187500.02235174447,-187500.02235174447,-187500.02235174447,-187500.02235174447
talvez,3304.392493294775,-8468.67364271565,7965.468819793323,12516.61926706067,-187500.02235174447,-187500.02235174447,-187500.02235174447,-187500.02235174447
talvez,3061.6078450212294,-8513.846518259827,7435.6207174802685,12536.109988225699,-187500.02235174447,-187500.02235174447,-187500.02235174447,-187500.02235174447
talvez,3303.230202583099,-8545.474236664086,7654.578406164456,12454.973155852933,-187500.02235174447,-187500.02235174447,-187500.02235174447,-187500.02235174447
talvez,3581.956455940778,-8520.373227640775,8212.165023346546,12374.775096747291,-187500.02235174447,-187500.02235174447,-187500.02235174447,-187500.02235174447
talvez,3392.167793770766,-8484.20810511209,8027.807835079174,12449.60873718366,-187500.02235174447,-187500.02235174447,-187500.02235174447,-187500.02235174447
talvez,3059.3279670867882,-8524.932983509658,7401.310789741372,12521.42489211856,-187500.02235174447,-187500.02235174447,-187500.02235174447,-187500.02235174447
talvez,3233.939794771647,-8560.338146726865,7526.257041246538,12468.719478692947,-187500.02235174447,-187500.02235174447,-187500.02235174447,-187500.02235174447
talvez,3629.0068780191996,-8506.045759444924,8237.10957015867,12463.46681874595,-187500.02235174447,-187500.02235174447,-187500.02235174447,-187500.02235174447
talvez,3505.4017311813514,-8473.188695095623,8178.011557818838,12499.050795918798,-187500.02235174447,-187500.02235174447,-187500.02235174447,-187500.02235174447
talvez,3125.2879649743995,-8537.1146842378,7522.099616777852,12530.81262478979,-187500.02235174447,-187500.02235174447,-187500.02235174447,-187500.02235174447
talvez,3214.5608323288957,-8573.995062589058,7487.320302405394,12549.856311065712,-187500.02235174447,-187500.02235174447,-187500.02235174447,-187500.02235174447
talvez,3592.417072345862,-8537.271146448988,8154.408115674033,12454.146141308087,-187500.02235174447,-187500.02235174447,-187500.02235174447,-187500.02235174447
talvez,3555.0673073610437,-8497.485041318541,8243.457465583977,12464.539702479804,-187500.02235174447,-187500.02235174447,-187500.02235174447,-187500.02235174447
talvez,3228.6647830801944,-8519.993247985036,7675.790211652543,12557.29944196933,-187500.02235174447,-187500.02235174447,-187500.02235174447,-187500.02235174447
talvez,3195.137166397234,-8571.782239887982,7437.855891925799,12563.334412972263,-187500.02235174447,-187500.02235174447,-187500.02235174447,-187500.02235174447
talvez,3593.802880502091,-8545.496588408541,8076.64639671402,12472.720440950447,-187500.02235174447,-187500.02235174447,-187500.02235174447,-187500.02235174447
talvez,3638.2381484792413,-8503.721178021571,8310.915030350094,12465.009089113366,-187500.02235174447,-187500.02235174447,-187500.02235174447,-187500.02235174447
talvez,3321.1786533807103,-8504.369378610776,7831.112483872472,12572.252759009929,-187500.02235174447,-187500.02235174447,-187500.02235174447,-187500.02235174447
talvez,3168.5385904954187,-8554.459637935119,7435.486607013537,12600.527715745893,-187500.02235174447,-187500.02235174447,-187500.02235174447,-187500.02235174447
talvez,3565.1702958548426,-8553.699678623638,7973.381337330501,12495.13924063912,-187500.02235174447,-187500.02235174447,-187500.02235174447,-187500.02235174447
talvez,3686.3838060359726,-8499.11671866378,8364.335699598278,12473.055717117277,-187500.02235174447,-187500.02235174447,-187500.02235174447,-187500.02235174447
talvez,3357.4331828872187,-8500.279009375454,7947.386258528979,12546.548252886327,-187500.02235174447,-187500.02235174447,-187500.02235174447,-187500.02235174447
talvez,3111.2957729453774,-8551.576262900384,7419.728627172545,12570.576378175781,-187500.02235174447,-187500.02235174447,-187500.02235174447,-187500.02235174447
talvez,3453.6574427673154,-8552.716201867604,7847.004574180195,12511.545421069315,-187500.02235174447,-187500.02235174447,-187500.02235174447,-187500.02235174447
talvez,3686.473213013794,-8492.701768005105,8377.23265614899,12484.14218236711,-187500.02235174447,-187500.02235174447,-187500.02235174447,-187500.02235174447
talvez,3405.3329712549416,-8487.24794235801,8057.334489504635,12544.290726696341,-187500.02235174447,-187500.02235174447,-187500.02235174447,-187500.02235174447
talvez,3073.051938182347,-8533.516053380496,7460.967595692587,12593.509267986927,-187500.02235174447,-187500.02235174447,-187500.02235174447,-187500.02235174447
talvez,3315.747179478071,-8551.799780344938,7719.912555207319,12537.071113237276,-187500.02235174447,-187500.02235174447,-187500.02235174447,-187500.02235174447
talvez,3645.43541019385,-8497.216820385078,8341.916899909604,12484.991548656411,-187500.02235174447,-187500.02235174447,-187500.02235174447,-187500.02235174447
talvez,3458.3960125918406,-8479.402480054197,8168.1767902585025,12531.684342823548,-187500.02235174447,-187500.02235174447,-187500.02235174447,-187500.02235174447
talvez,3117.0625230148466,-8518.227460173066,7548.362916512838,12588.524828973394,-187500.02235174447,-187500.02235174447,-187500.02235174447,-187500.02235174447
talvez,3255.330414215376,-8552.045649533946,7612.870051010854,12525.895241009623,-187500.02235174447,-187500.02235174447,-187500.02235174447,-187500.02235174447
talvez,3629.05158150811,-8508.72796877956,8275.01812875487,12444.624298170125,-187500.02235174447,-187500.02235174447,-187500.02235174447,-187500.02235174447
talvez,3490.0237309961,-8482.308206833388,8241.669326027552,12478.04015613081,-187500.02235174447,-187500.02235174447,-187500.02235174447,-187500.02235174447
talvez,3112.301601445866,-8516.193451427633,7627.733961073633,12558.953471059021,-187500.02235174447,-187500.02235174447,-187500.02235174447,-187500.02235174447
talvez,3139.436619214609,-8556.381887958276,7507.213354970617,12520.173194429064,-187500.02235174447,-187500.02235174447,-187500.02235174447,-187500.02235174447
talvez,3555.961377139256,-8511.298419391922,8187.645159679075,12434.655420143059,-187500.02235174447,-187500.02235174447,-187500.02235174447,-187500.02235174447
talvez,3542.863254888446,-8461.968119379058,8314.536012951852,12448.312336005252,-187500.02235174447,-187500.02235174447,-187500.02235174447,-187500.02235174447
talvez,3166.4375265166195,-8492.165326138178,7734.821168759009,12515.032293204344,-187500.02235174447,-187500.02235174447,-187500.02235174447,-187500.02235174447
talvez,3078.0363771958805,-8540.825073817381,7442.6615169836905,12504.974008199455,-187500.02235174447,-187500.02235174447,-187500.02235174447,-187500.02235174447
talvez,3509.179175994298,-8525.290611420944,8094.751309722818,12453.497940718884,-187500.02235174447,-187500.02235174447,-187500.02235174447,-187500.02235174447
talvez,3622.077837238054,-8461.05169785639,8407.563973374841,12487.830220202235,-187500.02235174447,-187500.02235174447,-187500.02235174447,-187500.02235174447
talvez,3287.449870997652,-8467.712517704073,7903.196859740837,12578.086564312765,-187500.02235174447,-187500.02235174447,-187500.02235174447,-187500.02235174447
talvez,3091.000388979958,-8543.93196629667,7442.639165239235,12568.899997341634,-187500.02235174447,-187500.02235174447,-187500.02235174447,-187500.02235174447
talvez,3475.3609866334186,-8515.366436882787,8015.648486095487,12481.728193965935,-187500.02235174447,-187500.02235174447,-187500.02235174447,-187500.02235174447
talvez,3649.078744540065,-8441.873901113737,8443.706744159073,12438.254051000364,-187500.02235174447,-187500.02235174447,-187500.02235174447,-187500.02235174447
talvez,3333.941499464691,-8449.495845972997,7988.759337515752,12516.261639149385,-187500.02235174447,-187500.02235174447,-187500.02235174447,-187500.02235174447
talvez,3066.0334904233805,-8503.92234372167,7441.409819294193,12567.715354885502,-187500.02235174447,-187500.02235174447,-187500.02235174447,-187500.02235174447
talvez,3336.936633221702,-8511.790157769938,7811.889983640908,12491.071223148254,-187500.02235174447,-187500.02235174447,-187500.02235174447,-187500.02235174447
talvez,3600.7989765166017,-8456.58134896533,8375.913903226126,12474.46387701796,-187500.02235174447,-187500.02235174447,-187500.02235174447,-187500.02235174447
talvez,3349.6994793056824,-8445.092552315302,8079.440364770933,12523.213031674986,-187500.02235174447,-187500.02235174447,-187500.02235174447,-187500.02235174447
talvez,3024.0345625918585,-8500.524878564464,7477.753755778523,12571.58220667627,-187500.02235174447,-187500.02235174447,-187500.02235174447,-187500.02235174447
talvez,3266.193362020655,-8509.510279835496,7709.898973691342,12528.175118944064,-187500.02235174447,-187500.02235174447,-187500.02235174447,-187500.02235174447
talvez,3599.994313716211,-8446.970098849548,8355.059725649324,12460.292871033296,-187500.02235174447,-187500.02235174447,-187500.02235174447,-187500.02235174447
talvez,3419.995715617623,-8428.887537585204,8193.188392303991,12516.261639149385,-187500.02235174447,-187500.02235174447,-187500.02235174447,-187500.02235174447
talvez,3047.660356481118,-8474.44039278512,7534.080151805896,12563.87085483919,-187500.02235174447,-187500.02235174447,-187500.02235174447,-187500.02235174447
talvez,3168.6056457287846,-8500.63663728674,7573.665091236245,12507.47740357845,-187500.02235174447,-187500.02235174447,-187500.02235174447,-187500.02235174447
talvez,3586.8067844875795,-8452.62509019674,8296.296989476323,12479.850647431691,-187500.02235174447,-187500.02235174447,-187500.02235174447,-187500.02235174447
talvez,3475.9868354781674,-8429.558089918863,8279.242608456923,12520.776691529358,-187500.02235174447,-187500.02235174447,-187500.02235174447,-187500.02235174447
talvez,3099.5834588507964,-8469.165381093668,7638.395743178814,12569.30232874183,-187500.02235174447,-187500.02235174447,-187500.02235174447,-187500.02235174447
talvez,3103.427958897109,-8500.144898908722,7482.291159902949,12559.981651303966,-187500.02235174447,-187500.02235174447,-187500.02235174447,-187500.02235174447
talvez,3493.9129345313236,-8461.521084489952,8165.740450112874,12467.758353681369,-187500.02235174447,-187500.02235174447,-187500.02235174447,-187500.02235174447
talvez,3483.340559403963,-8421.533813659407,8314.804233885317,12488.120792880154,-187500.02235174447,-187500.02235174447,-187500.02235174447,-187500.02235174447
talvez,3118.8059590823605,-8446.76893314945,7718.035008673073,12557.8135320918,-187500.02235174447,-187500.02235174447,-187500.02235174447,-187500.02235174447
talvez,3053.762382717417,-8467.712517704073,7436.715952958579,12594.11276508722,-187500.02235174447,-187500.02235174447,-187500.02235174447,-187500.02235174447
talvez,3457.904274213824,-8449.004107594981,8069.851466399607,12514.384092615139,-187500.02235174447,-187500.02235174447,-187500.02235174447,-187500.02235174447
talvez,3554.5755689830266,-8404.501784384463,8372.292920624366,12504.772842499357,-187500.02235174447,-187500.02235174447,-187500.02235174447,-187500.02235174447
talvez,3231.034067992457,-8410.603810620763,7877.000615239217,12553.097314011731,-187500.02235174447,-187500.02235174447,-187500.02235174447,-187500.02235174447
talvez,3024.6157079476966,-8474.239227085021,7412.9560486025875,12569.39173571965,-187500.02235174447,-187500.02235174447,-187500.02235174447,-187500.02235174447
talvez,3372.453555161185,-8467.220779326055,7919.848909360041,12491.719423737459,-187500.02235174447,-187500.02235174447,-187500.02235174447,-187500.02235174447
talvez,3569.573589512538,-8404.501784384463,8382.1276881847,12486.824391701746,-187500.02235174447,-187500.02235174447,-187500.02235174447,-187500.02235174447
talvez,3293.9542286341466,-8407.85454605276,7996.627151564021,12579.874703869189,-187500.02235174447,-187500.02235174447,-187500.02235174447,-187500.02235174447
talvez,3049.0908681262576,-8452.446276241097,7455.402011323215,12616.553916520348,-187500.02235174447,-187500.02235174447,-187500.02235174447,-187500.02235174447
talvez,3338.8812349893137,-8452.714497174562,7831.783036206131,12541.362648172695,-187500.02235174447,-187500.02235174447,-187500.02235174447,-187500.02235174447
talvez,3591.6794647788365,-8412.928392044114,8384.720490541516,12476.095554363199,-187500.02235174447,-187500.02235174447,-187500.02235174447,-187500.02235174447
talvez,3349.9900519836015,-8423.813691593848,8102.574420282176,12511.500717580406,-187500.02235174447,-187500.02235174447,-187500.02235174447,-187500.02235174447
talvez,3067.46400206852,-8443.639688925707,7508.375645682293,12613.178803107598,-187500.02235174447,-187500.02235174447,-187500.02235174447,-187500.02235174447
talvez,3282.487783728574,-8454.882616386725,7709.250773102138,12586.513171972416,-187500.02235174447,-187500.02235174447,-187500.02235174447,-187500.02235174447
talvez,3616.892232524423,-8411.22965946551,8365.98972868797,12520.061435706788,-187500.02235174447,-187500.02235174447,-187500.02235174447,-187500.02235174447
$SILENCE,3455.5573410460165,-8387.89443825417,8241.512863816364,12536.221746947975,-187500.02235174447,-187500.02235174447,-187500.02235174447,-187500.02235174447
$SILENCE,3108.7029705885616,-8427.635839895707,7606.656266052279,12604.841602425768,-187500.02235174447,-187500.02235174447,-187500.02235174447,-187500.02235174447
$SILENCE,3213.3538381283092,-8456.357831520776,7609.137309686817,12588.882456884678,-187500.02235174447,-187500.02235174447,-187500.02235174447,-187500.02235174447
$SILENCE,3592.215906645764,-8412.235487966,8314.178385040568,12528.890374766634,-187500.02235174447,-187500.02235174447,-187500.02235174447,-187500.02235174447
$SILENCE,3535.733048407203,-8387.357996387243,8365.877969965693,12566.374250218183,-187500.02235174447,-187500.02235174447,-187500.02235174447,-187500.02235174447
$SILENCE,3180.3850150567314,-8415.14121474519,7712.2012033702385,12625.204041624553,-187500.02235174447,-187500.02235174447,-187500.02235174447,-187500.02235174447
$SILENCE,3158.5473607238964,-8446.299546515887,7519.6185731433125,12612.463547285028,-187500.02235174447,-187500.02235174447,-187500.02235174447,-187500.02235174447
$SILENCE,3550.1946270697867,-8434.453121954575,8187.645159679075,12522.095444452221,-187500.02235174447,-187500.02235174447,-187500.02235174447,-187500.02235174447
$SILENCE,3568.701871478781,-8400.254952937956,8369.70011826755,12544.871872052177,-187500.02235174447,-187500.02235174447,-187500.02235174447,-187500.02235174447
$SILENCE,3270.5743039338954,-8396.18693544709,7874.139591948938,12661.50327461997,-187500.02235174447,-187500.02235174447,-187500.02235174447,-187500.02235174447
$SILENCE,3143.169360538645,-8458.19067456611,7505.894602047754,12649.612146569747,-187500.02235174447,-187500.02235174447,-187500.02235174447,-187500.02235174447
$SILENCE,3509.402693438851,-8446.076029071335,8051.679498157442,12550.303345954819,-187500.02235174447,-187500.02235174447,-187500.02235174447,-187500.02235174447
$SILENCE,3599.8154997605684,-8397.103356969757,8361.742897241462,12523.883584008645,-187500.02235174447,-187500.02235174447,-187500.02235174447,-187500.02235174447
$SILENCE,3282.264266284021,-8426.250031739477,7911.891688333952,12585.06030858282,-187500.02235174447,-187500.02235174447,-187500.02235174447,-187500.02235174447
$SILENCE,3102.913868774637,-8469.120677604757,7493.936418764165,12646.862882001744,-187500.02235174447,-187500.02235174447,-187500.02235174447,-187500.02235174447
$SILENCE,3452.517503800095,-8452.647441941195,7931.203595543337,12575.20318927803,-187500.02235174447,-187500.02235174447,-187500.02235174447,-187500.02235174447
$SILENCE,3615.4170173903726,-8427.792302106895,8376.98678695998,12520.106139195697,-187500.02235174447,-187500.02235174447,-187500.02235174447,-187500.02235174447
$SILENCE,3380.3437209539084,-8415.185918234101,8145.869749292106,12615.34692231976,-187500.02235174447,-187500.02235174447,-187500.02235174447,-187500.02235174447
$SILENCE,3101.818633296327,-8465.790267680915,7555.5378264829915,12647.488730846493,-187500.02235174447,-187500.02235174447,-187500.02235174447,-187500.02235174447
$SILENCE,3370.2183807156543,-8455.240244298011,7771.321567454525,12581.171105047597,-187500.02235174447,-187500.02235174447,-187500.02235174447,-187500.02235174447
$SILENCE,3638.2605002236965,-8400.14319421568,8330.383399770666,12514.227630403951,-187500.02235174447,-187500.02235174447,-187500.02235174447,-187500.02235174447
$SILENCE,3377.326235452442,-8461.118753089757,8094.103109133614,12493.75343248289,-187500.02235174447,-187500.02235174447,-187500.02235174447,-187500.02235174447
$SILENCE,3099.3599414062433,-8475.647386985705,7506.028712514486,12587.474296983994,-187500.02235174447,-187500.02235174447,-187500.02235174447,-187500.02235174447
$SILENCE,3241.494684397541,-8525.558832354407,7642.150836247306,12534.634773091648,-187500.02235174447,-187500.02235174447,-187500.02235174447,-187500.02235174447
$SILENCE,3622.9719070162664,-8453.854436141783,8338.74295219695,12499.319016852263,-187500.02235174447,-187500.02235174447,-187500.02235174447,-187500.02235174447
$SILENCE,3461.1005736709326,-8451.641613440706,8197.725796428418,12483.8963131781,-187500.02235174447,-187500.02235174447,-187500.02235174447,-187500.02235174447
$SILENCE,3117.755427092961,-8469.2994915604,7591.770004245044,12578.757116646424,-187500.02235174447,-187500.02235174447,-187500.02235174447,-187500.02235174447
$SILENCE,3148.042040829902,-8540.31098369491,7551.469808992125,12529.650334078115,-187500.02235174447,-187500.02235174447,-187500.02235174447,-187500.02235174447
$SILENCE,3540.5833769540045,-8490.958331937592,8231.164006133558,12457.789475654303,-187500.02235174447,-187500.02235174447,-187500.02235174447,-187500.02235174447
$SILENCE,3471.740004031659,-8480.721232977061,8255.594462823208,12447.664135416047,-187500.02235174447,-187500.02235174447,-187500.02235174447,-187500.02235174447
$SILENCE,3111.943973534581,-8526.1623294547,7628.784493063033,12510.472537335461,-187500.02235174447,-187500.02235174447,-187500.02235174447,-187500.02235174447
$SILENCE,3094.621371581718,-8557.946510070147,7439.264051826483,12517.826261261256,-187500.02235174447,-187500.02235174447,-187500.02235174447,-187500.02235174447
$SILENCE,3487.0509489835445,-8524.30713466491,8099.311065591702,12427.771082850824,-187500.02235174447,-187500.02235174447,-187500.02235174447,-187500.02235174447
$SILENCE,3520.9138418333346,-8480.475363788053,8321.30859152181,12426.854661328158,-187500.02235174447,-187500.02235174447,-187500.02235174447,-187500.02235174447
$SILENCE,3168.270369561955,-8507.990361212536,7778.541180913589,12473.145124095097,-187500.02235174447,-187500.02235174447,-187500.02235174447,-187500.02235174447
$SILENCE,3027.499082982431,-8561.612196160817,7396.169888516652,12496.547400539805,-187500.02235174447,-187500.02235174447,-187500.02235174447,-187500.02235174447
$SILENCE,3414.9442213707234,-8552.31387046741,7977.516410054734,12429.916850318534,-187500.02235174447,-187500.02235174447,-187500.02235174447,-187500.02235174447
$SILENCE,3549.3229090360296,-8499.608457041795,8344.93438541107,12407.341588418674,-187500.02235174447,-187500.02235174447,-187500.02235174447,-187500.02235174447
$SILENCE,3219.8581957648034,-8500.390768097732,7873.491391359734,12466.529007736328,-187500.02235174447,-187500.02235174447,-187500.02235174447,-187500.02235174447
$SILENCE,3000.274658235867,-8543.373172685287,7373.482867894515,12496.927380195544,-187500.02235174447,-187500.02235174447,-187500.02235174447,-187500.02235174447
$SILENCE,3321.84920571437,-8565.389640973764,7811.510003985168,12405.776966306803,-187500.02235174447,-187500.02235174447,-187500.02235174447,-187500.02235174447
$SILENCE,3522.478463945206,-8526.005867243513,8306.444681459032,12368.650718766537,-187500.02235174447,-187500.02235174447,-187500.02235174447,-187500.02235174447
$SILENCE,3274.619969680306,-8509.845556002327,7983.506677568756,12428.687504373493,-187500.02235174447,-187500.02235174447,-187500.02235174447,-187500.02235174447
$SILENCE,2987.73532959644,-8554.683155379673,7408.664513667169,12493.015824915867,-187500.02235174447,-187500.02235174447,-187500.02235174447,-187500.02235174447
$SILENCE,3235.683230839161,-8571.335204998875,7701.673531731789,12427.659324128548,-187500.02235174447,-187500.02235174447,-187500.02235174447,-187500.02235174447
$SILENCE,3529.765132637636,-8517.02046597248,8300.11913777818,12364.11331464211,-187500.02235174447,-187500.02235174447,-187500.02235174447,-187500.02235174447
$SILENCE,3339.7306012786153,-8505.196393155622,8091.242085843335,12416.304637945252,-187500.02235174447,-187500.02235174447,-187500.02235174447,-187500.02235174447
$SILENCE,3008.6789141510626,-8545.83186457537,7466.533180061959,12486.355005068184,-187500.02235174447,-187500.02235174447,-187500.02235174447,-187500.02235174447
$SILENCE,3159.106154335279,-8575.872609123304,7571.698137724178,12435.996524810378,-187500.02235174447,-187500.02235174447,-187500.02235174447,-187500.02235174447
$SILENCE,3509.2909347165746,-8525.759998054506,8231.3428200892,12368.181332132976,-187500.02235174447,-187500.02235174447,-187500.02235174447,-187500.02235174447
$SILENCE,3394.470023449662,-8493.260561616487,8185.164116044536,12413.108338488144,-187500.02235174447,-187500.02235174447,-187500.02235174447,-187500.02235174447
$SILENCE,3039.9713563884925,-8525.894108521237,7564.344413798382,12487.450240546494,-187500.02235174447,-187500.02235174447,-187500.02235174447,-187500.02235174447
$SILENCE,3082.0373394533804,-8572.229274777088,7463.71686026059,12448.17822553852,-187500.02235174447,-187500.02235174447,-187500.02235174447,-187500.02235174447
$SILENCE,3457.8372189804577,-8538.344030182843,8127.541318838754,12364.605053020126,-187500.02235174447,-187500.02235174447,-187500.02235174447,-187500.02235174447
$SILENCE,3426.0753901094668,-8494.020520927968,8237.087218414214,12393.438803367473,-187500.02235174447,-187500.02235174447,-187500.02235174447,-187500.02235174447
$SILENCE,3089.1004907012575,-8512.483061848052,7670.314034260993,12482.666967233059,-187500.02235174447,-187500.02235174447,-187500.02235174447,-187500.02235174447
$SILENCE,3035.501007497431,-8570.754059643037,7420.555641717392,12493.395804571606,-187500.02235174447,-187500.02235174447,-187500.02235174447,-187500.02235174447
$SILENCE,3433.58557624645,-8550.458675677619,8060.910768617484,12406.872201785112,-187500.02235174447,-187500.02235174447,-187500.02235174447,-187500.02235174447
$SILENCE,3478.154954690332,-8478.329596320344,8301.415538956588,12396.031605724289,-187500.02235174447,-187500.02235174447,-187500.02235174447,-187500.02235174447
$SILENCE,3139.883654103715,-8492.590009282829,7777.401241946369,12472.295757805796,-187500.02235174447,-187500.02235174447,-187500.02235174447,-187500.02235174447
$SILENCE,2991.5798296427524,-8545.720105853094,7378.646120863691,12502.850592476201,-187500.02235174447,-187500.02235174447,-187500.02235174447,-187500.02235174447
$SILENCE,3367.804392314481,-8536.39942841523,7929.549566453644,12421.691408358982,-187500.02235174447,-187500.02235174447,-187500.02235174447,-187500.02235174447
$SILENCE,3499.5232223896055,-8483.515201033975,8315.050103074325,12416.036417011788,-187500.02235174447,-187500.02235174447,-187500.02235174447,-187500.02235174447
$SILENCE,3223.3227161553764,-8482.174096366656,7901.185202739859,12484.969196911956,-187500.02235174447,-187500.02235174447,-187500.02235174447,-187500.02235174447
$SILENCE,2998.017132045881,-8523.524823608974,7393.688844882113,12527.012828232388,-187500.02235174447,-187500.02235174447,-187500.02235174447,-187500.02235174447
$SILENCE,3291.6296472107947,-8528.889242278248,7802.725768414232,12438.656382400559,-187500.02235174447,-187500.02235174447,-187500.02235174447,-187500.02235174447
$SILENCE,3532.0450105720774,-8467.86897991526,8336.84305391825,12409.040320997277,-187500.02235174447,-187500.02235174447,-187500.02235174447,-187500.02235174447
$SILENCE,3297.686969958183,-8456.827218154338,8038.715486373364,12480.52119976535,-187500.02235174447,-187500.02235174447,-187500.02235174447,-187500.02235174447
$SILENCE,2994.4408529330317,-8507.789195512438,7429.1610633326845,12543.307249940306,-187500.02235174447,-187500.02235174447,-187500.02235174447,-187500.02235174447
$SILENCE,3218.7853120309487,-8527.436378888653,7668.503542960113,12483.829257944735,-187500.02235174447,-187500.02235174447,-187500.02235174447,-187500.02235174447
$SILENCE,3535.5542344515607,-8471.221741583555,8296.565210409786,12433.291963731286,-187500.02235174447,-187500.02235174447,-187500.02235174447,-187500.02235174447
$SILENCE,3371.291264449509,-8450.032287839924,8137.577252099187,12490.557133025783,-187500.02235174447,-187500.02235174447,-187500.02235174447,-187500.02235174447
$SILENCE,3044.307594812822,-8488.454936558597,7528.760436625534,12554.81839833479,-187500.02235174447,-187500.02235174447,-187500.02235174447,-187500.02235174447
$SILENCE,3172.5842562418293,-8521.3120009079,7577.889570938298,12513.8029472593,-187500.02235174447,-187500.02235174447,-187500.02235174447,-187500.02235174447
$SILENCE,3523.9313273348007,-8479.402480054197,8230.784026477817,12442.344420235684,-187500.02235174447,-187500.02235174447,-187500.02235174447,-187500.02235174447
$SILENCE,3409.1774713012546,-8448.087686072313,8202.933752886505,12471.356984538674,-187500.02235174447,-187500.02235174447,-187500.02235174447,-187500.02235174447
$SILENCE,3070.0568044253355,-8467.667814215161,7603.594077061901,12551.800912833323,-187500.02235174447,-187500.02235174447,-187500.02235174447,-187500.02235174447
$SILENCE,3093.4590808700423,-8511.119605436279,7483.542857592447,12530.700866067513,-187500.02235174447,-187500.02235174447,-187500.02235174447,-187500.02235174447
$SILENCE,3487.4085768948294,-8477.547285264407,8162.141819255569,12461.477513489428,-187500.02235174447,-187500.02235174447,-187500.02235174447,-187500.02235174447
$SILENCE,3480.434832624773,-8439.035229567913,8287.892733561128,12476.52023750785,-187500.02235174447,-187500.02235174447,-187500.02235174447,-187500.02235174447
$SILENCE,3123.90215681817,-8462.839837412816,7704.62396199989,12552.203244233518,-187500.02235174447,-187500.02235174447,-187500.02235174447,-187500.02235174447
$SILENCE,3024.1016178252244,-8513.086558948346,7399.746167629501,12542.681401095559,-187500.02235174447,-187500.02235174447,-187500.02235174447,-187500.02235174447
$SILENCE,3408.506918967595,-8488.790212725427,8020.811739064663,12456.917757620546,-187500.02235174447,-187500.02235174447,-187500.02235174447,-187500.02235174447
$SILENCE,3498.472690400206,-8434.67663939913,8322.895565378138,12463.869150146145,-187500.02235174447,-187500.02235174447,-187500.02235174447,-187500.02235174447
$SILENCE,3184.207163358589,-8444.354944748276,7834.085265885028,12545.67653485257,-187500.02235174447,-187500.02235174447,-187500.02235174447,-187500.02235174447
$SILENCE,3009.304762995811,-8498.848497730314,7400.550830429892,12570.732840386969,-187500.02235174447,-187500.02235174447,-187500.02235174447,-187500.02235174447
$SILENCE,3365.1445347242993,-8497.663855274184,7918.2395837592585,12481.929359666034,-187500.02235174447,-187500.02235174447,-187500.02235174447,-187500.02235174447
$SILENCE,3527.9099378478454,-8437.917642345148,8338.430027774577,12460.27051928884,-187500.02235174447,-187500.02235174447,-187500.02235174447,-187500.02235174447
$SILENCE,3232.4645796375967,-8443.550281947886,7921.279421005181,12521.514299096383,-187500.02235174447,-187500.02235174447,-187500.02235174447,-187500.02235174447
$SILENCE,2980.538067881831,-8493.640541272229,7389.8443448358,12578.10891605722,-187500.02235174447,-187500.02235174447,-187500.02235174447,-187500.02235174447
$SILENCE,3272.9882923350683,-8503.63177104375,7783.905599582863,12527.348104399218,-187500.02235174447,-187500.02235174447,-187500.02235174447,-187500.02235174447
$SILENCE,3514.40948419684,-8447.171264549645,8321.755626410917,12453.944975607988,-187500.02235174447,-187500.02235174447,-187500.02235174447,-187500.02235174447
$SILENCE,3315.6354207557943,-8432.732037631517,8064.8670273860735,12522.8554037637,-187500.02235174447,-187500.02235174447,-187500.02235174447,-187500.02235174447
$SILENCE,3013.529242697864,-8475.692090474617,7452.831560710855,12569.235273508462,-187500.02235174447,-187500.02235174447,-187500.02235174447,-187500.02235174447
$SILENCE,3217.6677248081837,-8498.49086981903,7652.164417763283,12501.844763975712,-187500.02235174447,-187500.02235174447,-187500.02235174447,-187500.02235174447
$SILENCE,3532.447341972273,-8463.1974653241,8287.199829483012,12452.22389128493,-187500.02235174447,-187500.02235174447,-187500.02235174447,-187500.02235174447
$SILENCE,3360.875351533336,-8437.627069667229,8146.026211503293,12506.09159542222,-187500.02235174447,-187500.02235174447,-187500.02235174447,-187500.02235174447
$SILENCE,3012.434007219554,-8480.564770765874,7506.7216165926,12563.647337394636,-187500.02235174447,-187500.02235174447,-187500.02235174447,-187500.02235174447
$SILENCE,3144.5328169504187,-8508.213878657089,7549.324041524415,12526.67755206556,-187500.02235174447,-187500.02235174447,-187500.02235174447,-187500.02235174447
$SILENCE,3512.308420218041,-8462.48220950153,8222.87150894064,12447.261804015852,-187500.02235174447,-187500.02235174447,-187500.02235174447,-187500.02235174447
$SILENCE,3420.15217782881,-8426.026514294925,8223.452654296476,12477.503714263883,-187500.02235174447,-187500.02235174447,-187500.02235174447,-187500.02235174447
$SILENCE,3057.852751952738,-8459.665889700162,7604.823423006943,12547.285860453352,-187500.02235174447,-187500.02235174447,-187500.02235174447,-187500.02235174447
$SILENCE,3065.6758625120956,-8508.68326529065,7450.551682776414,12540.28976443884,-187500.02235174447,-187500.02235174447,-187500.02235174447,-187500.02235174447
$SILENCE,3467.381413862874,-8475.401517796698,8123.473301347888,12459.55526346627,-187500.02235174447,-187500.02235174447,-187500.02235174447,-187500.02235174447
$SILENCE,3467.2920068850526,-8428.149930018179,8286.35046319371,12472.966310139456,-187500.02235174447,-187500.02235174447,-187500.02235174447,-187500.02235174447
$SILENCE,3110.8934415451818,-8444.153779048178,7720.7172180077105,12554.48312216796,-187500.02235174447,-187500.02235174447,-187500.02235174447,-187500.02235174447
$SILENCE,3010.265888007389,-8496.926247707159,7395.32052222735,12553.343183200739,-187500.02235174447,-187500.02235174447,-187500.02235174447,-187500.02235174447
$SILENCE,3383.71883436666,-8485.303340590399,8001.209259177359,12471.289929305307,-187500.02235174447,-187500.02235174447,-187500.02235174447,-187500.02235174447
$SILENCE,3464.095707427944,-8434.1401975322,8320.414521743598,12481.705842221481,-187500.02235174447,-187500.02235174447,-187500.02235174447,-187500.02235174447
$SILENCE,3145.069258817346,-8439.392857479199,7831.917146672863,12557.612366391704,-187500.02235174447,-187500.02235174447,-187500.02235174447,-187500.02235174447
$SILENCE,2978.7722800698616,-8488.67845400315,7369.303091681372,12559.780485603867,-187500.02235174447,-187500.02235174447,-187500.02235174447,-187500.02235174447
$SILENCE,3350.61590082835,-8482.621131255763,7871.725603547765,12473.122772350642,-187500.02235174447,-187500.02235174447,-187500.02235174447,-187500.02235174447
$SILENCE,3525.965336080234,-8437.135331289212,8322.090902577747,12444.534891192305,-187500.02235174447,-187500.02235174447,-187500.02235174447,-187500.02235174447
$SILENCE,3259.8007631064374,-8441.113941802258,7944.704049194343,12514.697017037513,-187500.02235174447,-187500.02235174447,-187500.02235174447,-187500.02235174447
$SILENCE,2998.6876843795403,-8489.684282503638,7387.162135501163,12568.475314196983,-187500.02235174447,-187500.02235174447,-187500.02235174447,-187500.02235174447
$SILENCE,3273.301216757443,-8502.737701265538,7735.536424581579,12494.42398481655,-187500.02235174447,-187500.02235174447,-187500.02235174447,-187500.02235174447
$SILENCE,3547.579472968516,-8447.394781994199,8303.583658168753,12441.517405690838,-187500.02235174447,-187500.02235174447,-187500.02235174447,-187500.02235174447
$SILENCE,3323.4138278262412,-8431.703857386572,8055.16637029247,12500.637769775125,-187500.02235174447,-187500.02235174447,-187500.02235174447,-187500.02235174447
$SILENCE,2986.3048179513003,-8476.116773619267,7441.7227437165675,12562.216825749496,-187500.02235174447,-187500.02235174447,-187500.02235174447,-187500.02235174447
$SILENCE,3168.851514917793,-8503.989398955036,7605.6951410407,12501.554191297793,-187500.02235174447,-187500.02235174447,-187500.02235174447,-187500.02235174447
$SILENCE,3520.578565666505,-8451.44044774061,8257.337898890722,12439.572803923227,-187500.02235174447,-187500.02235174447,-187500.02235174447,-187500.02235174447
$SILENCE,3367.71498533666,-8422.651400882174,8147.724944081896,12488.14314462461,-187500.02235174447,-187500.02235174447,-187500.02235174447,-187500.02235174447
$SILENCE,3018.2678125223892,-8461.185808323122,7511.236668972572,12559.95929955951,-187500.02235174447,-187500.02235174447,-187500.02235174447,-187500.02235174447
$SILENCE,3096.7447873049723,-8501.329541364854,7497.423290899193,12535.215918447486,-187500.02235174447,-187500.02235174447,-187500.02235174447,-187500.02235174447
$SILENCE,3446.5942915194382,-8461.811657167871,8179.196200274969,12464.472647246439,-187500.02235174447,-187500.02235174447,-187500.02235174447,-187500.02235174447
$SILENCE,3374.1522877397883,-8425.937107317104,8215.741302459395,12473.458048517472,-187500.02235174447,-187500.02235174447,-187500.02235174447,-187500.02235174447
$SILENCE,3057.785696719372,-8454.01089835297,7621.6989900707,12538.725142326968,-187500.02235174447,-187500.02235174447,-187500.02235174447,-187500.02235174447
$SILENCE,3069.9897491919696,-8496.032177928946,7453.591520022335,12531.438473634538,-187500.02235174447,-187500.02235174447,-187500.02235174447,-187500.02235174447
$SILENCE,3432.356230301408,-8471.266445072466,8061.849541884607,12453.319126763241,-187500.02235174447,-187500.02235174447,-187500.02235174447,-187500.02235174447
$SILENCE,3461.7934777490473,-8426.697066628583,8294.59825689772,12467.13250483662,-187500.02235174447,-187500.02235174447,-187500.02235174447,-187500.02235174447
$SILENCE,3092.989694236481,-8439.169340034645,7704.445148044247,12549.141055243143,-187500.02235174447,-187500.02235174447,-187500.02235174447,-187500.02235174447
$SILENCE,2993.7479488549175,-8486.800907468905,7382.803545332378,12550.370401188184,-187500.02235174447,-187500.02235174447,-187500.02235174447,-187500.02235174447
$SILENCE,3326.453665072163,-8481.190619610623,7917.837252359063,12476.699051463493,-187500.02235174447,-187500.02235174447,-187500.02235174447,-187500.02235174447
$SILENCE,3468.0743179409887,-8432.642630653696,8278.527352634354,12462.304528034274,-187500.02235174447,-187500.02235174447,-187500.02235174447,-187500.02235174447
$SILENCE,3195.651256519706,-8438.76700863445,7829.994896649707,12514.04881644831,-187500.02235174447,-187500.02235174447,-187500.02235174447,-187500.02235174447
$SILENCE,2976.760623068884,-8491.852401715803,7351.108771694752,12546.838825564246,-187500.02235174447,-187500.02235174447,-187500.02235174447,-187500.02235174447
$SILENCE,3281.392548250264,-8494.266390116976,7820.696570956299,12469.61354847116,-187500.02235174447,-187500.02235174447,-187500.02235174447,-187500.02235174447
$SILENCE,3481.708882058726,-8437.269441755943,8302.287256990345,12442.836158613702,-187500.02235174447,-187500.02235174447,-187500.02235174447,-187500.02235174447
$SILENCE,3227.435437135153,-8432.106188786769,7948.928528896396,12510.0031507019,-187500.02235174447,-187500.02235174447,-187500.02235174447,-187500.02235174447
$SILENCE,2955.481762347432,-8479.223666098556,7375.203952217574,12557.187683247052,-187500.02235174447,-187500.02235174447,-187500.02235174447,-187500.02235174447
$SILENCE,3206.9612392140916,-8492.567657538373,7690.430604270769,12493.57461852725,-187500.02235174447,-187500.02235174447,-187500.02235174447,-187500.02235174447
$SILENCE,3491.208373452231,-8438.47643595653,8280.561361379787,12445.89834760408,-187500.02235174447,-187500.02235174447,-187500.02235174447,-187500.02235174447
$SILENCE,3313.1767288657106,-8427.814653851348,8057.870931371562,12492.904066193589,-187500.02235174447,-187500.02235174447,-187500.02235174447,-187500.02235174447
$SILENCE,2994.0385215328365,-8471.601721239296,7434.100798857307,12550.124531999176,-187500.02235174447,-187500.02235174447,-187500.02235174447,-187500.02235174447
$SILENCE,3151.7747821539383,-8504.279971632955,7564.433820776203,12503.096461665209,-187500.02235174447,-187500.02235174447,-187500.02235174447,-187500.02235174447
$SILENCE,3481.8206407810026,-8456.693107687606,8218.512918771854,12432.979039308912,-187500.02235174447,-187500.02235174447,-187500.02235174447,-187500.02235174447
$SILENCE,3340.870540245836,-8427.725246873528,8137.376086399089,12472.921606650545,-187500.02235174447,-187500.02235174447,-187500.02235174447,-187500.02235174447
$SILENCE,2991.4457191760207,-8460.001165866992,7516.466977175114,12559.95929955951,-187500.02235174447,-187500.02235174447,-187500.02235174447,-187500.02235174447
$SILENCE,3053.2259408504897,-8494.288741861432,7467.561360306902,12536.71348532599,-187500.02235174447,-187500.02235174447,-187500.02235174447,-187500.02235174447
$SILENCE,3453.679794511771,-8456.089610587313,8145.534473125276,12438.835196356202,-187500.02235174447,-187500.02235174447,-187500.02235174447,-187500.02235174447
$SILENCE,3410.093892823922,-8426.630011395218,8215.562488503754,12451.173359295532,-187500.02235174447,-187500.02235174447,-187500.02235174447,-187500.02235174447
$SILENCE,3053.538865272864,-8456.201369309589,7611.1266149433395,12525.559964842792,-187500.02235174447,-187500.02235174447,-187500.02235174447,-187500.02235174447
$SILENCE,3016.010286332403,-8499.809622741894,7386.536286656415,12531.863156779189,-187500.02235174447,-187500.02235174447,-187500.02235174447,-187500.02235174447
$SILENCE,3408.439863734229,-8469.679471216139,8036.9273468169395,12439.461045200951,-187500.02235174447,-187500.02235174447,-187500.02235174447,-187500.02235174447
$SILENCE,3454.037422423056,-8423.187842749101,8267.77616355135,12446.278327259819,-187500.02235174447,-187500.02235174447,-187500.02235174447,-187500.02235174447
$SILENCE,3111.4075316676535,-8446.590119193806,7739.023296716607,12530.47734862296,-187500.02235174447,-187500.02235174447,-187500.02235174447,-187500.02235174447
$SILENCE,2957.0016809703925,-8495.719253506571,7351.891082750689,12545.274203452374,-187500.02235174447,-187500.02235174447,-187500.02235174447,-187500.02235174447
$SILENCE,3343.128066435822,-8482.1517446222,7926.1073978075265,12457.811827398757,-187500.02235174447,-187500.02235174447,-187500.02235174447,-187500.02235174447
$SILENCE,3497.288047944075,-8427.993467806991,8333.825568416783,12442.634992913603,-187500.02235174447,-187500.02235174447,-187500.02235174447,-187500.02235174447
$SILENCE,3173.4112707866757,-8435.48130219952,7848.770361992164,12518.228592661453,-187500.02235174447,-187500.02235174447,-187500.02235174447,-187500.02235174447
$SILENCE,2974.994835256915,-8485.303340590399,7363.849266034278,12545.274203452374,-187500.02235174447,-187500.02235174447,-187500.02235174447,-187500.02235174447
$SILENCE,3269.3002544999426,-8492.701768005105,7773.10970701095,12474.530932251328,-187500.02235174447,-187500.02235174447,-187500.02235174447,-187500.02235174447
$SILENCE,3479.7866320355693,-8443.460874970064,8269.564303107774,12439.773969623324,-187500.02235174447,-187500.02235174447,-187500.02235174447,-187500.02235174447
$SILENCE,3232.4869313820523,-8435.213081266056,7959.635014490487,12504.079938421242,-187500.02235174447,-187500.02235174447,-187500.02235174447,-187500.02235174447
$SILENCE,2947.3233756212444,-8484.833953956837,7375.472173151037,12543.53076738486,-187500.02235174447,-187500.02235174447,-187500.02235174447,-187500.02235174447
$SILENCE,3209.8893177377367,-8504.145861166222,7650.08570552894,12466.529007736328,-187500.02235174447,-187500.02235174447,-187500.02235174447,-187500.02235174447
$SILENCE,3511.079074272999,-8450.09934307329,8264.199884438502,12420.193841480475,-187500.02235174447,-187500.02235174447,-187500.02235174447,-187500.02235174447
$SILENCE,3310.516871275529,-8431.614450408752,8067.951568120906,12471.938129894512,-187500.02235174447,-187500.02235174447,-187500.02235174447,-187500.02235174447
$SILENCE,2977.92291378056,-8472.62990148424,7441.432171038648,12542.234366206452,-187500.02235174447,-187500.02235174447,-187500.02235174447,-187500.02235174447
$SILENCE,3130.361810965754,-8504.2576198885,7533.543709938969,12496.726214495447,-187500.02235174447,-187500.02235174447,-187500.02235174447,-187500.02235174447
$SILENCE,3484.704015815737,-8459.710593189073,8211.695636712986,12433.381370709107,-187500.02235174447,-187500.02235174447,-187500.02235174447,-187500.02235174447
$SILENCE,3353.5886828409057,-8434.408418465664,8160.04075527677,12468.473609503939,-187500.02235174447,-187500.02235174447,-187500.02235174447,-187500.02235174447
$SILENCE,3015.0044578319144,-8466.10319210329,7529.453340703648,12533.293668424329,-187500.02235174447,-187500.02235174447,-187500.02235174447,-187500.02235174447
$SILENCE,3064.111240400224,-8500.904858220203,7437.095932614319,12496.279179606341,-187500.02235174447,-187500.02235174447,-187500.02235174447,-187500.02235174447
$SILENCE,3445.7225734856816,-8465.656157214184,8116.0525221887265,12408.54858261926,-187500.02235174447,-187500.02235174447,-187500.02235174447,-187500.02235174447
$SILENCE,3419.3922185173296,-8428.61931665174,8227.29715434279,12434.141330020588,-187500.02235174447,-187500.02235174447,-187500.02235174447,-187500.02235174447
$SILENCE,3084.6077900657406,-8454.81556115336,7642.106132758396,12512.841822247723,-187500.02235174447,-187500.02235174447,-187500.02235174447,-187500.02235174447
$SILENCE,3021.7993881463276,-8504.525840821963,7372.789963816401,12510.76311001338,-187500.02235174447,-187500.02235174447,-187500.02235174447,-187500.02235174447
$SILENCE,3409.490395723629,-8484.275160345454,8007.333637158113,12432.800225353269,-187500.02235174447,-187500.02235174447,-187500.02235174447,-187500.02235174447
$SILENCE,3469.996567964145,-8436.91181384466,8273.699375832008,12437.918774833533,-187500.02235174447,-187500.02235174447,-187500.02235174447,-187500.02235174447
$SILENCE,3139.213101770056,-8451.351040762787,7758.670480092822,12507.76797625637,-187500.02235174447,-187500.02235174447,-187500.02235174447,-187500.02235174447
$SILENCE,2979.4651841479763,-8501.86598323178,7340.268175633929,12519.368531628674,-187500.02235174447,-187500.02235174447,-187500.02235174447,-187500.02235174447
$SILENCE,3350.5041421060732,-8494.355797094799,7884.7790223096645,12430.833271841202,-187500.02235174447,-187500.02235174447,-187500.02235174447,-187500.02235174447
$SILENCE,3506.832242826491,-8443.840854625805,8292.273675474367,12411.431957653995,-187500.02235174447,-187500.02235174447,-187500.02235174447,-187500.02235174447
$SILENCE,3212.370361372276,-8448.869997128248,7870.630368069455,12481.817600943757,-187500.02235174447,-187500.02235174447,-187500.02235174447,-187500.02235174447
$SILENCE,2972.3573294111884,-8499.451994830608,7341.944556468076,12521.916630496578,-187500.02235174447,-187500.02235174447,-187500.02235174447,-187500.02235174447
$SILENCE,3281.8842866282807,-8504.592896055328,7755.541235869078,12449.385219739106,-187500.02235174447,-187500.02235174447,-187500.02235174447,-187500.02235174447
$SILENCE,3533.900205361868,-8446.746581404994,8297.615742399186,12419.210364724442,-187500.02235174447,-187500.02235174447,-187500.02235174447,-187500.02235174447
$SILENCE,3287.583981464384,-8440.778665635427,7994.123756185027,12481.638786988115,-187500.02235174447,-187500.02235174447,-187500.02235174447,-187500.02235174447
$SILENCE,2998.821794846272,-8483.761070222983,7420.265069039473,12524.040046219832,-187500.02235174447,-187500.02235174447,-187500.02235174447,-187500.02235174447
$SILENCE,3206.916535725181,-8502.290666376432,7637.0099350225855,12459.510559977361,-187500.02235174447,-187500.02235174447,-187500.02235174447,-187500.02235174447
$SILENCE,3510.8555568284464,-8459.598834466797,8231.320468344746,12405.911076773535,-187500.02235174447,-187500.02235174447,-187500.02235174447,-187500.02235174447
$SILENCE,3342.5245693355287,-8439.549319690386,8077.495763003321,12457.811827398757,-187500.02235174447,-187500.02235174447,-187500.02235174447,-187500.02235174447
$SILENCE,3005.281448993856,-8477.502581775498,7453.658575255701,12522.76599678588,-187500.02235174447,-187500.02235174447,-187500.02235174447,-187500.02235174447
$SILENCE,3127.9925260534915,-8513.265372903988,7510.297895705449,12477.816638686258,-187500.02235174447,-187500.02235174447,-187500.02235174447,-187500.02235174447
$SILENCE,3491.49894613015,-8470.01474738297,8187.175773045514,12407.587457607682,-187500.02235174447,-187500.02235174447,-187500.02235174447,-187500.02235174447
$SILENCE,3400.3038287524973,-8440.71161040206,8173.831781605695,12448.580556938716,-187500.02235174447,-187500.02235174447,-187500.02235174447,-187500.02235174447
$SILENCE,3061.786658976872,-8464.985604880525,7556.588358472391,12524.598839831215,-187500.02235174447,-187500.02235174447,-187500.02235174447,-187500.02235174447
$SILENCE,3075.7788510058945,-8506.559849567397,7427.216461565074,12501.442432575517,-187500.02235174447,-187500.02235174447,-187500.02235174447,-187500.02235174447
$SILENCE,3463.7604312611143,-8475.692090474617,8102.4626615599,12418.830385068703,-187500.02235174447,-187500.02235174447,-187500.02235174447,-187500.02235174447
$SILENCE,3461.0782219264775,-8438.588194678807,8239.747076004396,12433.202556753464,-187500.02235174447,-187500.02235174447,-187500.02235174447,-187500.02235174447
talvez,3111.9663252790365,-8461.34227053431,7664.368470235881,12510.316075124274,-187500.02235174447,-187500.02235174447,-187500.02235174447,-187500.02235174447
talvez,3020.8159113902943,-8511.54428858093,7363.849266034278,12510.226668146452,-187500.02235174447,-187500.02235174447,-187500.02235174447,-187500.02235174447
talvez,3412.396122502819,-8490.220724370567,7988.312302626647,12428.709856117948,-187500.02235174447,-187500.02235174447,-187500.02235174447,-187500.02235174447
talvez,3494.382321164885,-8444.109075559269,8281.746003835917,12427.547565406272,-187500.02235174447,-187500.02235174447,-187500.02235174447,-187500.02235174447
talvez,3170.013805629469,-8453.58621520832,7778.116497768939,12496.748566239903,-187500.02235174447,-187500.02235174447,-187500.02235174447,-187500.02235174447
talvez,2989.724634852962,-8501.620114042773,7333.49559706397,12522.43072061905,-187500.02235174447,-187500.02235174447,-187500.02235174447,-187500.02235174447
talvez,3347.0172699710456,-8497.954427952103,7852.748972505209,12438.544623678283,-187500.02235174447,-187500.02235174447,-187500.02235174447,-187500.02235174447
talvez,3517.471673187217,-8445.070200570846,8289.144431250625,12419.992675780377,-187500.02235174447,-187500.02235174447,-187500.02235174447,-187500.02235174447
talvez,3235.0797337388676,-8445.159607548667,7902.235734729259,12488.791345213813,-187500.02235174447,-187500.02235174447,-187500.02235174447,-187500.02235174447
talvez,2978.995797514415,-8498.714387263582,7358.8871787652,12528.577450344259,-187500.02235174447,-187500.02235174447,-187500.02235174447,-187500.02235174447
talvez,3266.55098993194,-8505.44226234463,7728.965011711719,12451.352173251174,-187500.02235174447,-187500.02235174447,-187500.02235174447,-187500.02235174447
talvez,3530.659202415848,-8453.005069852481,8291.156088251602,12422.183146736998,-187500.02235174447,-187500.02235174447,-187500.02235174447,-187500.02235174447
talvez,3301.5314700044955,-8442.47739821403,8004.942000501395,12476.542589252305,-187500.02235174447,-187500.02235174447,-187500.02235174447,-187500.02235174447
talvez,2986.7742045848618,-8487.650273758207,7384.189353488608,12526.632848576648,-187500.02235174447,-187500.02235174447,-187500.02235174447,-187500.02235174447
talvez,3188.029311660446,-8509.219707157577,7581.242332606595,12470.686432205013,-187500.02235174447,-187500.02235174447,-187500.02235174447,-187500.02235174447
talvez,3516.018809797622,-8455.374354764743,8222.111549629159,12414.36003617764,-187500.02235174447,-187500.02235174447,-187500.02235174447,-187500.02235174447
talvez,3362.9764155121347,-8434.184901021112,8102.0826819041595,12462.684507690014,-187500.02235174447,-187500.02235174447,-187500.02235174447,-187500.02235174447
talvez,3023.0957893247355,-8473.903950918193,7471.271749886483,12532.846633535222,-187500.02235174447,-187500.02235174447,-187500.02235174447,-187500.02235174447
talvez,3124.550357407374,-8511.767806025482,7487.901447761232,12500.99539768641,-187500.02235174447,-187500.02235174447,-187500.02235174447,-187500.02235174447
talvez,3502.8089288245355,-8463.063354857368,8182.817182876728,12435.437731198996,-187500.02235174447,-187500.02235174447,-187500.02235174447,-187500.02235174447
talvez,3418.833424905947,-8420.61739213674,8189.969741102427,12463.824446657234,-187500.02235174447,-187500.02235174447,-187500.02235174447,-187500.02235174447
talvez,3057.2716065969003,-8447.081857571824,7554.308480537949,12531.57258410127,-187500.02235174447,-187500.02235174447,-187500.02235174447,-187500.02235174447
talvez,3046.498065769442,-8517.802777028415,7376.478001651526,12507.544458811815,-187500.02235174447,-187500.02235174447,-187500.02235174447,-187500.02235174447
talvez,3453.2551113671198,-8485.571561523862,8080.468545015878,12444.870167359135,-187500.02235174447,-187500.02235174447,-187500.02235174447,-187500.02235174447
talvez,3459.1112684144105,-8447.595947694295,8244.686811529018,12452.201539540476,-187500.02235174447,-187500.02235174447,-187500.02235174447,-187500.02235174447
talvez,3104.9031740311593,-8471.57936949484,7654.958385820197,12513.042987947822,-187500.02235174447,-187500.02235174447,-187500.02235174447,-187500.02235174447
talvez,3004.923821082571,-8519.188585184644,7307.187593840074,12519.122662439664,-187500.02235174447,-187500.02235174447,-187500.02235174447,-187500.02235174447
talvez,3382.355377954886,-8507.498622834519,7902.146327751438,12433.56018466475,-187500.02235174447,-187500.02235174447,-187500.02235174447,-187500.02235174447
talvez,3476.612684322916,-8457.162494321168,8236.01433468036,12426.564088650239,-187500.02235174447,-187500.02235174447,-187500.02235174447,-187500.02235174447
talvez,3163.91177939317,-8463.86801765776,7766.135962740895,12501.576543042249,-187500.02235174447,-187500.02235174447,-187500.02235174447,-187500.02235174447
talvez,2973.5643236117753,-8513.913573493192,7304.9524193945435,12533.450130635516,-187500.02235174447,-187500.02235174447,-187500.02235174447,-187500.02235174447
talvez,3321.424522569719,-8513.77946302646,7799.037730579106,12449.876958117124,-187500.02235174447,-187500.02235174447,-187500.02235174447,-187500.02235174447
talvez,3509.536803905583,-8460.090572844812,8265.563340850274,12422.808995581747,-187500.02235174447,-187500.02235174447,-187500.02235174447,-187500.02235174447
talvez,3235.884396539259,-8457.095439087801,7893.160926480405,12486.422060301551,-187500.02235174447,-187500.02235174447,-187500.02235174447,-187500.02235174447
talvez,2966.3894136416216,-8505.218744900078,7329.539338295382,12533.494834124427,-187500.02235174447,-187500.02235174447,-187500.02235174447,-187500.02235174447
talvez,3237.8960535402366,-8521.691980563639,7669.643481927334,12462.863321645656,-187500.02235174447,-187500.02235174447,-187500.02235174447,-187500.02235174447
talvez,3506.608725381938,-8469.72417470505,8243.613927795164,12415.701140844958,-187500.02235174447,-187500.02235174447,-187500.02235174447,-187500.02235174447
talvez,3289.997969865557,-8453.988546608514,7996.20246841937,12469.524141493339,-187500.02235174447,-187500.02235174447,-187500.02235174447,-187500.02235174447
talvez,2963.01430022887,-8496.121584906768,7379.6743011086355,12530.253831178408,-187500.02235174447,-187500.02235174447,-187500.02235174447,-187500.02235174447
talvez,3141.2918140043994,-8526.028218987969,7542.6855734211895,12480.94588291,-187500.02235174447,-187500.02235174447,-187500.02235174447,-187500.02235174447
talvez,3481.0159779806113,-8480.005977154491,8187.421642234522,12413.801242566258,-187500.02235174447,-187500.02235174447,-187500.02235174447,-187500.02235174447
talvez,3343.70921179166,-8453.250939041489,8079.954454893405,12450.32399300623,-187500.02235174447,-187500.02235174447,-187500.02235174447,-187500.02235174447
talvez,3001.9063355811045,-8486.510334790986,7457.994813680031,12518.496813594917,-187500.02235174447,-187500.02235174447,-187500.02235174447,-187500.02235174447
talvez,3084.6077900657406,-8524.374189898275,7439.398162293215,12487.718461479959,-187500.02235174447,-187500.02235174447,-187500.02235174447,-187500.02235174447
talvez,3468.387242363363,-8481.458840544086,8123.138025181059,12412.88482104359,-187500.02235174447,-187500.02235174447,-187500.02235174447,-187500.02235174447
talvez,3409.512747468084,-8449.004107594981,8172.937711827482,12439.773969623324,-187500.02235174447,-187500.02235174447,-187500.02235174447,-187500.02235174447
talvez,3058.724469986495,-8465.522046747452,7566.7360504551,12513.8029472593,-187500.02235174447,-187500.02235174447,-187500.02235174447,-187500.02235174447
talvez,3009.0365420623475,-8532.264355690999,7343.240957646484,12486.153839368086,-187500.02235174447,-187500.02235174447,-187500.02235174447,-187500.02235174447
talvez,3409.9374306127347,-8500.413119842187,8010.06054998166,12414.583553622193,-187500.02235174447,-187500.02235174447,-187500.02235174447,-187500.02235174447
talvez,3448.2930240980418,-8448.825293639338,8243.971555706448,12442.70204814697,-187500.02235174447,-187500.02235174447,-187500.02235174447,-187500.02235174447
talvez,3098.3094094168437,-8473.434564284631,7676.483115730658,12500.391900586117,-187500.02235174447,-187500.02235174447,-187500.02235174447,-187500.02235174447
talvez,2987.78003308535,-8503.58706755484,7312.619067742714,12515.613438560182,-187500.02235174447,-187500.02235174447,-187500.02235174447,-187500.02235174447
talvez,3332.8015604974703,-8526.788178299448,7870.920940747374,12402.893591272068,-187500.02235174447,-187500.02235174447,-187500.02235174447,-187500.02235174447
talvez,3461.614663793405,-8459.174151322146,8267.150314706601,12420.998504280866,-187500.02235174447,-187500.02235174447,-187500.02235174447,-187500.02235174447
talvez,3187.045834904413,-8445.360773248765,7854.470056828268,12511.813642002779,-187500.02235174447,-187500.02235174447,-187500.02235174447,-187500.02235174447
talvez,2953.827733257739,-8508.102119934812,7283.874724373189,12500.704825008492,-187500.02235174447,-187500.02235174447,-187500.02235174447,-187500.02235174447
talvez,3260.6054259068283,-8530.900899279226,7716.448034816746,12413.957704777446,-187500.02235174447,-187500.02235174447,-187500.02235174447,-187500.02235174447
talvez,3463.6710242832933,-8487.337349335832,8221.53040427332,12384.92278873,-187500.02235174447,-187500.02235174447,-187500.02235174447,-187500.02235174447
talvez,3214.359666628798,-8492.858230216292,7873.849019271019,12446.054809815265,-187500.02235174447,-187500.02235174447,-187500.02235174447,-187500.02235174447
talvez,2921.015372397348,-8539.908652294715,7279.113802804209,12495.206295872485,-187500.02235174447,-187500.02235174447,-187500.02235174447,-187500.02235174447
talvez,3196.880602464748,-8530.275050434477,7617.094530712907,12449.675792417025,-187500.02235174447,-187500.02235174447,-187500.02235174447,-187500.02235174447
talvez,3481.127736702888,-8478.173134109156,8198.19518306198,12390.711890543926,-187500.02235174447,-187500.02235174447,-187500.02235174447,-187500.02235174447
talvez,3266.9533213321356,-8477.234360842032,7986.680625281409,12442.836158613702,-187500.02235174447,-187500.02235174447,-187500.02235174447,-187500.02235174447
talvez,2965.6741578190517,-8484.945712679115,7402.383673475227,12529.292706166829,-187500.02235174447,-187500.02235174447,-187500.02235174447,-187500.02235174447
talvez,3093.950819248059,-8542.680268607171,7501.781881067977,12427.435806683996,-187500.02235174447,-187500.02235174447,-187500.02235174447,-187500.02235174447
talvez,3427.9529366437123,-8532.510224880007,8159.034926776282,12359.151227373031,-187500.02235174447,-187500.02235174447,-187500.02235174447,-187500.02235174447
talvez,3346.9502147376797,-8453.072125085846,8103.289676104746,12451.218062784441,-187500.02235174447,-187500.02235174447,-187500.02235174447,-187500.02235174447
talvez,2948.4856663329206,-8535.617117359296,7443.443828039626,12461.343403022696,-187500.02235174447,-187500.02235174447,-187500.02235174447,-187500.02235174447
talvez,3031.209472562012,-8533.985440014058,7414.364208503272,12469.121810093142,-187500.02235174447,-187500.02235174447,-187500.02235174447,-187500.02235174447
talvez,3430.0092971336007,-8486.465631302075,8111.4704145753885,12406.112242473631,-187500.02235174447,-187500.02235174447,-187500.02235174447,-187500.02235174447
talvez,3375.962779040668,-8470.752354949995,8188.829802135206,12412.46013789894,-187500.02235174447,-187500.02235174447,-187500.02235174447,-187500.02235174447
talvez,2962.9025415065935,-8553.923196068192,7491.164802451707,12422.518422903828,-187500.02235174447,-187500.02235174447,-187500.02235174447,-187500.02235174447
talvez,2885.6772644135076,-8611.769510718526,7213.287915383329,12389.817820765713,-187500.02235174447,-187500.02235174447,-187500.02235174447,-187500.02235174447
talvez,3309.8910224307806,-8569.368251486809,7908.784795854664,12361.453457051928,-187500.02235174447,-187500.02235174447,-187500.02235174447,-187500.02235174447
talvez,3360.8529997888804,-8523.748341053528,8135.118560209104,12360.581739018171,-187500.02235174447,-187500.02235174447,-187500.02235174447,-187500.02235174447
talvez,3052.89066468366,-8496.30039886241,7607.796205019499,12480.387089298618,-187500.02235174447,-187500.02235174447,-187500.02235174447,-187500.02235174447
talvez,2879.932866088494,-8581.214676048121,7217.177118918553,12462.460990245461,-187500.02235174447,-187500.02235174447,-187500.02235174447,-187500.02235174447
talvez,3247.4178966781974,-8587.920199384715,7800.244724779693,12377.345547359651,-187500.02235174447,-187500.02235174447,-187500.02235174447,-187500.02235174447
talvez,3411.9043841248017,-8524.083617220356,8169.5849501591865,12388.409660865029,-187500.02235174447,-187500.02235174447,-187500.02235174447,-187500.02235174447
talvez,3114.2909067023884,-8505.978704211559,7746.265261920126,12430.900327074567,-187500.02235174447,-187500.02235174447,-187500.02235174447,-187500.02235174447
talvez,2909.258354813857,-8537.44996040463,7271.245988755941,12499.386072085628,-187500.02235174447,-187500.02235174447,-187500.02235174447,-187500.02235174447
talvez,3217.935945741647,-8555.264300735511,7701.025331142585,12422.406664181552,-187500.02235174447,-187500.02235174447,-187500.02235174447,-187500.02235174447
talvez,3451.0646404105,-8485.43745105713,8238.025991681337,12392.924713245,-187500.02235174447,-187500.02235174447,-187500.02235174447,-187500.02235174447
talvez,3174.975892898547,-8509.622038557773,7888.578818867067,12430.140367763088,-187500.02235174447,-187500.02235174447,-187500.02235174447,-187500.02235174447
talvez,2867.192371748969,-8553.207940245622,7267.803820109823,12480.409441043073,-187500.02235174447,-187500.02235174447,-187500.02235174447,-187500.02235174447
talvez,3129.490092931997,-8546.524768653486,7561.729259697111,12438.79049286729,-187500.02235174447,-187500.02235174447,-187500.02235174447,-187500.02235174447
talvez,3448.6953554982374,-8497.954427952103,8194.2836277823,12414.494146644372,-187500.02235174447,-187500.02235174447,-187500.02235174447,-187500.02235174447
talvez,3258.459658439119,-8479.894218432215,8016.095520984593,12485.773859712346,-187500.02235174447,-187500.02235174447,-187500.02235174447,-187500.02235174447
talvez,2916.477968272921,-8520.730855552061,7392.8841820817215,12559.802837348323,-187500.02235174447,-187500.02235174447,-187500.02235174447,-187500.02235174447
talvez,3032.5505772293304,-8547.999983787535,7456.966633435087,12462.192769311998,-187500.02235174447,-187500.02235174447,-187500.02235174447,-187500.02235174447
talvez,3418.8557766504023,-8498.334407607843,8150.474208649899,12427.212289239442,-187500.02235174447,-187500.02235174447,-187500.02235174447,-187500.02235174447
talvez,3313.713170732638,-8471.24409332801,8098.104071391114,12424.708893860448,-187500.02235174447,-187500.02235174447,-187500.02235174447,-187500.02235174447
talvez,2972.379681155644,-8501.86598323178,7490.807174540422,12523.056569463799,-187500.02235174447,-187500.02235174447,-187500.02235174447,-187500.02235174447
talvez,3015.093864809736,-8544.937794797159,7410.7879293904225,12534.791235302835,-187500.02235174447,-187500.02235174447,-187500.02235174447,-187500.02235174447
talvez,3408.7304364121483,-8507.610381556795,8083.866010173084,12449.564033694749,-187500.02235174447,-187500.02235174447,-187500.02235174447,-187500.02235174447
talvez,3381.3719011988524,-8467.041965370414,8193.188392303991,12449.65344067257,-187500.02235174447,-187500.02235174447,-187500.02235174447,-187500.02235174447
talvez,3026.6720684375846,-8492.411195327186,7607.907963741775,12522.05074096331,-187500.02235174447,-187500.02235174447,-187500.02235174447,-187500.02235174447
talvez,2963.4166316290657,-8539.662783105705,7337.250690132462,12523.436549119539,-187500.02235174447,-187500.02235174447,-187500.02235174447,-187500.02235174447
talvez,3367.2679504475536,-8513.310076392898,7973.806020475152,12436.085931788199,-187500.02235174447,-187500.02235174447,-187500.02235174447,-187500.02235174447
talvez,3425.2036720757096,-8468.338366548822,8237.646012025596,12417.757501334847,-187500.02235174447,-187500.02235174447,-187500.02235174447,-187500.02235174447
talvez,3082.3726156202097,-8487.180887124645,7716.716255750211,12482.018766643854,-187500.02235174447,-187500.02235174447,-187500.02235174447,-187500.02235174447
talvez,2938.4050295835773,-8524.664762576194,7328.3770475837055,12548.135226742654,-187500.02235174447,-187500.02235174447,-187500.02235174447,-187500.02235174447
talvez,3301.263249071032,-8528.68807657815,7867.098792445517,12462.304528034274,-187500.02235174447,-187500.02235174447,-187500.02235174447,-187500.02235174447
talvez,3437.9441664152346,-8487.672625502662,8254.521579089354,12417.511632145839,-187500.02235174447,-187500.02235174447,-187500.02235174447,-187500.02235174447
talvez,3148.0867443188126,-8480.162439365678,7853.643042283421,12512.707711780991,-187500.02235174447,-187500.02235174447,-187500.02235174447,-187500.02235174447
talvez,2950.3855646116217,-8515.791120027438,7366.464420135549,12564.58611066176,-187500.02235174447,-187500.02235174447,-187500.02235174447,-187500.02235174447
talvez,3252.8270188363817,-8529.02335274498,7745.1923781862715,12466.908987392068,-187500.02235174447,-187500.02235174447,-187500.02235174447,-187500.02235174447
talvez,3501.2666584571193,-8466.10319210329,8290.999626040415,12440.980963823911,-187500.02235174447,-187500.02235174447,-187500.02235174447,-187500.02235174447
talvez,3251.3518037023314,-8460.15762807818,7995.4872125968,12491.42885105954,-187500.02235174447,-187500.02235174447,-187500.02235174447,-187500.02235174447
talvez,2943.0318406858255,-8499.451994830608,7391.453670436582,12539.418046405084,-187500.02235174447,-187500.02235174447,-187500.02235174447,-187500.02235174447
talvez,3164.6046834712847,-8514.584125826852,7616.9380685017195,12488.746641724902,-187500.02235174447,-187500.02235174447,-187500.02235174447,-187500.02235174447
talvez,3482.6029518369382,-8460.403497267187,8246.139674918613,12428.978077051412,-187500.02235174447,-187500.02235174447,-187500.02235174447,-187500.02235174447
talvez,3319.815196968937,-8432.91085158716,8102.0826819041595,12479.113039864666,-187500.02235174447,-187500.02235174447,-187500.02235174447,-187500.02235174447
talvez,2983.3543876831995,-8469.523009004952,7470.735308019556,12553.209072734007,-187500.02235174447,-187500.02235174447,-187500.02235174447,-187500.02235174447
talvez,3091.358016891243,-8505.039930944435,7502.921820035198,12508.103252423198,-187500.02235174447,-187500.02235174447,-187500.02235174447,-187500.02235174447
talvez,3484.0111117376223,-8447.48418897202,8203.492546497888,12458.281214032319,-187500.02235174447,-187500.02235174447,-187500.02235174447,-187500.02235174447
talvez,3432.199768090221,-8398.80208954836,8231.946317189493,12514.272333892863,-187500.02235174447,-187500.02235174447,-187500.02235174447,-187500.02235174447
talvez,3073.65543528264,-8431.972078320036,7615.127577200839,12584.881494627178,-187500.02235174447,-187500.02235174447,-187500.02235174447,-187500.02235174447
talvez,3061.8090107213275,-8478.396651553709,7456.072563656875,12555.041915779342,-187500.02235174447,-187500.02235174447,-187500.02235174447,-187500.02235174447
talvez,3433.540872757539,-8450.300508773387,8107.782376740262,12447.284155760308,-187500.02235174447,-187500.02235174447,-187500.02235174447,-187500.02235174447
talvez,3435.7313437141593,-8410.71556934304,8274.25816944339,12483.85160968919,-187500.02235174447,-187500.02235174447,-187500.02235174447,-187500.02235174447
talvez,3129.33363072081,-8399.271476181922,7733.994154214162,12585.619102194203,-187500.02235174447,-187500.02235174447,-187500.02235174447,-187500.02235174447
talvez,3025.3980190036323,-8448.869997128248,7403.255391508984,12566.486008940461,-187500.02235174447,-187500.02235174447,-187500.02235174447,-187500.02235174447
talvez,3412.5302329695505,-8443.349116247788,8015.402616906478,12474.910911907067,-187500.02235174447,-187500.02235174447,-187500.02235174447,-187500.02235174447
talvez,3499.12089098941,-8389.526115599409,8324.191966556546,12478.867170675656,-187500.02235174447,-187500.02235174447,-187500.02235174447,-187500.02235174447
talvez,3171.2878550634214,-8402.177202961111,7831.447760039301,12566.418953707094,-187500.02235174447,-187500.02235174447,-187500.02235174447,-187500.02235174447
talvez,3009.908260096104,-8454.547340219897,7394.828783849333,12586.602578950236,-187500.02235174447,-187500.02235174447,-187500.02235174447,-187500.02235174447
talvez,3368.519648137051,-8450.747543662494,7900.671112617388,12493.529915038338,-187500.02235174447,-187500.02235174447,-187500.02235174447,-187500.02235174447
talvez,3547.221845057231,-8388.229714421,8341.246347575945,12486.600874257192,-187500.02235174447,-187500.02235174447,-187500.02235174447,-187500.02235174447
talvez,3279.9843883495796,-8393.482374367997,7968.709822739342,12576.67840441208,-187500.02235174447,-187500.02235174447,-187500.02235174447,-187500.02235174447
talvez,3019.564213700797,-8445.181959293122,7409.871507867755,12564.161427517109,-187500.02235174447,-187500.02235174447,-187500.02235174447,-187500.02235174447
talvez,3305.8230049399144,-8440.264575512956,7763.230235961704,12494.558095283282,-187500.02235174447,-187500.02235174447,-187500.02235174447,-187500.02235174447
talvez,3563.6727289763367,-8380.496010839464,8320.146300810135,12457.431847743017,-187500.02235174447,-187500.02235174447,-187500.02235174447,-187500.02235174447
talvez,3361.90353177828,-8379.959568972537,8066.409297753489,12526.878717765656,-187500.02235174447,-187500.02235174447,-187500.02235174447,-187500.02235174447
talvez,3035.724524941984,-8433.33553473181,7451.579863021358,12566.284843240363,-187500.02235174447,-187500.02235174447,-187500.02235174447,-187500.02235174447
talvez,3235.9514517726248,-8452.222758796544,7666.178961536761,12556.941814058044,-187500.02235174447,-187500.02235174447,-187500.02235174447,-187500.02235174447
talvez,3573.015758158655,-8409.530926886908,8323.588469456252,12505.555153555293,-187500.02235174447,-187500.02235174447,-187500.02235174447,-187500.02235174447
talvez,3412.686695180738,-8377.053842193347,8193.925999871017,12536.869947537178,-187500.02235174447,-187500.02235174447,-187500.02235174447,-187500.02235174447
talvez,3063.4630398110203,-8414.962400789547,7564.791448687488,12592.279922041884,-187500.02235174447,-187500.02235174447,-187500.02235174447,-187500.02235174447
talvez,3160.134334580223,-8450.47932272903,7546.261852534039,12556.271261724385,-187500.02235174447,-187500.02235174447,-187500.02235174447,-187500.02235174447
talvez,3534.9060338623567,-8400.925505271614,8226.760712475862,12473.793324684302,-187500.02235174447,-187500.02235174447,-187500.02235174447,-187500.02235174447
talvez,3449.611777020905,-8373.61167354723,8261.629433826141,12498.648464518603,-187500.02235174447,-187500.02235174447,-187500.02235174447,-187500.02235174447
talvez,3109.529985133408,-8409.553278631363,7645.078914770951,12592.704605186535,-187500.02235174447,-187500.02235174447,-187500.02235174447,-187500.02235174447
talvez,3108.591211866285,-8450.76989540695,7468.231912640562,12583.652148682137,-187500.02235174447,-187500.02235174447,-187500.02235174447,-187500.02235174447
talvez,3498.0703590000107,-8415.498842656474,8124.121501937092,12496.65915926208,-187500.02235174447,-187500.02235174447,-187500.02235174447,-187500.02235174447
talvez,3513.9177458188233,-8372.471734580009,8305.50590819191,12503.074109920753,-187500.02235174447,-187500.02235174447,-187500.02235174447,-187500.02235174447
talvez,3161.8107154143713,-8403.965342517537,7736.184625170783,12561.076886782275,-187500.02235174447,-187500.02235174447,-187500.02235174447,-187500.02235174447
talvez,3048.3532605592327,-8450.05463958438,7414.386560247727,12573.772677632891,-187500.02235174447,-187500.02235174447,-187500.02235174447,-187500.02235174447
talvez,3461.6593672823155,-8410.939086787592,8055.1216668035595,12520.128490940153,-187500.02235174447,-187500.02235174447,-187500.02235174447,-187500.02235174447
talvez,3556.7883916841024,-8375.668034037119,8356.624347761197,12510.316075124274,-187500.02235174447,-187500.02235174447,-187500.02235174447,-187500.02235174447
talvez,3237.203149462122,-8385.681615553096,7914.685656390865,12573.415049721605,-187500.02235174447,-187500.02235174447,-187500.02235174447,-187500.02235174447
talvez,3033.6458127076403,-8455.709630931573,7362.17288520013,12590.760003418924,-187500.02235174447,-187500.02235174447,-187500.02235174447,-187500.02235174447
talvez,3354.1698281967438,-8478.687224231628,7786.476050195223,12466.573711225237,-187500.02235174447,-187500.02235174447,-187500.02235174447,-187500.02235174447
talvez,3575.89913319339,-8390.04020572188,8320.88390837716,12480.476496276438,-187500.02235174447,-187500.02235174447,-187500.02235174447,-187500.02235174447
talvez,3322.966792937135,-8385.279284152899,7989.608703805055,12558.305270469818,-187500.02235174447,-187500.02235174447,-187500.02235174447,-187500.02235174447
talvez,3000.5428791693307,-8488.052605158402,7353.902739751666,12555.041915779342,-187500.02235174447,-187500.02235174447,-187500.02235174447,-187500.02235174447
talvez,3278.240952282066,-8496.434509329141,7689.469479259191,12501.755356997892,-187500.02235174447,-187500.02235174447,-187500.02235174447,-187500.02235174447
talvez,3568.9477406677893,-8435.682467899618,8302.913105835094,12477.481362519427,-187500.02235174447,-187500.02235174447,-187500.02235174447,-187500.02235174447
talvez,3355.399174141786,-8414.09068275579,8077.607521725598,12516.66397054958,-187500.02235174447,-187500.02235174447,-187500.02235174447,-187500.02235174447
talvez,3028.3037457828223,-8454.972023364548,7449.299985086916,12578.801820135335,-187500.02235174447,-187500.02235174447,-187500.02235174447,-187500.02235174447
talvez,3203.1390909122338,-8480.073032387858,7610.679580054233,12517.62509556116,-187500.02235174447,-187500.02235174447,-187500.02235174447,-187500.02235174447
talvez,3548.6970601912813,-8445.696049415596,8253.091067444215,12439.818673112235,-187500.02235174447,-187500.02235174447,-187500.02235174447,-187500.02235174447
talvez,3403.4107212317854,-8435.52600568843,8140.2371096893685,12482.421098044051,-187500.02235174447,-187500.02235174447,-187500.02235174447,-187500.02235174447
talvez,3054.0976588842464,-8474.753317207495,7524.647715645757,12548.001116275922,-187500.02235174447,-187500.02235174447,-187500.02235174447,-187500.02235174447
talvez,3142.4764564605307,-8514.070035704379,7495.38928215376,12519.748511284413,-187500.02235174447,-187500.02235174447,-187500.02235174447,-187500.02235174447
talvez,3514.1636150078316,-8488.589047025329,8117.192461155947,12418.472757157417,-187500.02235174447,-187500.02235174447,-187500.02235174447,-187500.02235174447
talvez,3431.4621605231955,-8468.338366548822,8159.638423876575,12424.775949093813,-187500.02235174447,-187500.02235174447,-187500.02235174447,-187500.02235174447
talvez,3106.5124996319414,-8467.1984275816,7628.002182007097,12530.298534667318,-187500.02235174447,-187500.02235174447,-187500.02235174447,-187500.02235174447
talvez,3065.564103789819,-8531.504396379518,7377.595588874292,12499.94486569701,-187500.02235174447,-187500.02235174447,-187500.02235174447,-187500.02235174447
talvez,3443.1297711288657,-8517.959239239603,8003.064453967149,12391.449498110951,-187500.02235174447,-187500.02235174447,-187500.02235174447,-187500.02235174447
talvez,3476.769146534103,-8480.855343443793,8226.358381075666,12407.36394016313,-187500.02235174447,-187500.02235174447,-187500.02235174447,-187500.02235174447
talvez,3133.33459297831,-8494.601666283806,7697.6502177298335,12477.32490030824,-187500.02235174447,-187500.02235174447,-187500.02235174447,-187500.02235174447
talvez,3009.0588938068026,-8541.78619882896,7327.773550483412,12490.735946981424,-187500.02235174447,-187500.02235174447,-187500.02235174447,-187500.02235174447
talvez,3396.8169566174697,-8527.078750977367,7924.431016973379,12402.64772208306,-187500.02235174447,-187500.02235174447,-187500.02235174447,-187500.02235174447
talvez,3513.8506905854574,-8481.078860888347,8285.590503882231,12391.717719044414,-187500.02235174447,-187500.02235174447,-187500.02235174447,-187500.02235174447
talvez,3208.168233414678,-8496.143936651222,7819.489576755712,12455.330783764219,-187500.02235174447,-187500.02235174447,-187500.02235174447,-187500.02235174447
talvez,2997.279524478856,-8546.211844231111,7329.673448762113,12464.115019335153,-187500.02235174447,-187500.02235174447,-187500.02235174447,-187500.02235174447
talvez,3293.3954350227636,-8543.082600007368,7746.444075875769,12395.606922579638,-187500.02235174447,-187500.02235174447,-187500.02235174447,-187500.02235174447
talvez,3529.5863186819934,-8492.925285449659,8278.505000889898,12374.238654880364,-187500.02235174447,-187500.02235174447,-187500.02235174447,-187500.02235174447
talvez,3255.397469448742,-8477.457878286586,7921.815862872108,12444.914870848044,-187500.02235174447,-187500.02235174447,-187500.02235174447,-187500.02235174447
talvez,2958.119268193158,-8555.443114691152,7331.238070873985,12466.819580414245,-187500.02235174447,-187500.02235174447,-187500.02235174447,-187500.02235174447
talvez,3206.782425258449,-8564.36146072882,7624.98469650563,12417.042245512277,-187500.02235174447,-187500.02235174447,-187500.02235174447,-187500.02235174447
talvez,3518.41044645434,-8506.425739100665,8234.807340479772,12375.892683970056,-187500.02235174447,-187500.02235174447,-187500.02235174447,-187500.02235174447
talvez,3328.934708706702,-8485.593913268318,8004.629076079021,12418.428053668506,-187500.02235174447,-187500.02235174447,-187500.02235174447,-187500.02235174447
talvez,2984.248457461412,-8536.578242370873,7371.784135315912,12460.60579545567,-187500.02235174447,-187500.02235174447,-187500.02235174447,-187500.02235174447
talvez,3145.8962733621925,-8580.812344647926,7483.766375037,12406.335759918185,-187500.02235174447,-187500.02235174447,-187500.02235174447,-187500.02235174447
talvez,3509.067417272022,-8521.468463119087,8158.52083665381,12353.093904625644,-187500.02235174447,-187500.02235174447,-187500.02235174447,-187500.02235174447
talvez,3384.009407044579,-8492.388843582732,8110.486937819355,12402.267742427319,-187500.02235174447,-187500.02235174447,-187500.02235174447,-187500.02235174447
talvez,3025.174501559079,-8531.906727779715,7483.229933170072,12457.923586121035,-187500.02235174447,-187500.02235174447,-187500.02235174447,-187500.02235174447
talvez,3075.689444028073,-8576.31964401241,7418.052246338398,12426.27351597232,-187500.02235174447,-187500.02235174447,-187500.02235174447,-187500.02235174447
talvez,3469.348367374941,-8527.771655055483,8102.060330159704,12360.939366929457,-187500.02235174447,-187500.02235174447,-187500.02235174447,-187500.02235174447
talvez,3442.481570539662,-8478.888389931726,8185.722909655919,12389.996634721356,-187500.02235174447,-187500.02235174447,-187500.02235174447,-187500.02235174447
talvez,3078.4163568516205,-8509.175003668666,7589.288960610505,12453.90027211908,-187500.02235174447,-187500.02235174447,-187500.02235174447,-187500.02235174447
talvez,3023.945155614037,-8560.315794982409,7339.843492489278,12448.93818485,-187500.02235174447,-187500.02235174447,-187500.02235174447,-187500.02235174447
talvez,3402.9189828537683,-8554.481989679574,7960.305566824147,12348.221224334387,-187500.02235174447,-187500.02235174447,-187500.02235174447,-187500.02235174447
$SILENCE,3453.6574427673154,-8503.028273943457,8206.353569788167,12365.63323326507,-187500.02235174447,-187500.02235174447,-187500.02235174447,-187500.02235174447
$SILENCE,3131.2782324884215,-8510.717274036084,7705.205107355727,12449.586385439205,-187500.02235174447,-187500.02235174447,-187500.02235174447,-187500.02235174447
$SILENCE,2981.0074545153925,-8559.287614737465,7315.144814866164,12455.599004697682,-187500.02235174447,-187500.02235174447,-187500.02235174447,-187500.02235174447
$SILENCE,3351.934653751213,-8547.575300642884,7860.639138297933,12366.862579210112,-187500.02235174447,-187500.02235174447,-187500.02235174447,-187500.02235174447
$SILENCE,3496.9080682883346,-8493.72994825005,8239.769427748852,12351.819855191692,-187500.02235174447,-187500.02235174447,-187500.02235174447,-187500.02235174447
$SILENCE,3200.8368612333375,-8497.887372718737,7814.952172631285,12421.043207769777,-187500.02235174447,-187500.02235174447,-187500.02235174447,-187500.02235174447
$SILENCE,2977.609989358186,-8547.575300642884,7325.918355693621,12471.155818838575,-187500.02235174447,-187500.02235174447,-187500.02235174447,-187500.02235174447
$SILENCE,3294.6694844567164,-8553.140885012255,7754.021317246118,12401.26191392683,-187500.02235174447,-187500.02235174447,-187500.02235174447,-187500.02235174447
$SILENCE,3518.924536576812,-8498.513221563486,8245.357363862679,12356.357259316119,-187500.02235174447,-187500.02235174447,-187500.02235174447,-187500.02235174447
$SILENCE,3270.7978213784486,-8491.025387170957,7941.597156715055,12422.071388014721,-187500.02235174447,-187500.02235174447,-187500.02235174447,-187500.02235174447
$SILENCE,2972.849067789205,-8538.098160993834,7350.7958472723785,12464.539702479804,-187500.02235174447,-187500.02235174447,-187500.02235174447,-187500.02235174447
$SILENCE,3207.877660736759,-8559.354669970831,7599.727225271133,12409.777928564303,-187500.02235174447,-187500.02235174447,-187500.02235174447,-187500.02235174447
$SILENCE,3532.1120658054433,-8505.196393155622,8246.944337719004,12357.474846538884,-187500.02235174447,-187500.02235174447,-187500.02235174447,-187500.02235174447
$SILENCE,3329.649964529272,-8478.240189342521,8046.091562043615,12409.375597164108,-187500.02235174447,-187500.02235174447,-187500.02235174447,-187500.02235174447
$SILENCE,2983.3543876831995,-8519.725027051572,7390.5372489139145,12483.941016667011,-187500.02235174447,-187500.02235174447,-187500.02235174447,-187500.02235174447
$SILENCE,3120.035305027402,-8555.55487341343,7469.595369052336,12428.866318329136,-187500.02235174447,-187500.02235174447,-187500.02235174447,-187500.02235174447
$SILENCE,3482.7817657925807,-8512.013675214492,8145.556824869732,12364.292128597752,-187500.02235174447,-187500.02235174447,-187500.02235174447,-187500.02235174447
$SILENCE,3373.4593836616737,-8480.765936465972,8120.232298401868,12402.267742427319,-187500.02235174447,-187500.02235174447,-187500.02235174447,-187500.02235174447
$SILENCE,3026.3591440152104,-8506.984532712047,7509.649695116245,12476.430830530027,-187500.02235174447,-187500.02235174447,-187500.02235174447,-187500.02235174447
$SILENCE,3064.5135718004194,-8548.625832632284,7408.552754944892,12463.13154257912,-187500.02235174447,-187500.02235174447,-187500.02235174447,-187500.02235174447
$SILENCE,3460.318262614997,-8504.525840821963,8087.442289285933,12368.740125744358,-187500.02235174447,-187500.02235174447,-187500.02235174447,-187500.02235174447
$SILENCE,3430.836311678447,-8474.038061384925,8200.452709251966,12383.559332318227,-187500.02235174447,-187500.02235174447,-187500.02235174447,-187500.02235174447
$SILENCE,3082.2608568979335,-8507.2080501566,7613.250030666594,12458.370621010139,-187500.02235174447,-187500.02235174447,-187500.02235174447,-187500.02235174447
$SILENCE,3017.5078532109087,-8543.440227918652,7334.568480797825,12467.333670536718,-187500.02235174447,-187500.02235174447,-187500.02235174447,-187500.02235174447
$SILENCE,3398.426282218252,-8518.473329362074,7962.116058125027,12386.30859688623,-187500.02235174447,-187500.02235174447,-187500.02235174447,-187500.02235174447
$SILENCE,3476.992663978656,-8467.53370374843,8247.413724352566,12393.17058243401,-187500.02235174447,-187500.02235174447,-187500.02235174447,-187500.02235174447
$SILENCE,3147.237378029511,-8484.521029534464,7735.6258315594005,12464.584405968715,-187500.02235174447,-187500.02235174447,-187500.02235174447,-187500.02235174447
$SILENCE,2971.6867770775293,-8539.238099961054,7307.4781665179935,12479.493019520405,-187500.02235174447,-187500.02235174447,-187500.02235174447,-187500.02235174447
$SILENCE,3343.70921179166,-8521.714332308095,7847.228091624748,12403.45238488345,-187500.02235174447,-187500.02235174447,-187500.02235174447,-187500.02235174447
$SILENCE,3503.50183290265,-8466.81844792586,8271.508904875387,12389.929579487989,-187500.02235174447,-187500.02235174447,-187500.02235174447,-187500.02235174447
$SILENCE,3207.25181189201,-8469.746526449506,7855.609995795488,12449.966365094944,-187500.02235174447,-187500.02235174447,-187500.02235174447,-187500.02235174447
$SILENCE,2960.6226635721523,-8517.467500861585,7310.339189808273,12483.024595144343,-187500.02235174447,-187500.02235174447,-187500.02235174447,-187500.02235174447
$SILENCE,3259.912521828714,-8524.642410831739,7702.388787554359,12421.892574059078,-187500.02235174447,-187500.02235174447,-187500.02235174447,-187500.02235174447
$SILENCE,3513.7165801187257,-8472.160514850679,8247.033744696826,12382.151172417543,-187500.02235174447,-187500.02235174447,-187500.02235174447,-187500.02235174447
$SILENCE,3288.455699498141,-8460.850532156293,7972.286101852192,12437.918774833533,-187500.02235174447,-187500.02235174447,-187500.02235174447,-187500.02235174447
$SILENCE,2988.338826696733,-8504.995227455525,7375.472173151037,12493.194638871508,-187500.02235174447,-187500.02235174447,-187500.02235174447,-187500.02235174447
$SILENCE,3189.3480645833097,-8532.510224880007,7580.996463417586,12428.106359017655,-187500.02235174447,-187500.02235174447,-187500.02235174447,-187500.02235174447
$SILENCE,3508.061588771533,-8474.686261974128,8211.785043690807,12374.238654880364,-187500.02235174447,-187500.02235174447,-187500.02235174447,-187500.02235174447
$SILENCE,3362.641139345305,-8445.092552315302,8081.541428749732,12441.56210917975,-187500.02235174447,-187500.02235174447,-187500.02235174447,-187500.02235174447
$SILENCE,3019.2289375339674,-8496.322750606865,7454.597348522824,12510.33842686873,-187500.02235174447,-187500.02235174447,-187500.02235174447,-187500.02235174447
$SILENCE,3130.004183054469,-8521.468463119087,7489.689587317656,12466.529007736328,-187500.02235174447,-187500.02235174447,-187500.02235174447,-187500.02235174447
$SILENCE,3499.925553789801,-8484.588084767829,8167.28272048029,12378.59724504915,-187500.02235174447,-187500.02235174447,-187500.02235174447,-187500.02235174447
$SILENCE,3407.0764073224555,-8452.289814029911,8174.547037428265,12414.181222221998,-187500.02235174447,-187500.02235174447,-187500.02235174447,-187500.02235174447
$SILENCE,3038.630251721174,-8479.87186668776,7529.162768025729,12496.927380195544,-187500.02235174447,-187500.02235174447,-187500.02235174447,-187500.02235174447
$SILENCE,3055.5728740182967,-8520.484986363052,7393.085347781819,12478.844818931202,-187500.02235174447,-187500.02235174447,-187500.02235174447,-187500.02235174447
$SILENCE,3413.6925236812262,-8490.734814493038,8023.404541421479,12391.762422533326,-187500.02235174447,-187500.02235174447,-187500.02235174447,-187500.02235174447
$SILENCE,3422.1414830853323,-8436.688296400107,8195.423566749521,12417.64574261257,-187500.02235174447,-187500.02235174447,-187500.02235174447,-187500.02235174447
$SILENCE,3080.94210397507,-8464.538569991419,7630.170301219261,12485.818563201257,-187500.02235174447,-187500.02235174447,-187500.02235174447,-187500.02235174447
$SILENCE,2973.92195152306,-8530.990306257047,7305.913544406122,12488.210199857975,-187500.02235174447,-187500.02235174447,-187500.02235174447,-187500.02235174447
$SILENCE,3346.972566482135,-8505.889297233736,7918.194880270348,12400.926637760002,-187500.02235174447,-187500.02235174447,-187500.02235174447,-187500.02235174447
$SILENCE,3469.996567964145,-8448.266500027956,8237.668363770052,12390.153096932543,-187500.02235174447,-187500.02235174447,-187500.02235174447,-187500.02235174447
$SILENCE,3166.616340472262,-8460.112924589268,7755.809456802543,12457.32008902074,-187500.02235174447,-187500.02235174447,-187500.02235174447,-187500.02235174447
$SILENCE,2952.4195733570546,-8510.225535658066,7315.904774177644,12504.90695296609,-187500.02235174447,-187500.02235174447,-187500.02235174447,-187500.02235174447
$SILENCE,3266.394527720753,-8497.038006429435,7795.528506699623,12424.798300838269,-187500.02235174447,-187500.02235174447,-187500.02235174447,-187500.02235174447
$SILENCE,3481.708882058726,-8441.784494135916,8243.613927795164,12394.332873145686,-187500.02235174447,-187500.02235174447,-187500.02235174447,-187500.02235174447
$SILENCE,3226.094332467834,-8449.67465992864,7872.485562859245,12448.781722638812,-187500.02235174447,-187500.02235174447,-187500.02235174447,-187500.02235174447
$SILENCE,2951.994890212404,-8506.269276889478,7317.223527100507,12491.920589437555,-187500.02235174447,-187500.02235174447,-187500.02235174447,-187500.02235174447
$SILENCE,3204.659009535195,-8525.871756776782,7651.695031129722,12411.275495442807,-187500.02235174447,-187500.02235174447,-187500.02235174447,-187500.02235174447
$SILENCE,3491.5883531079717,-8458.280081543933,8229.308811343768,12381.950006717445,-187500.02235174447,-187500.02235174447,-187500.02235174447,-187500.02235174447
$SILENCE,3268.4732399550967,-8436.732999889016,7979.840991478085,12456.493074475895,-187500.02235174447,-187500.02235174447,-187500.02235174447,-187500.02235174447
$SILENCE,2923.8093404542615,-8473.143991606712,7362.239940433496,12507.544458811815,-187500.02235174447,-187500.02235174447,-187500.02235174447,-187500.02235174447
$SILENCE,3177.255770832988,-8507.453919345608,7562.444515519681,12460.60579545567,-187500.02235174447,-187500.02235174447,-187500.02235174447,-187500.02235174447
$SILENCE,3484.5699053490052,-8470.998224139003,8193.881296382106,12400.0772714707,-187500.02235174447,-187500.02235174447,-187500.02235174447,-187500.02235174447
$SILENCE,3309.6004497528616,-8446.970098849548,8065.3364140196345,12434.521309676327,-187500.02235174447,-187500.02235174447,-187500.02235174447,-187500.02235174447
$SILENCE,2996.9666000564816,-8478.039023642425,7440.582804749347,12497.262656362374,-187500.02235174447,-187500.02235174447,-187500.02235174447,-187500.02235174447
$SILENCE,3098.3094094168437,-8511.25371590301,7439.219348337573,12464.360888524163,-187500.02235174447,-187500.02235174447,-187500.02235174447,-187500.02235174447
$SILENCE,3459.7147655147037,-8478.083727131334,8116.946591966938,12401.328969160197,-187500.02235174447,-187500.02235174447,-187500.02235174447,-187500.02235174447
$SILENCE,3374.219342973154,-8442.1421220472,8147.434371403978,12442.187958024497,-187500.02235174447,-187500.02235174447,-187500.02235174447,-187500.02235174447
$SILENCE,3038.5184929988973,-8464.471514758054,7540.316288508927,12503.029406431844,-187500.02235174447,-187500.02235174447,-187500.02235174447,-187500.02235174447
$SILENCE,3027.6108417047076,-8509.219707157577,7354.483885107504,12483.09165037771,-187500.02235174447,-187500.02235174447,-187500.02235174447,-187500.02235174447
$SILENCE,3414.7207039261707,-8485.750375479505,8018.4424541524,12419.478585657906,-187500.02235174447,-187500.02235174447,-187500.02235174447,-187500.02235174447
$SILENCE,3417.9840586166456,-8437.023572566935,8213.48377626941,12458.102400076676,-187500.02235174447,-187500.02235174447,-187500.02235174447,-187500.02235174447
$SILENCE,3083.2219819095117,-8461.610491467773,7656.7912288655325,12524.867060764678,-187500.02235174447,-187500.02235174447,-187500.02235174447,-187500.02235174447
$SILENCE,2998.173594257068,-8499.11671866378,7300.906753648133,12515.546383326815,-187500.02235174447,-187500.02235174447,-187500.02235174447,-187500.02235174447
$SILENCE,3373.4370319172185,-8473.769840451461,7891.328083435069,12422.384312437096,-187500.02235174447,-187500.02235174447,-187500.02235174447,-187500.02235174447
$SILENCE,3455.5349893015614,-8432.061485297858,8223.854985696673,12414.427091411006,-187500.02235174447,-187500.02235174447,-187500.02235174447,-187500.02235174447
$SILENCE,3155.038136844413,-8438.252918511978,7764.01254701764,12500.123679652654,-187500.02235174447,-187500.02235174447,-187500.02235174447,-187500.02235174447
$SILENCE,2979.3981289146104,-8486.10800339079,7297.755157679935,12532.19843294602,-187500.02235174447,-187500.02235174447,-187500.02235174447,-187500.02235174447
$SILENCE,3307.521737518518,-8492.29943660491,7776.663634379343,12460.404629755572,-187500.02235174447,-187500.02235174447,-187500.02235174447,-187500.02235174447
$SILENCE,3498.897373544857,-8436.95651733357,8243.792741750805,12429.916850318534,-187500.02235174447,-187500.02235174447,-187500.02235174447,-187500.02235174447
$SILENCE,3234.1633122162,-8424.528947416418,7884.756670565209,12509.66787453507,-187500.02235174447,-187500.02235174447,-187500.02235174447,-187500.02235174447
$SILENCE,2967.305835164289,-8474.976834652047,7325.583079526792,12544.871872052177,-187500.02235174447,-187500.02235174447,-187500.02235174447,-187500.02235174447
$SILENCE,3225.714352812094,-8487.538515035929,7640.854435068898,12454.41436224155,-187500.02235174447,-187500.02235174447,-187500.02235174447,-187500.02235174447
$SILENCE,3498.9420770337674,-8436.576537677829,8211.382712290611,12405.68755932898,-187500.02235174447,-187500.02235174447,-187500.02235174447,-187500.02235174447
$SILENCE,3302.6043537383503,-8424.394836949687,7983.8643054800405,12467.758353681369,-187500.02235174447,-187500.02235174447,-187500.02235174447,-187500.02235174447
$SILENCE,2992.11627150968,-8467.891331659715,7380.076632508831,12535.014752747387,-187500.02235174447,-187500.02235174447,-187500.02235174447,-187500.02235174447
$SILENCE,3170.8855236632257,-8502.424776843163,7534.8177593729215,12486.891446935111,-187500.02235174447,-187500.02235174447,-187500.02235174447,-187500.02235174447
$SILENCE,3506.496966659661,-8446.657174427173,8179.1514967860585,12437.047056799776,-187500.02235174447,-187500.02235174447,-187500.02235174447,-187500.02235174447
$SILENCE,3368.2961306924976,-8421.33264795931,8077.294597303224,12474.687394462515,-187500.02235174447,-187500.02235174447,-187500.02235174447,-187500.02235174447
$SILENCE,3019.854786378716,-8457.542473976908,7457.301909601916,12531.639639334637,-187500.02235174447,-187500.02235174447,-187500.02235174447,-187500.02235174447
$SILENCE,3103.1820897081006,-8492.679416260651,7427.998772621009,12501.978874442444,-187500.02235174447,-187500.02235174447,-187500.02235174447,-187500.02235174447
$SILENCE,3482.826469281491,-8456.089610587313,8101.702702248419,12431.772045108324,-187500.02235174447,-187500.02235174447,-187500.02235174447,-187500.02235174447
$SILENCE,3427.1035703544107,-8414.895345556182,8155.883330808084,12451.173359295532,-187500.02235174447,-187500.02235174447,-187500.02235174447,-187500.02235174447
$SILENCE,3093.168508192123,-8439.437560968108,7565.596111487879,12515.926362982556,-187500.02235174447,-187500.02235174447,-187500.02235174447,-187500.02235174447
$SILENCE,3057.3163100858105,-8489.796041225916,7346.92899548161,12503.14116515412,-187500.02235174447,-187500.02235174447,-187500.02235174447,-187500.02235174447
$SILENCE,3456.4290590797737,-8468.204256082088,7997.945904486884,12422.183146736998,-187500.02235174447,-187500.02235174447,-187500.02235174447,-187500.02235174447
$SILENCE,3485.7768995495917,-8427.211156751056,8215.651895481575,12430.766216607835,-187500.02235174447,-187500.02235174447,-187500.02235174447,-187500.02235174447
$SILENCE,3148.1537995521785,-8434.967212077048,7688.418947269792,12503.23057213194,-187500.02235174447,-187500.02235174447,-187500.02235174447,-187500.02235174447
$SILENCE,3032.8411499072495,-8484.811602212381,7316.597678255758,12525.023522975865,-187500.02235174447,-187500.02235174447,-187500.02235174447,-187500.02235174447
$SILENCE,3410.809148646492,-8474.641558485218,7881.269798430181,12446.054809815265,-187500.02235174447,-187500.02235174447,-187500.02235174447,-187500.02235174447
$SILENCE,3533.0061355836556,-8425.758293361461,8245.916157474061,12437.203519010964,-187500.02235174447,-187500.02235174447,-187500.02235174447,-187500.02235174447
$SILENCE,3233.8280360493704,-8429.692200385594,7808.9395533728075,12502.627075031647,-187500.02235174447,-187500.02235174447,-187500.02235174447,-187500.02235174447
$SILENCE,3017.440797977543,-8478.798982953904,7316.240050344473,12534.455959136005,-187500.02235174447,-187500.02235174447,-187500.02235174447,-187500.02235174447
$SILENCE,3339.060048944956,-8485.43745105713,7757.195264958771,12461.633975700615,-187500.02235174447,-187500.02235174447,-187500.02235174447,-187500.02235174447
$SILENCE,3550.41814451434,-8435.593060921796,8254.67804130054,12439.014010311845,-187500.02235174447,-187500.02235174447,-187500.02235174447,-187500.02235174447
$SILENCE,3299.4974612590627,-8436.53183418892,7918.485452948267,12485.639749245614,-187500.02235174447,-187500.02235174447,-187500.02235174447,-187500.02235174447
$SILENCE,3023.654582936118,-8480.073032387858,7345.140855925186,12531.371418401173,-187500.02235174447,-187500.02235174447,-187500.02235174447,-187500.02235174447
$SILENCE,3268.8308678663816,-8483.91753243417,7635.55707163299,12472.89925490609,-187500.02235174447,-187500.02235174447,-187500.02235174447,-187500.02235174447
$SILENCE,3550.5969584699824,-8439.81754062385,8218.311753071755,12410.515536131328,-187500.02235174447,-187500.02235174447,-187500.02235174447,-187500.02235174447
$SILENCE,3363.512857379062,-8429.379275963222,8025.572660633643,12467.0430978588,-187500.02235174447,-187500.02235174447,-187500.02235174447,-187500.02235174447
$SILENCE,3047.1239146141907,-8472.316977061866,7414.319505014361,12524.91176425359,-187500.02235174447,-187500.02235174447,-187500.02235174447,-187500.02235174447
$SILENCE,3203.8543467348036,-8504.123509421768,7519.596221398858,12478.554246253283,-187500.02235174447,-187500.02235174447,-187500.02235174447,-187500.02235174447
$SILENCE,3555.648452716882,-8457.877750143738,8173.965892072427,12420.12678624711,-187500.02235174447,-187500.02235174447,-187500.02235174447,-187500.02235174447
$SILENCE,3441.7216112281817,-8434.363714976755,8107.491804062343,12438.946955078478,-187500.02235174447,-187500.02235174447,-187500.02235174447,-187500.02235174447
$SILENCE,3086.083005199791,-8466.907854903682,7480.883000002265,12492.591141771216,-187500.02235174447,-187500.02235174447,-187500.02235174447,-187500.02235174447
$SILENCE,3134.2510145009774,-8503.475308832563,7414.386560247727,12477.771935197346,-187500.02235174447,-187500.02235174447,-187500.02235174447,-187500.02235174447
$SILENCE,3527.8428826144795,-8468.137200848723,8102.328551093167,12415.611733867137,-187500.02235174447,-187500.02235174447,-187500.02235174447,-187500.02235174447
$SILENCE,3485.6874925717707,-8429.647496896685,8191.5343632142985,12426.899364817067,-187500.02235174447,-187500.02235174447,-187500.02235174447,-187500.02235174447
$SILENCE,3139.235453514511,-8457.05073559889,7602.185917161217,12495.832144717235,-187500.02235174447,-187500.02235174447,-187500.02235174447,-187500.02235174447
$SILENCE,3086.530040088897,-8507.63273330125,7344.917338480633,12492.702900493492,-187500.02235174447,-187500.02235174447,-187500.02235174447,-187500.02235174447
$SILENCE,3476.4338703672734,-8489.661930759185,7975.9964914317725,12401.910114516035,-187500.02235174447,-187500.02235174447,-187500.02235174447,-187500.02235174447
$SILENCE,3544.0926008334877,-8445.316069759854,8236.215500380456,12398.535001103282,-187500.02235174447,-187500.02235174447,-187500.02235174447,-187500.02235174447
$SILENCE,3222.7415707995383,-8456.089610587313,7732.1613111688275,12470.8428944162,-187500.02235174447,-187500.02235174447,-187500.02235174447,-187500.02235174447
$SILENCE,3068.6039410357407,-8506.671608289673,7334.836701731289,12485.416231801062,-187500.02235174447,-187500.02235174447,-187500.02235174447,-187500.02235174447
$SILENCE,3425.6283552203604,-8499.83197448635,7863.589568566033,12406.425166896006,-187500.02235174447,-187500.02235174447,-187500.02235174447,-187500.02235174447
$SILENCE,3564.410336543362,-8446.500712215986,8249.380677864632,12388.633178309581,-187500.02235174447,-187500.02235174447,-187500.02235174447,-187500.02235174447
$SILENCE,3268.495591699552,-8446.456008727075,7835.225204852249,12442.433827213506,-187500.02235174447,-187500.02235174447,-187500.02235174447,-187500.02235174447
$SILENCE,3036.4621325090093,-8497.507393062997,7323.526719036904,12473.458048517472,-187500.02235174447,-187500.02235174447,-187500.02235174447,-187500.02235174447
$SILENCE,3356.583816597917,-8506.537497822941,7754.110724223939,12408.414472152528,-187500.02235174447,-187500.02235174447,-187500.02235174447,-187500.02235174447
$SILENCE,3586.8738397209454,-8451.283985529422,8277.812096811784,12373.344585102152,-187500.02235174447,-187500.02235174447,-187500.02235174447,-187500.02235174447
$SILENCE,3329.1358744067998,-8439.437560968108,7979.4833635668,12431.950859063967,-187500.02235174447,-187500.02235174447,-187500.02235174447,-187500.02235174447
$SILENCE,3043.815856434805,-8489.01373016998,7370.912417282155,12481.95171141049,-187500.02235174447,-187500.02235174447,-187500.02235174447,-187500.02235174447
$SILENCE,3262.192399763155,-8508.258582146,7595.50274556908,12410.426129153506,-187500.02235174447,-187500.02235174447,-187500.02235174447,-187500.02235174447
$SILENCE,3569.081851134521,-8462.459857757076,8215.450729781476,12357.92188142799,-187500.02235174447,-187500.02235174447,-187500.02235174447,-187500.02235174447
$SILENCE,3413.223137047665,-8448.758238405971,8066.2751872867575,12423.36778919313,-187500.02235174447,-187500.02235174447,-187500.02235174447,-187500.02235174447
$SILENCE,3078.908095229637,-8485.571561523862,7442.080371627852,12484.85743818968,-187500.02235174447,-187500.02235174447,-187500.02235174447,-187500.02235174447
$SILENCE,3182.530782524441,-8512.97480022607,7506.118119492307,12413.443614654972,-187500.02235174447,-187500.02235174447,-187500.02235174447,-187500.02235174447
$SILENCE,3566.958435411267,-8470.282968316433,8205.168927332035,12354.680878481971,-187500.02235174447,-187500.02235174447,-187500.02235174447,-187500.02235174447
$SILENCE,3470.5553615755275,-8439.281098756921,8171.216627504424,12398.222076680908,-187500.02235174447,-187500.02235174447,-187500.02235174447,-187500.02235174447
