WORD,Channel_1,Channel_2,Channel_3,Channel_4,Channel_5,Channel_6,Channel_7,Channel_8
não,-1870.3716242756398,-12108.007026673202,6195.277714166369,8314.156033296113,-187500.02235174447,-187500.02235174447,-187500.02235174447,-187500.02235174447
não,-1843.6612896515478,-12115.181936643356,6239.914147843618,8300.610876156197,-187500.02235174447,-187500.02235174447,-187500.02235174447,-187500.02235174447
não,-1782.1492889105427,-12098.462831790786,6464.2139034526235,8296.252285987412,-187500.02235174447,-187500.02235174447,-187500.02235174447,-187500.02235174447
não,-1802.0870449646766,-12095.288884078132,6427.758208246018,8313.150204795624,-187500.02235174447,-187500.02235174447,-187500.02235174447,-187500.02235174447
não,-1855.395955490584,-12110.644532518929,6224.737313358464,8322.180309555568,-187500.02235174447,-187500.02235174447,-187500.02235174447,-187500.02235174447
não,-1839.3250512272182,-12120.345189612532,6214.99195277595,8316.614725186197,-187500.02235174447,-187500.02235174447,-187500.02235174447,-187500.02235174447
não,-1777.8354022306685,-12106.531811539151,6438.732914773574,8296.609913898697,-187500.02235174447,-187500.02235174447,-187500.02235174447,-187500.02235174447
não,-1785.0773674341879,-12104.274285349165,6450.355821890334,8296.87813483216,-187500.02235174447,-187500.02235174447,-187500.02235174447,-187500.02235174447
não,-1832.8206935907237,-12118.467643078286,6257.639081196676,8308.523393693375,-187500.02235174447,-187500.02235174447,-187500.02235174447,-187500.02235174447
não,-1839.9285483275114,-12119.115843667489,6188.102804196215,8296.408748198599,-187500.02235174447,-187500.02235174447,-187500.02235174447,-187500.02235174447
não,-1778.68476851997,-12110.599829030018,6402.187812589146,8279.734346834939,-187500.02235174447,-187500.02235174447,-187500.02235174447,-187500.02235174447
não,-1772.3592248391183,-12104.184878371345,6467.9689965211155,8297.59339065473,-187500.02235174447,-187500.02235174447,-187500.02235174447,-187500.02235174447
não,-1825.0869900091875,-12111.985637186246,6292.552506035866,8311.004437327914,-187500.02235174447,-187500.02235174447,-187500.02235174447,-187500.02235174447
não,-1853.5407607007935,-12119.741692512238,6171.5401615548335,8317.195870542035,-187500.02235174447,-187500.02235174447,-187500.02235174447,-187500.02235174447
não,-1792.7663675268136,-12111.78447148615,6365.9556348270935,8305.014169813892,-187500.02235174447,-187500.02235174447,-187500.02235174447,-187500.02235174447
não,-1772.2921696057524,-12101.077985892056,6478.13904024828,8298.26394298839,-187500.02235174447,-187500.02235174447,-187500.02235174447,-187500.02235174447
não,-1833.5806529022043,-12106.643570261427,6322.079160461326,8310.803271627818,-187500.02235174447,-187500.02235174447,-187500.02235174447,-187500.02235174447
não,-1870.5280864868269,-12117.64062853344,6171.5401615548335,8319.296934520833,-187500.02235174447,-187500.02235174447,-187500.02235174447,-187500.02235174447
não,-1820.2366614623859,-12113.796128487127,6322.280326161424,8303.293085490834,-187500.02235174447,-187500.02235174447,-187500.02235174447,-187500.02235174447
não,-1786.5749343126936,-12099.468660291275,6475.792107080473,8297.503983676908,-187500.02235174447,-187500.02235174447,-187500.02235174447,-187500.02235174447
não,-1828.3950481885731,-12107.135308639445,6351.337593953323,8318.805196142817,-187500.02235174447,-187500.02235174447,-187500.02235174447,-187500.02235174447
não,-1872.718557443447,-12119.49582332323,6165.684004507542,8325.60012645723,-187500.02235174447,-187500.02235174447,-187500.02235174447,-187500.02235174447
não,-1832.55247265726,-12118.199422144822,6265.484543500489,8303.695416891029,-187500.02235174447,-187500.02235174447,-187500.02235174447,-187500.02235174447
não,-1782.462213332917,-12105.63774176094,6461.263473184523,8291.245495229423,-187500.02235174447,-187500.02235174447,-187500.02235174447,-187500.02235174447
não,-1814.7157805819252,-12106.35299758351,6382.02653909046,8300.923800578572,-187500.02235174447,-187500.02235174447,-187500.02235174447,-187500.02235174447
não,-1864.1801910615197,-12115.271343621176,6188.102804196215,8312.636114673152,-187500.02235174447,-187500.02235174447,-187500.02235174447,-187500.02235174447
não,-1838.0286500488103,-12120.345189612532,6229.632345394176,8300.342655222734,-187500.02235174447,-187500.02235174447,-187500.02235174447,-187500.02235174447
não,-1786.3961203570511,-12107.805860973103,6447.56185383342,8289.92674230656,-187500.02235174447,-187500.02235174447,-187500.02235174447,-187500.02235174447
não,-1813.0617514922324,-12102.709663237294,6411.016751648993,8301.460242445499,-187500.02235174447,-187500.02235174447,-187500.02235174447,-187500.02235174447
não,-1863.84491489469,-12117.260648877698,6207.772339316886,8309.462166960499,-187500.02235174447,-187500.02235174447,-187500.02235174447,-187500.02235174447
não,-1854.0995543121762,-12122.960343713803,6189.6227228191765,8306.109405292202,-187500.02235174447,-187500.02235174447,-187500.02235174447,-187500.02235174447
não,-1784.205649400431,-12111.426843574864,6420.7174087425965,8295.045291786826,-187500.02235174447,-187500.02235174447,-187500.02235174447,-187500.02235174447
não,-1797.9966757293555,-12107.314122595088,6432.876757726283,8302.533126179353,-187500.02235174447,-187500.02235174447,-187500.02235174447,-187500.02235174447
não,-1859.240455536897,-12112.991465686735,6236.002592563938,8315.541841452341,-187500.02235174447,-187500.02235174447,-187500.02235174447,-187500.02235174447
não,-1869.4104992640614,-12123.966172214292,6166.890998708129,8309.104539049213,-187500.02235174447,-187500.02235174447,-187500.02235174447,-187500.02235174447
não,-1799.2260216743973,-12115.673675021371,6387.390957759733,8293.905352819605,-187500.02235174447,-187500.02235174447,-187500.02235174447,-187500.02235174447
não,-1784.2503528893417,-12105.570686527573,6458.067173727414,8295.760547609396,-187500.02235174447,-187500.02235174447,-187500.02235174447,-187500.02235174447
não,-1850.5009234548718,-12112.49972730872,6278.001520395461,8305.371797725176,-187500.02235174447,-187500.02235174447,-187500.02235174447,-187500.02235174447
não,-1871.8915428986006,-12126.469567593285,6159.8054957157965,8309.104539049213,-187500.02235174447,-187500.02235174447,-187500.02235174447,-187500.02235174447
não,-1810.9383357689783,-12116.880669221959,6345.25791946148,8298.822736599772,-187500.02235174447,-187500.02235174447,-187500.02235174447,-187500.02235174447
não,-1789.8159372587131,-12102.508497537196,6462.291653429467,8298.06277728829,-187500.02235174447,-187500.02235174447,-187500.02235174447,-187500.02235174447
não,-1836.4416761924836,-12107.358826083997,6313.987828968505,8308.858669860205,-187500.02235174447,-187500.02235174447,-187500.02235174447,-187500.02235174447
não,-1866.3036067847738,-12124.279096636665,6153.8152282017745,8306.39997797012,-187500.02235174447,-187500.02235174447,-187500.02235174447,-187500.02235174447
não,-1816.3474579271626,-12121.440425090841,6300.867354973239,8292.74306210793,-187500.02235174447,-187500.02235174447,-187500.02235174447,-187500.02235174447
não,-1778.7741754977912,-12110.108090652,6466.247912198057,8288.719748105974,-187500.02235174447,-187500.02235174447,-187500.02235174447,-187500.02235174447
não,-1819.6331643620927,-12113.662018020394,6350.06354451937,8299.001550555415,-187500.02235174447,-187500.02235174447,-187500.02235174447,-187500.02235174447
não,-1867.912932385556,-12125.508442581708,6165.013452173884,8303.918934335583,-187500.02235174447,-187500.02235174447,-187500.02235174447,-187500.02235174447
não,-1836.911062826045,-12124.949648970325,6258.8237236528075,8291.826640585261,-187500.02235174447,-187500.02235174447,-187500.02235174447,-187500.02235174447
não,-1784.652684289537,-12104.564858027084,6456.837827782372,8287.870381816672,-187500.02235174447,-187500.02235174447,-187500.02235174447,-187500.02235174447
não,-1822.6282981191039,-12102.284980092643,6376.729175654552,8299.470937188977,-187500.02235174447,-187500.02235174447,-187500.02235174447,-187500.02235174447
não,-1872.9867783769107,-12118.311180867098,6182.805440760308,8309.238649515944,-187500.02235174447,-187500.02235174447,-187500.02235174447,-187500.02235174447
não,-1844.5777111742154,-12128.25770714971,6215.841319065252,8294.240628986434,-187500.02235174447,-187500.02235174447,-187500.02235174447,-187500.02235174447
não,-1785.7479197678472,-12115.897192465925,6432.27326062599,8280.136678235136,-187500.02235174447,-187500.02235174447,-187500.02235174447,-187500.02235174447
não,-1798.4437106184616,-12111.426843574864,6406.769920202484,8288.943265550526,-187500.02235174447,-187500.02235174447,-187500.02235174447,-187500.02235174447
não,-1851.7973246332795,-12123.899116980925,6213.986124275461,8304.298913991322,-187500.02235174447,-187500.02235174447,-187500.02235174447,-187500.02235174447
não,-1855.0606793237544,-12124.949648970325,6198.675179323576,8295.514678420386,-187500.02235174447,-187500.02235174447,-187500.02235174447,-187500.02235174447
não,-1789.0336262027772,-12114.332570354054,6432.295612370445,8280.293140446323,-187500.02235174447,-187500.02235174447,-187500.02235174447,-187500.02235174447
não,-1789.3912541140621,-12110.577477285562,6435.044876938448,8283.511791647887,-187500.02235174447,-187500.02235174447,-187500.02235174447,-187500.02235174447
não,-1853.7642781453465,-12120.948686712825,6224.759665102919,8304.321265735778,-187500.02235174447,-187500.02235174447,-187500.02235174447,-187500.02235174447
não,-1867.0188626073436,-12130.045846706134,6149.993079899917,8304.88005934716,-187500.02235174447,-187500.02235174447,-187500.02235174447,-187500.02235174447
não,-1805.3280479106961,-12120.792224501638,6364.681585393141,8281.410727669088,-187500.02235174447,-187500.02235174447,-187500.02235174447,-187500.02235174447
não,-1796.432053617484,-12110.935105196848,6439.604632807331,8284.092937003725,-187500.02235174447,-187500.02235174447,-187500.02235174447,-187500.02235174447
não,-1842.8566268511568,-12119.831099490058,6274.715813960531,8304.209507013502,-187500.02235174447,-187500.02235174447,-187500.02235174447,-187500.02235174447
não,-1864.8954468840896,-12128.97296297228,6157.190341614526,8304.365969224687,-187500.02235174447,-187500.02235174447,-187500.02235174447,-187500.02235174447
não,-1811.4524258914503,-12119.719340767782,6331.82452104384,8285.21052422649,-187500.02235174447,-187500.02235174447,-187500.02235174447,-187500.02235174447
não,-1787.78192851328,-12107.805860973103,6455.183798692679,8284.964655037482,-187500.02235174447,-187500.02235174447,-187500.02235174447,-187500.02235174447
não,-1836.9557663149556,-12113.662018020394,6318.636991815209,8300.052082544815,-187500.02235174447,-187500.02235174447,-187500.02235174447,-187500.02235174447
não,-1874.327883044229,-12126.983657715757,6160.677213749554,8304.88005934716,-187500.02235174447,-187500.02235174447,-187500.02235174447,-187500.02235174447
não,-1819.9013852955563,-12130.314067639598,6296.329950848813,8289.122079506169,-187500.02235174447,-187500.02235174447,-187500.02235174447,-187500.02235174447
não,-1784.1609459115205,-12115.405454087908,6454.245025425556,8277.856800300695,-187500.02235174447,-187500.02235174447,-187500.02235174447,-187500.02235174447
não,-1826.875129565612,-12117.037131433146,6340.16172172567,8289.010320783893,-187500.02235174447,-187500.02235174447,-187500.02235174447,-187500.02235174447
não,-1871.1539353315754,-12129.598811817028,6157.257396847892,8295.134698764647,-187500.02235174447,-187500.02235174447,-187500.02235174447,-187500.02235174447
não,-1831.6136993901373,-12128.883555994458,6257.996709107961,8284.316454448277,-187500.02235174447,-187500.02235174447,-187500.02235174447,-187500.02235174447
não,-1784.7420912673583,-12116.411282588397,6456.368441148811,8273.475858387454,-187500.02235174447,-187500.02235174447,-187500.02235174447,-187500.02235174447
não,-1821.6448213630704,-12114.131404653956,6372.683509908141,8284.159992237092,-187500.02235174447,-187500.02235174447,-187500.02235174447,-187500.02235174447
não,-1868.7399469304023,-12124.860241992503,6174.647054034121,8300.074434289269,-187500.02235174447,-187500.02235174447,-187500.02235174447,-187500.02235174447
não,-1836.754600614858,-12131.49871009573,6212.08622599676,8295.358216209199,-187500.02235174447,-187500.02235174447,-187500.02235174447,-187500.02235174447
não,-1777.3883673415623,-12117.484166322252,6426.752379745529,8282.237742213934,-187500.02235174447,-187500.02235174447,-187500.02235174447,-187500.02235174447
não,-1799.136614696576,-12113.326741853565,6415.062417395404,8294.039463286337,-187500.02235174447,-187500.02235174447,-187500.02235174447,-187500.02235174447
não,-1854.233664778908,-12126.626029804473,6218.232955721969,8298.934495322048,-187500.02235174447,-187500.02235174447,-187500.02235174447,-187500.02235174447
não,-1852.713746155947,-12138.047771221134,6181.710205281997,8275.621625855163,-187500.02235174447,-187500.02235174447,-187500.02235174447,-187500.02235174447
não,-1788.2960186357523,-12124.323800125576,6398.432719520655,8266.993852495414,-187500.02235174447,-187500.02235174447,-187500.02235174447,-187500.02235174447
não,-1786.2396581458638,-12115.114881409989,6430.485121069565,8284.49526840392,-187500.02235174447,-187500.02235174447,-187500.02235174447,-187500.02235174447
não,-1844.2424350073857,-12121.552183813117,6242.9763368339945,8286.998663782915,-187500.02235174447,-187500.02235174447,-187500.02235174447,-187500.02235174447
não,-1862.839086394201,-12125.508442581708,6178.893885480629,8287.199829483012,-187500.02235174447,-187500.02235174447,-187500.02235174447,-187500.02235174447
não,-1803.5846118431823,-12118.132366911455,6403.730082956563,8272.917064776071,-187500.02235174447,-187500.02235174447,-187500.02235174447,-187500.02235174447
não,-1778.9976929423444,-12115.96424769929,6461.308176673434,8276.806268311295,-187500.02235174447,-187500.02235174447,-187500.02235174447,-187500.02235174447
não,-1835.1452750140759,-12118.579401800562,6264.925749889106,8285.657559115596,-187500.02235174447,-187500.02235174447,-187500.02235174447,-187500.02235174447
não,-1853.3395950006957,-12130.939916484347,6198.60812409021,8300.722634878473,-187500.02235174447,-187500.02235174447,-187500.02235174447,-187500.02235174447
não,-1817.3532864276513,-12125.083759437057,6375.365719242778,8277.275654944857,-187500.02235174447,-187500.02235174447,-187500.02235174447,-187500.02235174447
não,-1784.362111611618,-12117.528869811162,6450.489932357065,8276.940378778027,-187500.02235174447,-187500.02235174447,-187500.02235174447,-187500.02235174447
não,-1832.4183621905283,-12112.007988930702,6328.896442520195,8290.26201847339,-187500.02235174447,-187500.02235174447,-187500.02235174447,-187500.02235174447
não,-1882.5086215148715,-12121.127500668466,6176.144620912626,8293.950056308515,-187500.02235174447,-187500.02235174447,-187500.02235174447,-187500.02235174447
não,-1819.297888195263,-12124.435558847852,6320.492186604999,8294.575905153264,-187500.02235174447,-187500.02235174447,-187500.02235174447,-187500.02235174447
não,-1765.653701502526,-12115.740730254738,6553.285605107022,8287.222181227467,-187500.02235174447,-187500.02235174447,-187500.02235174447,-187500.02235174447
não,-1817.4203416610173,-12116.92537271087,6389.894353138728,8265.87626527265,-187500.02235174447,-187500.02235174447,-187500.02235174447,-187500.02235174447
não,-1862.168534060542,-12134.650306063928,6158.59850151521,8269.83252404124,-187500.02235174447,-187500.02235174447,-187500.02235174447,-187500.02235174447
não,-1807.5632223562268,-12138.047771221134,6294.050072914371,8279.510829390387,-187500.02235174447,-187500.02235174447,-187500.02235174447,-187500.02235174447
não,-1783.3115796222187,-12116.120709910478,6469.712432588629,8279.622588112663,-187500.02235174447,-187500.02235174447,-187500.02235174447,-187500.02235174447
não,-1803.1822804429867,-12118.981733200757,6376.662120421186,8290.3067219623,-187500.02235174447,-187500.02235174447,-187500.02235174447,-187500.02235174447
não,-1872.0256533653323,-12113.997294187224,6208.4652433950005,8297.481631932455,-187500.02235174447,-187500.02235174447,-187500.02235174447,-187500.02235174447
não,-1859.9780631039218,-12125.374332114976,6256.387383507179,8283.332977692244,-187500.02235174447,-187500.02235174447,-187500.02235174447,-187500.02235174447
não,-1797.9966757293555,-12110.331608096554,6399.729120699063,8257.717878546462,-187500.02235174447,-187500.02235174447,-187500.02235174447,-187500.02235174447
não,-1764.5584660242162,-12111.672712763871,6420.426836064677,8282.193038725023,-187500.02235174447,-187500.02235174447,-187500.02235174447,-187500.02235174447
não,-1822.3600771856402,-12124.904945481414,6265.976281878506,8312.703169906517,-187500.02235174447,-187500.02235174447,-187500.02235174447,-187500.02235174447
não,-1847.3716792311288,-12115.852488977014,6206.27477243838,8323.968449111993,-187500.02235174447,-187500.02235174447,-187500.02235174447,-187500.02235174447
não,-1791.1346901815762,-12109.973980185268,6351.337593953323,8283.802364325806,-187500.02235174447,-187500.02235174447,-187500.02235174447,-187500.02235174447
não,-1783.2892278777633,-12112.723244753272,6425.858309967317,8273.900541532104,-187500.02235174447,-187500.02235174447,-187500.02235174447,-187500.02235174447
não,-1840.9343768280003,-12111.672712763871,6268.189104579581,8313.150204795624,-187500.02235174447,-187500.02235174447,-187500.02235174447,-187500.02235174447
não,-1867.0188626073436,-12104.363692326986,6158.732611981942,8320.258059532413,-187500.02235174447,-187500.02235174447,-187500.02235174447,-187500.02235174447
não,-1760.3563380666183,-12109.973980185268,6369.978948829049,8305.327094236267,-187500.02235174447,-187500.02235174447,-187500.02235174447,-187500.02235174447
não,-1763.2620648458083,-12093.567799755074,6446.891301499761,8308.45633846001,-187500.02235174447,-187500.02235174447,-187500.02235174447,-187500.02235174447
não,-1831.524292412316,-12111.337436597043,6302.3872735962,8323.476710733976,-187500.02235174447,-187500.02235174447,-187500.02235174447,-187500.02235174447
não,-1823.879995808601,-12135.231451419766,6144.203978085992,8300.052082544815,-187500.02235174447,-187500.02235174447,-187500.02235174447,-187500.02235174447
não,-1793.1239954380985,-12108.521116795673,6308.511651576955,8294.911181320093,-187500.02235174447,-187500.02235174447,-187500.02235174447,-187500.02235174447
não,-1777.9248092084897,-12089.29861656411,6463.364537163322,8318.961658354005,-187500.02235174447,-187500.02235174447,-187500.02235174447,-187500.02235174447
não,-1799.2930769077632,-12115.114881409989,6310.970343467038,8297.146355765624,-187500.02235174447,-187500.02235174447,-187500.02235174447,-187500.02235174447
não,-1824.1482167420647,-12118.087663422546,6176.681062779554,8334.876100406182,-187500.02235174447,-187500.02235174447,-187500.02235174447,-187500.02235174447
não,-1788.3183703802074,-12113.840831976036,6301.269686373435,8320.54863221033,-187500.02235174447,-187500.02235174447,-187500.02235174447,-187500.02235174447
não,-1789.7712337698024,-12110.421015074375,6464.0350894969815,8283.198867225512,-187500.02235174447,-187500.02235174447,-187500.02235174447,-187500.02235174447
não,-1788.4971843358499,-12098.77575621316,6358.110172523281,8296.87813483216,-187500.02235174447,-187500.02235174447,-187500.02235174447,-187500.02235174447
não,-1836.3522692146623,-12102.374387070464,6164.566417284777,8327.432969502564,-187500.02235174447,-187500.02235174447,-187500.02235174447,-187500.02235174447
não,-1904.033351425332,-12061.314232506065,6254.219264295014,8362.838132719771,-187500.02235174447,-187500.02235174447,-187500.02235174447,-187500.02235174447
não,-1814.7604840708357,-12085.074136862057,6428.7640367465065,8314.178385040568,-187500.02235174447,-187500.02235174447,-187500.02235174447,-187500.02235174447
não,-1767.6653585035037,-12113.81848023158,6366.8944080942165,8274.34757642121,-187500.02235174447,-187500.02235174447,-187500.02235174447,-187500.02235174447
não,-1840.2191210054305,-12092.87489567696,6199.233972934959,8346.78958020086,-187500.02235174447,-187500.02235174447,-187500.02235174447,-187500.02235174447
não,-1871.9809498764218,-12122.1109774245,6186.359368128702,8296.87813483216,-187500.02235174447,-187500.02235174447,-187500.02235174447,-187500.02235174447
não,-1738.6080907116045,-12105.503631294207,6425.210109378113,8267.127962962146,-187500.02235174447,-187500.02235174447,-187500.02235174447,-187500.02235174447
não,-1807.9655537564224,-12055.815703370059,6410.726178971074,8330.629268959674,-187500.02235174447,-187500.02235174447,-187500.02235174447,-187500.02235174447
não,-1958.035166029354,-12064.331718007532,6172.344824355224,8310.579754183264,-187500.02235174447,-187500.02235174447,-187500.02235174447,-187500.02235174447
não,-1827.948013299467,-12116.67950352186,6181.151411670615,8313.865460618194,-187500.02235174447,-187500.02235174447,-187500.02235174447,-187500.02235174447
não,-1755.5507130087274,-12103.290808593132,6402.388978289245,8322.962620611504,-187500.02235174447,-187500.02235174447,-187500.02235174447,-187500.02235174447
não,-1871.8691911541453,-12061.738915650716,6455.7649440485175,8337.155978340625,-187500.02235174447,-187500.02235174447,-187500.02235174447,-187500.02235174447
não,-1954.3024247053177,-12081.721375193762,6196.775281044875,8337.066571362802,-187500.02235174447,-187500.02235174447,-187500.02235174447,-187500.02235174447
não,-1838.0957052821764,-12085.901151406902,6114.118530049149,8368.247254877955,-187500.02235174447,-187500.02235174447,-187500.02235174447,-187500.02235174447
não,-1818.1355974835872,-12075.552293724097,6350.331765452835,8334.876100406182,-187500.02235174447,-187500.02235174447,-187500.02235174447,-187500.02235174447
não,-1831.591347645682,-12060.688383661316,6431.915632714705,8316.88294611966,-187500.02235174447,-187500.02235174447,-187500.02235174447,-187500.02235174447
não,-1862.3473480161845,-12054.608709169474,6295.860564215251,8358.725411739995,-187500.02235174447,-187500.02235174447,-187500.02235174447,-187500.02235174447
não,-1938.6115000976922,-12070.634909943929,6135.464446003967,8377.009138704436,-187500.02235174447,-187500.02235174447,-187500.02235174447,-187500.02235174447
não,-1860.849781137679,-12079.240331559222,6299.347436350279,8339.972298141993,-187500.02235174447,-187500.02235174447,-187500.02235174447,-187500.02235174447
não,-1839.883844838601,-12062.945909851303,6457.150752204747,8332.12683583818,-187500.02235174447,-187500.02235174447,-187500.02235174447,-187500.02235174447
não,-1921.8029882673013,-12067.036279086624,6310.523308577933,8355.372650071698,-187500.02235174447,-187500.02235174447,-187500.02235174447,-187500.02235174447
não,-1938.2538721864073,-12062.632985428929,6112.710370148465,8410.581458876308,-187500.02235174447,-187500.02235174447,-187500.02235174447,-187500.02235174447
não,-1881.3239790587402,-12051.613575412463,6255.202741051047,8384.429917863597,-187500.02235174447,-187500.02235174447,-187500.02235174447,-187500.02235174447
não,-1792.8557745046348,-12067.39390699791,6487.325607219411,8342.967431899004,-187500.02235174447,-187500.02235174447,-187500.02235174447,-187500.02235174447
não,-1846.812885619746,-12046.986764310213,6387.212143804091,8348.108333123724,-187500.02235174447,-187500.02235174447,-187500.02235174447,-187500.02235174447
não,-1964.1371922656529,-12052.529996935129,6124.534442965322,8389.861391766237,-187500.02235174447,-187500.02235174447,-187500.02235174447,-187500.02235174447
não,-1947.976881024466,-12059.995479583202,6194.338940899246,8376.003310203947,-187500.02235174447,-187500.02235174447,-187500.02235174447,-187500.02235174447
não,-1824.8411208201792,-12077.67570944735,6451.51811260201,8363.531036797885,-187500.02235174447,-187500.02235174447,-187500.02235174447,-187500.02235174447
não,-1824.5952516311709,-12073.384174511932,6370.157762784692,8363.642795520163,-187500.02235174447,-187500.02235174447,-187500.02235174447,-187500.02235174447
não,-1874.9313801445223,-12046.763246865661,6249.100714814748,8394.354092401754,-187500.02235174447,-187500.02235174447,-187500.02235174447,-187500.02235174447
não,-1932.1518459501085,-12074.814686157071,6199.032807234861,8355.12678088269,-187500.02235174447,-187500.02235174447,-187500.02235174447,-187500.02235174447
não,-1888.4765372844383,-12129.35294262802,6346.397858428701,8322.716751422495,-187500.02235174447,-187500.02235174447,-187500.02235174447,-187500.02235174447
não,-1826.6069086321484,-12053.871101602448,6419.085731397358,8383.513496340931,-187500.02235174447,-187500.02235174447,-187500.02235174447,-187500.02235174447
não,-1857.5193712138382,-11995.644807296374,6361.574692913854,8430.04982829688,-187500.02235174447,-187500.02235174447,-187500.02235174447,-187500.02235174447
não,-1867.2200283074415,-12092.271398576666,6203.36904565919,8367.509647310932,-187500.02235174447,-187500.02235174447,-187500.02235174447,-187500.02235174447
não,-1866.5047724848716,-12146.541434114151,6317.027666214427,8295.335864464745,-187500.02235174447,-187500.02235174447,-187500.02235174447,-187500.02235174447
não,-1818.3591149281401,-12104.184878371345,6377.2209140325685,8323.186138056057,-187500.02235174447,-187500.02235174447,-187500.02235174447,-187500.02235174447
não,-1905.262697370374,-12086.236427573733,6203.301990425824,8354.053897148837,-187500.02235174447,-187500.02235174447,-187500.02235174447,-187500.02235174447
não,-1924.1275696906532,-12121.082797179557,6125.003829598883,8371.577664801796,-187500.02235174447,-187500.02235174447,-187500.02235174447,-187500.02235174447
não,-1816.7721410718134,-12088.002215385703,6354.444486432611,8309.2610012604,-187500.02235174447,-187500.02235174447,-187500.02235174447,-187500.02235174447
não,-1793.6157338161152,-12065.941043608314,6413.4977952835325,8307.495213448432,-187500.02235174447,-187500.02235174447,-187500.02235174447,-187500.02235174447
não,-1875.2666563113519,-12074.85938964598,6254.688650928575,8326.784768913361,-187500.02235174447,-187500.02235174447,-187500.02235174447,-187500.02235174447
não,-1852.1549525445644,-12116.2101168883,6150.484818277934,8358.300728595344,-187500.02235174447,-187500.02235174447,-187500.02235174447,-187500.02235174447
não,-1816.2133474604307,-12126.648381548928,6270.267816813925,8320.638039188152,-187500.02235174447,-187500.02235174447,-187500.02235174447,-187500.02235174447
não,-1826.3386876986847,-12110.979808685757,6394.565867729887,8270.883056030638,-187500.02235174447,-187500.02235174447,-187500.02235174447,-187500.02235174447
não,-1817.1521207275537,-12050.473636445242,6350.711745108574,8334.65258296163,-187500.02235174447,-187500.02235174447,-187500.02235174447,-187500.02235174447
não,-1888.7224064734469,-12155.862111552015,6126.613155199666,8265.11630596117,-187500.02235174447,-187500.02235174447,-187500.02235174447,-187500.02235174447
não,-1804.657495577037,-12150.162416715912,6221.228089478981,8267.664404829075,-187500.02235174447,-187500.02235174447,-187500.02235174447,-187500.02235174447
não,-1723.8782911155572,-12106.956494683802,6453.0603829694255,8302.823698857272,-187500.02235174447,-187500.02235174447,-187500.02235174447,-187500.02235174447
não,-1782.5069168218276,-12117.081834922057,6399.103271854315,8296.364044709688,-187500.02235174447,-187500.02235174447,-187500.02235174447,-187500.02235174447
não,-1849.5845019322041,-12152.621108605994,6147.757905454387,8280.673120102063,-187500.02235174447,-187500.02235174447,-187500.02235174447,-187500.02235174447
não,-1757.0929833761436,-12110.555125541106,6233.253327995936,8320.123949065679,-187500.02235174447,-187500.02235174447,-187500.02235174447,-187500.02235174447
não,-1712.3894944655294,-12111.628009274962,6430.909804214216,8287.535105649842,-187500.02235174447,-187500.02235174447,-187500.02235174447,-187500.02235174447
não,-1741.3797070240626,-12101.659131247894,6385.133431569748,8298.465108688488,-187500.02235174447,-187500.02235174447,-187500.02235174447,-187500.02235174447
não,-1774.9296754514785,-12104.810727216092,6225.966659303505,8358.74776348445,-187500.02235174447,-187500.02235174447,-187500.02235174447,-187500.02235174447
não,-1737.6022622111157,-12080.000290870703,6275.565180249832,8360.200626874046,-187500.02235174447,-187500.02235174447,-187500.02235174447,-187500.02235174447
não,-1651.369232102541,-12042.71758111925,6472.484048901088,8313.239611773446,-187500.02235174447,-187500.02235174447,-187500.02235174447,-187500.02235174447
não,-1686.4614708973731,-12099.87099169147,6442.376249119789,8293.771242352872,-187500.02235174447,-187500.02235174447,-187500.02235174447,-187500.02235174447
não,-1729.5109307182945,-12112.67854126436,6268.613787724232,8321.93444036656,-187500.02235174447,-187500.02235174447,-187500.02235174447,-187500.02235174447
não,-1723.4759597153616,-12102.709663237294,6218.881156311173,8341.64867897614,-187500.02235174447,-187500.02235174447,-187500.02235174447,-187500.02235174447
não,-1664.3555956310745,-12083.956549639292,6437.414161850711,8347.594243001253,-187500.02235174447,-187500.02235174447,-187500.02235174447,-187500.02235174447
não,-1658.3876798615074,-12067.460962231275,6487.99615955307,8342.945080154548,-187500.02235174447,-187500.02235174447,-187500.02235174447,-187500.02235174447
não,-1694.8657268125687,-12077.452192002796,6308.422244599134,8347.549539512342,-187500.02235174447,-187500.02235174447,-187500.02235174447,-187500.02235174447
não,-1665.5178863427504,-12092.673729976861,6239.355354232234,8390.978978989004,-187500.02235174447,-187500.02235174447,-187500.02235174447,-187500.02235174447
não,-1609.0573798486448,-12078.48037224774,6442.108028186325,8368.604882789241,-187500.02235174447,-187500.02235174447,-187500.02235174447,-187500.02235174447
não,-1614.0641706066335,-12049.62427015594,6540.656869489774,8367.12966765519,-187500.02235174447,-187500.02235174447,-187500.02235174447,-187500.02235174447
não,-1702.5323751607389,-12085.387061284431,6343.11215199377,8343.325059810288,-187500.02235174447,-187500.02235174447,-187500.02235174447,-187500.02235174447
não,-1709.4837676863394,-12108.29759935112,6211.773301574386,8323.856690389715,-187500.02235174447,-187500.02235174447,-187500.02235174447,-187500.02235174447
não,-1593.5899726855723,-12091.891418920924,6402.567792244887,8348.063629634813,-187500.02235174447,-187500.02235174447,-187500.02235174447,-187500.02235174447
não,-1567.505486906229,-12077.608654213984,6548.144703882302,8345.716696467007,-187500.02235174447,-187500.02235174447,-187500.02235174447,-187500.02235174447
não,-1588.9184580944132,-12078.14509608091,6439.358763618322,8358.837170462271,-187500.02235174447,-187500.02235174447,-187500.02235174447,-187500.02235174447
não,-1644.797819232681,-12109.258724362699,6262.355299276745,8355.395001816154,-187500.02235174447,-187500.02235174447,-187500.02235174447,-187500.02235174447
não,-1610.7561124272481,-12099.62512250246,6373.018786074971,8341.112237109213,-187500.02235174447,-187500.02235174447,-187500.02235174447,-187500.02235174447
não,-1555.9943385117458,-12080.715546693273,6571.904608238293,8338.184158585567,-187500.02235174447,-187500.02235174447,-187500.02235174447,-187500.02235174447
não,-1597.568583198617,-12063.43764822932,6508.515060963043,8359.574778029297,-187500.02235174447,-187500.02235174447,-187500.02235174447,-187500.02235174447
não,-1656.6218920495382,-12069.271453532154,6319.307544148868,8372.695252024561,-187500.02235174447,-187500.02235174447,-187500.02235174447,-187500.02235174447
não,-1671.8434300236024,-12103.11199463749,6321.118035449748,8328.952888125526,-187500.02235174447,-187500.02235174447,-187500.02235174447,-187500.02235174447
não,-1598.9096878659354,-12093.009006143691,6532.096151363391,8346.811931945316,-187500.02235174447,-187500.02235174447,-187500.02235174447,-187500.02235174447
não,-1630.3809440590078,-12082.146058338412,6489.896057831772,8359.239501862467,-187500.02235174447,-187500.02235174447,-187500.02235174447,-187500.02235174447
$SILENCE,-1672.6033893350827,-12082.213113571777,6301.24733462898,8359.686536751573,-187500.02235174447,-187500.02235174447,-187500.02235174447,-187500.02235174447
$SILENCE,-1634.4936650387842,-12087.957511896791,6298.453366572066,8350.879949436183,-187500.02235174447,-187500.02235174447,-187500.02235174447,-187500.02235174447
$SILENCE,-1631.3867725594966,-12095.959436411791,6508.3362470074,8326.762417168906,-187500.02235174447,-187500.02235174447,-187500.02235174447,-187500.02235174447
$SILENCE,-1633.9572231718569,-12067.796238398105,6537.617032243852,8351.818722703305,-187500.02235174447,-187500.02235174447,-187500.02235174447,-187500.02235174447
$SILENCE,-1685.4556423968843,-12063.48235171823,6361.954672569594,8391.761290044939,-187500.02235174447,-187500.02235174447,-187500.02235174447,-187500.02235174447
$SILENCE,-1725.9793550943562,-12083.420107772365,6284.282360587402,8377.478525337998,-187500.02235174447,-187500.02235174447,-187500.02235174447,-187500.02235174447
$SILENCE,-1674.0562527246777,-12071.014889599668,6496.065139301436,8389.146135943667,-187500.02235174447,-187500.02235174447,-187500.02235174447,-187500.02235174447
$SILENCE,-1642.7191069983373,-12050.205415511778,6570.474096593153,8393.683540068096,-187500.02235174447,-187500.02235174447,-187500.02235174447,-187500.02235174447
$SILENCE,-1688.1602034759765,-12061.761267395172,6402.679550967164,8386.419223120121,-187500.02235174447,-187500.02235174447,-187500.02235174447,-187500.02235174447
$SILENCE,-1747.4146780269955,-12083.800087428104,6266.132744089693,8345.895510422648,-187500.02235174447,-187500.02235174447,-187500.02235174447,-187500.02235174447
$SILENCE,-1689.5460116322056,-12087.242256074222,6447.427743366688,8333.780864927872,-187500.02235174447,-187500.02235174447,-187500.02235174447,-187500.02235174447
$SILENCE,-1674.302121913686,-12073.071250089557,6564.8861604793265,8355.327946582789,-187500.02235174447,-187500.02235174447,-187500.02235174447,-187500.02235174447
$SILENCE,-1706.8015583517026,-12071.931311122336,6413.095463883336,8366.526170554896,-187500.02235174447,-187500.02235174447,-187500.02235174447,-187500.02235174447
$SILENCE,-1763.2620648458083,-12100.563895769585,6234.750894874442,8318.73814090945,-187500.02235174447,-187500.02235174447,-187500.02235174447,-187500.02235174447
$SILENCE,-1706.1980612514094,-12095.62416024496,6390.184925816647,8311.250306516922,-187500.02235174447,-187500.02235174447,-187500.02235174447,-187500.02235174447
$SILENCE,-1636.952356928868,-12072.847732645003,6578.654835063796,8369.677766523095,-187500.02235174447,-187500.02235174447,-187500.02235174447,-187500.02235174447
$SILENCE,-1683.756909818281,-12061.157770294878,6495.1487177787685,8387.067423709324,-187500.02235174447,-187500.02235174447,-187500.02235174447,-187500.02235174447
$SILENCE,-1751.7285647068697,-12073.741802423216,6289.24444785648,8340.88871966466,-187500.02235174447,-187500.02235174447,-187500.02235174447,-187500.02235174447
$SILENCE,-1697.1009012580994,-12090.662072975883,6381.288931523434,8335.121969595191,-187500.02235174447,-187500.02235174447,-187500.02235174447,-187500.02235174447
$SILENCE,-1634.3595545720525,-12100.58624751404,6578.476021108154,8327.656486947119,-187500.02235174447,-187500.02235174447,-187500.02235174447,-187500.02235174447
$SILENCE,-1689.5236598877502,-12086.683462462839,6498.1438515357795,8330.897489893137,-187500.02235174447,-187500.02235174447,-187500.02235174447,-187500.02235174447
$SILENCE,-1729.6003376961157,-12051.010078312169,6332.450369888588,8352.042240147859,-187500.02235174447,-187500.02235174447,-187500.02235174447,-187500.02235174447
$SILENCE,-1735.2553290433084,-12043.924575319836,6383.389995502233,8388.94497024357,-187500.02235174447,-187500.02235174447,-187500.02235174447,-187500.02235174447
$SILENCE,-1713.820006110669,-12037.017886283147,6572.038718705025,8354.255062848933,-187500.02235174447,-187500.02235174447,-187500.02235174447,-187500.02235174447
$SILENCE,-1698.2184884808646,-12059.660203416373,6541.863863690361,8415.901174056671,-187500.02235174447,-187500.02235174447,-187500.02235174447,-187500.02235174447
$SILENCE,-1718.5362241907387,-12070.456095988286,6333.813826300362,8390.554295844353,-187500.02235174447,-187500.02235174447,-187500.02235174447,-187500.02235174447
$SILENCE,-1724.7723608937695,-12064.219959285256,6309.919811477639,8371.75647875744,-187500.02235174447,-187500.02235174447,-187500.02235174447,-187500.02235174447
$SILENCE,-1661.7851450187143,-12036.324982205031,6556.124276652847,8400.411415149143,-187500.02235174447,-187500.02235174447,-187500.02235174447,-187500.02235174447
$SILENCE,-1688.8978110430016,-12034.71565660425,6566.1155064243685,8400.545525615875,-187500.02235174447,-187500.02235174447,-187500.02235174447,-187500.02235174447
$SILENCE,-1755.1930850974425,-12051.1441887789,6347.627204373742,8395.583438346797,-187500.02235174447,-187500.02235174447,-187500.02235174447,-187500.02235174447
$SILENCE,-1783.043358688755,-12052.932328335326,6270.893665658673,8389.257894665945,-187500.02235174447,-187500.02235174447,-187500.02235174447,-187500.02235174447
$SILENCE,-1716.9716020788674,-12064.979918596735,6492.488860188587,8375.779792759395,-187500.02235174447,-187500.02235174447,-187500.02235174447,-187500.02235174447
$SILENCE,-1694.3292849456413,-12051.792389368104,6575.369128628866,8387.51445859843,-187500.02235174447,-187500.02235174447,-187500.02235174447,-187500.02235174447
$SILENCE,-1720.9949160808226,-12047.031467799125,6409.005094648015,8427.591136406796,-187500.02235174447,-187500.02235174447,-187500.02235174447,-187500.02235174447
$SILENCE,-1747.3252710491743,-12059.347278993999,6278.247389584469,8411.497880398974,-187500.02235174447,-187500.02235174447,-187500.02235174447,-187500.02235174447
$SILENCE,-1702.0182850382669,-12051.837092857015,6456.591958593364,8396.85748778075,-187500.02235174447,-187500.02235174447,-187500.02235174447,-187500.02235174447
$SILENCE,-1699.3807791925406,-12048.57373816654,6574.229189661645,8396.298694169367,-187500.02235174447,-187500.02235174447,-187500.02235174447,-187500.02235174447
$SILENCE,-1740.6420994570376,-12046.405618954375,6433.815530993406,8415.096511256279,-187500.02235174447,-187500.02235174447,-187500.02235174447,-187500.02235174447
$SILENCE,-1801.304733908741,-12052.440589957308,6260.053069597849,8410.71556934304,-187500.02235174447,-187500.02235174447,-187500.02235174447,-187500.02235174447
$SILENCE,-1754.5672362526939,-12055.122799291945,6397.9409811426385,8404.390025662187,-187500.02235174447,-187500.02235174447,-187500.02235174447,-187500.02235174447
$SILENCE,-1712.8365293546356,-12028.501871645674,6573.692747794717,8408.56980187533,-187500.02235174447,-187500.02235174447,-187500.02235174447,-187500.02235174447
$SILENCE,-1779.6905970204589,-12032.882813558916,6452.5909963358645,8425.065389283347,-187500.02235174447,-187500.02235174447,-187500.02235174447,-187500.02235174447
$SILENCE,-1827.4562749214501,-12049.244290500199,6255.739182917975,8420.975020048025,-187500.02235174447,-187500.02235174447,-187500.02235174447,-187500.02235174447
$SILENCE,-1795.5826873281824,-12065.784581397127,6333.322087922345,8398.08683372579,-187500.02235174447,-187500.02235174447,-187500.02235174447,-187500.02235174447
$SILENCE,-1739.882140145557,-12042.047028785591,6549.284642849522,8400.791394804883,-187500.02235174447,-187500.02235174447,-187500.02235174447,-187500.02235174447
$SILENCE,-1740.686802945948,-12037.934307805814,6468.728955832596,8406.580496618808,-187500.02235174447,-187500.02235174447,-187500.02235174447,-187500.02235174447
$SILENCE,-1795.202707672442,-12047.389095710409,6271.206590081048,8418.136348502201,-187500.02235174447,-187500.02235174447,-187500.02235174447,-187500.02235174447
$SILENCE,-1809.910155524034,-12046.047991043091,6298.810994483351,8413.934220544603,-187500.02235174447,-187500.02235174447,-187500.02235174447,-187500.02235174447
$SILENCE,-1729.8909103740348,-12041.354124707475,6526.798787927483,8394.37644414621,-187500.02235174447,-187500.02235174447,-187500.02235174447,-187500.02235174447
$SILENCE,-1745.6935937039368,-12042.650525885883,6492.690025888685,8406.111109985246,-187500.02235174447,-187500.02235174447,-187500.02235174447,-187500.02235174447
$SILENCE,-1811.497129380361,-12050.585395167518,6290.987883923994,8423.679581127117,-187500.02235174447,-187500.02235174447,-187500.02235174447,-187500.02235174447
$SILENCE,-1816.6156788606263,-12056.329793492532,6254.353374761746,8401.685464583095,-187500.02235174447,-187500.02235174447,-187500.02235174447,-187500.02235174447
$SILENCE,-1746.788829182247,-12047.85848234397,6479.480144915598,8386.66509230913,-187500.02235174447,-187500.02235174447,-187500.02235174447,-187500.02235174447
$SILENCE,-1745.8053524262134,-12041.354124707475,6514.728845921618,8396.388101147188,-187500.02235174447,-187500.02235174447,-187500.02235174447,-187500.02235174447
$SILENCE,-1825.712838853936,-12051.52416843464,6329.656401831675,8418.650438624672,-187500.02235174447,-187500.02235174447,-187500.02235174447,-187500.02235174447
$SILENCE,-1853.6972229119806,-12063.504703462686,6230.571118661299,8412.056674010359,-187500.02235174447,-187500.02235174447,-187500.02235174447,-187500.02235174447
$SILENCE,-1756.4447827869396,-12059.816665627559,6434.195510649146,8388.90026675466,-187500.02235174447,-187500.02235174447,-187500.02235174447,-187500.02235174447
$SILENCE,-1733.6683551869817,-12049.803084111581,6519.735636679607,8396.902191269659,-187500.02235174447,-187500.02235174447,-187500.02235174447,-187500.02235174447
$SILENCE,-1799.4495391189505,-12045.37743870943,6348.655384618686,8419.76802584744,-187500.02235174447,-187500.02235174447,-187500.02235174447,-187500.02235174447
$SILENCE,-1832.8206935907237,-12059.570796438551,6218.948211544539,8433.827273109826,-187500.02235174447,-187500.02235174447,-187500.02235174447,-187500.02235174447
$SILENCE,-1772.4486318169395,-12058.632023171429,6398.097443353826,8416.147043245679,-187500.02235174447,-187500.02235174447,-187500.02235174447,-187500.02235174447
$SILENCE,-1734.696535431926,-12052.440589957308,6522.686066947707,8401.774871560916,-187500.02235174447,-187500.02235174447,-187500.02235174447,-187500.02235174447
$SILENCE,-1760.8033729557244,-12060.017831327657,6376.59506518782,8403.317141928334,-187500.02235174447,-187500.02235174447,-187500.02235174447,-187500.02235174447
$SILENCE,-1811.430074146995,-12069.696136676805,6218.61293537771,8416.035284523403,-187500.02235174447,-187500.02235174447,-187500.02235174447,-187500.02235174447
$SILENCE,-1782.171640654998,-12065.806933141583,6347.247224718002,8407.85454605276,-187500.02235174447,-187500.02235174447,-187500.02235174447,-187500.02235174447
$SILENCE,-1743.592529725138,-12052.619403912951,6522.775473925528,8406.558144874352,-187500.02235174447,-187500.02235174447,-187500.02235174447,-187500.02235174447
$SILENCE,-1785.7479197678472,-12055.748648136694,6426.752379745529,8425.512424172453,-187500.02235174447,-187500.02235174447,-187500.02235174447,-187500.02235174447
$SILENCE,-1850.5456269437823,-12072.244235544711,6227.620688393198,8419.097473513779,-187500.02235174447,-187500.02235174447,-187500.02235174447,-187500.02235174447
$SILENCE,-1808.8596235346347,-12076.066383846568,6281.7789652084075,8382.440612607075,-187500.02235174447,-187500.02235174447,-187500.02235174447,-187500.02235174447
$SILENCE,-1727.0075353393001,-12059.928424349837,6497.719168391129,8378.707871283039,-187500.02235174447,-187500.02235174447,-187500.02235174447,-187500.02235174447
$SILENCE,-1729.7120964183923,-12057.067401059558,6445.952528232638,8394.488202868486,-187500.02235174447,-187500.02235174447,-187500.02235174447,-187500.02235174447
$SILENCE,-1787.8713354911013,-12072.735973922727,6246.4408572245675,8407.273400696922,-187500.02235174447,-187500.02235174447,-187500.02235174447,-187500.02235174447
$SILENCE,-1774.527344051283,-12084.850619417504,6261.371822520712,8394.08587146829,-187500.02235174447,-187500.02235174447,-187500.02235174447,-187500.02235174447
$SILENCE,-1716.4798637008505,-12072.11012507798,6482.8776100728055,8378.976092216502,-187500.02235174447,-187500.02235174447,-187500.02235174447,-187500.02235174447
$SILENCE,-1758.590550254649,-12064.622290685451,6464.750345319551,8386.843906264772,-187500.02235174447,-187500.02235174447,-187500.02235174447,-187500.02235174447
$SILENCE,-1805.9538967554447,-12084.671805461861,6264.657528955642,8394.823479035316,-187500.02235174447,-187500.02235174447,-187500.02235174447,-187500.02235174447
$SILENCE,-1782.2833993772745,-12083.800087428104,6230.794636105852,8401.081967482802,-187500.02235174447,-187500.02235174447,-187500.02235174447,-187500.02235174447
$SILENCE,-1729.0415440847332,-12070.478447732741,6453.976804492093,8384.452269608053,-187500.02235174447,-187500.02235174447,-187500.02235174447,-187500.02235174447
$SILENCE,-1736.1941023104314,-12067.237444786722,6493.695854389174,8386.329816142299,-187500.02235174447,-187500.02235174447,-187500.02235174447,-187500.02235174447
$SILENCE,-1790.6429518035593,-12077.049860602601,6298.520421805432,8390.084909210791,-187500.02235174447,-187500.02235174447,-187500.02235174447,-187500.02235174447
$SILENCE,-1813.2852689367855,-12085.878799662447,6204.486632881955,8395.114051713235,-187500.02235174447,-187500.02235174447,-187500.02235174447,-187500.02235174447
$SILENCE,-1751.236826328853,-12078.078040847546,6407.619286491787,8380.250141650456,-187500.02235174447,-187500.02235174447,-187500.02235174447,-187500.02235174447
$SILENCE,-1717.0386573122332,-12068.91382562087,6504.782319639006,8378.104374182747,-187500.02235174447,-187500.02235174447,-187500.02235174447,-187500.02235174447
$SILENCE,-1771.5992655276377,-12077.832171658538,6340.429942659133,8398.913848270637,-187500.02235174447,-187500.02235174447,-187500.02235174447,-187500.02235174447
$SILENCE,-1800.2318501748862,-12088.136325852434,6196.395301389134,8409.150947231168,-187500.02235174447,-187500.02235174447,-187500.02235174447,-187500.02235174447
$SILENCE,-1731.6343464415488,-12085.96820664027,6369.934245340139,8384.720490541516,-187500.02235174447,-187500.02235174447,-187500.02235174447,-187500.02235174447
$SILENCE,-1716.4128084674846,-12072.758325667182,6507.553935951464,8376.070365437314,-187500.02235174447,-187500.02235174447,-187500.02235174447,-187500.02235174447
$SILENCE,-1765.6984049914367,-12075.932273379836,6370.78361162944,8388.18501093209,-187500.02235174447,-187500.02235174447,-187500.02235174447,-187500.02235174447
$SILENCE,-1809.686638079481,-12089.320968308564,6206.5876968607545,8396.276342424911,-187500.02235174447,-187500.02235174447,-187500.02235174447,-187500.02235174447
$SILENCE,-1780.2270388873862,-12089.2539130752,6326.303640163379,8377.076193937803,-187500.02235174447,-187500.02235174447,-187500.02235174447,-187500.02235174447
$SILENCE,-1742.6314047135597,-12073.406526256387,6505.229354528112,8365.207417632035,-187500.02235174447,-187500.02235174447,-187500.02235174447,-187500.02235174447
$SILENCE,-1760.557503766716,-12073.093601834013,6398.700940454119,8373.142286913668,-187500.02235174447,-187500.02235174447,-187500.02235174447,-187500.02235174447
$SILENCE,-1781.2775708767858,-12085.945854895814,6212.309743441313,8389.704929555051,-187500.02235174447,-187500.02235174447,-187500.02235174447,-187500.02235174447
$SILENCE,-1761.5186287782942,-12092.003177643202,6274.916979660628,8379.04314744987,-187500.02235174447,-187500.02235174447,-187500.02235174447,-187500.02235174447
$SILENCE,-1709.953154319901,-12083.420107772365,6483.324644961911,8361.027641418892,-187500.02235174447,-187500.02235174447,-187500.02235174447,-187500.02235174447
$SILENCE,-1750.2980530617301,-12080.648491459906,6432.474426326087,8370.75065025695,-187500.02235174447,-187500.02235174447,-187500.02235174447,-187500.02235174447
$SILENCE,-1813.844062548168,-12087.152849096401,6236.270813497403,8384.005234718947,-187500.02235174447,-187500.02235174447,-187500.02235174447,-187500.02235174447
$SILENCE,-1778.6400650310595,-12096.451174789809,6251.201778793547,8374.84101949227,-187500.02235174447,-187500.02235174447,-187500.02235174447,-187500.02235174447
$SILENCE,-1701.0571600266887,-12085.543523495619,6470.003005266548,8355.618519260708,-187500.02235174447,-187500.02235174447,-187500.02235174447,-187500.02235174447
$SILENCE,-1739.72567793437,-12083.129535094446,6453.797990536451,8353.338641326267,-187500.02235174447,-187500.02235174447,-187500.02235174447,-187500.02235174447
$SILENCE,-1795.3591698836292,-12093.009006143691,6253.101677072248,8363.508685053432,-187500.02235174447,-187500.02235174447,-187500.02235174447,-187500.02235174447
$SILENCE,-1781.2552191323305,-12098.887514935437,6213.069702752794,8366.213246132524,-187500.02235174447,-187500.02235174447,-187500.02235174447,-187500.02235174447
$SILENCE,-1717.2621747567864,-12093.701910221806,6440.476350841088,8346.923690667592,-187500.02235174447,-187500.02235174447,-187500.02235174447,-187500.02235174447
$SILENCE,-1726.918128361479,-12085.096488606512,6489.784299109495,8348.287147079367,-187500.02235174447,-187500.02235174447,-187500.02235174447,-187500.02235174447
$SILENCE,-1786.4408238459616,-12093.456041032798,6306.187070153603,8359.08303965128,-187500.02235174447,-187500.02235174447,-187500.02235174447,-187500.02235174447
$SILENCE,-1810.4689491354168,-12105.190706871834,6203.7713770593855,8359.239501862467,-187500.02235174447,-187500.02235174447,-187500.02235174447,-187500.02235174447
$SILENCE,-1736.4846749883504,-12100.25097134721,6398.700940454119,8338.966469641504,-187500.02235174447,-187500.02235174447,-187500.02235174447,-187500.02235174447
$SILENCE,-1702.0629885271776,-12086.504648507196,6498.9038108472605,8338.519434752398,-187500.02235174447,-187500.02235174447,-187500.02235174447,-187500.02235174447
$SILENCE,-1778.7294720088807,-12089.142154352923,6340.608756614775,8353.450400048543,-187500.02235174447,-187500.02235174447,-187500.02235174447,-187500.02235174447
$SILENCE,-1812.1453299695647,-12100.049805647113,6194.361292643702,8352.444571548054,-187500.02235174447,-187500.02235174447,-187500.02235174447,-187500.02235174447
$SILENCE,-1726.4710934723728,-12102.933180681846,6356.478495178044,8327.432969502564,-187500.02235174447,-187500.02235174447,-187500.02235174447,-187500.02235174447
$SILENCE,-1693.4575669118842,-12092.96430265478,6508.246840029578,8331.03160035987,-187500.02235174447,-187500.02235174447,-187500.02235174447,-187500.02235174447
$SILENCE,-1748.9569483944117,-12094.283055577644,6376.818582632373,8342.341583054254,-187500.02235174447,-187500.02235174447,-187500.02235174447,-187500.02235174447
$SILENCE,-1790.6653035480147,-12106.487108050242,6198.876345023674,8345.716696467007,-187500.02235174447,-187500.02235174447,-187500.02235174447,-187500.02235174447
$SILENCE,-1756.6012449981267,-12106.956494683802,6311.931468478617,8334.227899816979,-187500.02235174447,-187500.02235174447,-187500.02235174447,-187500.02235174447
$SILENCE,-1710.0202095532668,-12095.244180589221,6499.730825392106,8328.50585323642,-187500.02235174447,-187500.02235174447,-187500.02235174447,-187500.02235174447
$SILENCE,-1738.8986633895236,-12094.126593366456,6409.452129537121,8344.755571455427,-187500.02235174447,-187500.02235174447,-187500.02235174447,-187500.02235174447
$SILENCE,-1794.755672783336,-12103.581381271051,6219.082322011272,8354.746801226951,-187500.02235174447,-187500.02235174447,-187500.02235174447,-187500.02235174447
$SILENCE,-1773.3874050840623,-12107.224715617265,6274.425241282612,8335.747818439939,-187500.02235174447,-187500.02235174447,-187500.02235174447,-187500.02235174447
$SILENCE,-1701.5041949157949,-12094.886552677937,6486.587999652386,8328.192928814045,-187500.02235174447,-187500.02235174447,-187500.02235174447,-187500.02235174447
$SILENCE,-1732.6848784309482,-12094.350110811009,6437.2129961506125,8329.019943358891,-187500.02235174447,-187500.02235174447,-187500.02235174447,-187500.02235174447
$SILENCE,-1795.7391495393695,-12106.509459794695,6236.270813497403,8337.826530674283,-187500.02235174447,-187500.02235174447,-187500.02235174447,-187500.02235174447
$SILENCE,-1774.5496957957382,-12111.203326130311,6239.958851332528,8334.831396917272,-187500.02235174447,-187500.02235174447,-187500.02235174447,-187500.02235174447
$SILENCE,-1718.6479829130153,-12099.088680635534,6461.665804584719,8317.195870542035,-187500.02235174447,-187500.02235174447,-187500.02235174447,-187500.02235174447
$SILENCE,-1740.530340734761,-12091.220866587266,6462.761040063029,8328.014114858403,-187500.02235174447,-187500.02235174447,-187500.02235174447,-187500.02235174447
$SILENCE,-1789.6147715586153,-12098.619294001974,6272.52534300391,8349.471789535499,-187500.02235174447,-187500.02235174447,-187500.02235174447,-187500.02235174447
$SILENCE,-1801.751768797847,-12109.884573207448,6214.142586486649,8345.716696467007,-187500.02235174447,-187500.02235174447,-187500.02235174447,-187500.02235174447
$SILENCE,-1723.1853870374428,-12100.87682019196,6428.071132668392,8316.704132164017,-187500.02235174447,-187500.02235174447,-187500.02235174447,-187500.02235174447
$SILENCE,-1710.8248723536578,-12097.367596312475,6484.71045311814,8320.45922523251,-187500.02235174447,-187500.02235174447,-187500.02235174447,-187500.02235174447
$SILENCE,-1772.1804108834758,-12105.771852227672,6306.29882887588,8339.301745808334,-187500.02235174447,-187500.02235174447,-187500.02235174447,-187500.02235174447
$SILENCE,-1799.3154286522185,-12113.326741853565,6201.670313080587,8343.101542365735,-187500.02235174447,-187500.02235174447,-187500.02235174447,-187500.02235174447
$SILENCE,-1736.8646546440907,-12105.481279549753,6393.69414969613,8329.869309648193,-187500.02235174447,-187500.02235174447,-187500.02235174447,-187500.02235174447
$SILENCE,-1714.1999857664093,-12097.166430612378,6492.645322399774,8325.64482994614,-187500.02235174447,-187500.02235174447,-187500.02235174447,-187500.02235174447
$SILENCE,-1744.4865995033504,-12101.100337636512,6339.312355436368,8338.340620796755,-187500.02235174447,-187500.02235174447,-187500.02235174447,-187500.02235174447
$SILENCE,-1809.3513619126513,-12116.321875610576,6188.393376874134,8330.673972448585,-187500.02235174447,-187500.02235174447,-187500.02235174447,-187500.02235174447
$SILENCE,-1766.592474769649,-12114.801956987616,6339.82644555884,8307.718730892984,-187500.02235174447,-187500.02235174447,-187500.02235174447,-187500.02235174447
$SILENCE,-1720.8384538696355,-12096.697043978817,6498.881459102805,8308.79161462684,-187500.02235174447,-187500.02235174447,-187500.02235174447,-187500.02235174447
$SILENCE,-1757.495314776339,-12095.713567222783,6375.49982970951,8325.667181690596,-187500.02235174447,-187500.02235174447,-187500.02235174447,-187500.02235174447
$SILENCE,-1802.1541001980424,-12108.185840628845,6199.435138635056,8338.139455096658,-187500.02235174447,-187500.02235174447,-187500.02235174447,-187500.02235174447
$SILENCE,-1762.3903468120513,-12109.035206918146,6303.258991629958,8323.297896778333,-187500.02235174447,-187500.02235174447,-187500.02235174447,-187500.02235174447
$SILENCE,-1710.1766717644539,-12100.720357980772,6491.617142154831,8307.02582681487,-187500.02235174447,-187500.02235174447,-187500.02235174447,-187500.02235174447
$SILENCE,-1744.2854338032525,-12103.939009182335,6406.255830080013,8318.02288508688,-187500.02235174447,-187500.02235174447,-187500.02235174447,-187500.02235174447
$SILENCE,-1806.8926700225677,-12114.623143031973,6211.438025407556,8340.329926053277,-187500.02235174447,-187500.02235174447,-187500.02235174447,-187500.02235174447
$SILENCE,-1794.8674315056123,-12117.64062853344,6253.6604706836315,8327.231803802468,-187500.02235174447,-187500.02235174447,-187500.02235174447,-187500.02235174447
$SILENCE,-1723.7441806488255,-12101.592076014529,6477.692005359174,8315.877117619171,-187500.02235174447,-187500.02235174447,-187500.02235174447,-187500.02235174447
$SILENCE,-1741.1338378350542,-12096.920561423369,6444.164388676213,8324.728408423473,-187500.02235174447,-187500.02235174447,-187500.02235174447,-187500.02235174447
$SILENCE,-1787.78192851328,-12113.237334875743,6237.656621653631,8324.191966556546,-187500.02235174447,-187500.02235174447,-187500.02235174447,-187500.02235174447
$SILENCE,-1769.4087945710178,-12122.513308824697,6227.106598270727,8312.904335606616,-187500.02235174447,-187500.02235174447,-187500.02235174447,-187500.02235174447
$SILENCE,-1710.8025206092025,-12115.047826176624,6450.758153290529,8302.957809324003,-187500.02235174447,-187500.02235174447,-187500.02235174447,-187500.02235174447
$SILENCE,-1723.6547736710042,-12103.268456848677,6461.397583651255,8320.056893832314,-187500.02235174447,-187500.02235174447,-187500.02235174447,-187500.02235174447
$SILENCE,-1780.6740737764924,-12107.291770850632,6269.485505757989,8334.585527728263,-187500.02235174447,-187500.02235174447,-187500.02235174447,-187500.02235174447
$SILENCE,-1789.0559779472326,-12116.67950352186,6202.586734603255,8327.723542180483,-187500.02235174447,-187500.02235174447,-187500.02235174447,-187500.02235174447
$SILENCE,-1736.3505645216185,-12107.045901661624,6411.061455137904,8304.477727946965,-187500.02235174447,-187500.02235174447,-187500.02235174447,-187500.02235174447
$SILENCE,-1725.755837649803,-12098.194610857321,6471.813496567428,8307.092882048235,-187500.02235174447,-187500.02235174447,-187500.02235174447,-187500.02235174447
$SILENCE,-1771.979245183378,-12105.525983038662,6296.307599104357,8322.001495599925,-187500.02235174447,-187500.02235174447,-187500.02235174447,-187500.02235174447
$SILENCE,-1789.6818267919812,-12119.026436689668,6179.251513391914,8319.296934520833,-187500.02235174447,-187500.02235174447,-187500.02235174447,-187500.02235174447
$SILENCE,-1732.304898775208,-12117.528869811162,6367.341442983323,8304.276562246867,-187500.02235174447,-187500.02235174447,-187500.02235174447,-187500.02235174447
$SILENCE,-1709.3273054751523,-12108.655227262405,6491.751252621562,8317.59820194223,-187500.02235174447,-187500.02235174447,-187500.02235174447,-187500.02235174447
$SILENCE,-1760.3339863221631,-12108.565820284584,6339.7146868365635,8328.08117009177,-187500.02235174447,-187500.02235174447,-187500.02235174447,-187500.02235174447
$SILENCE,-1802.6681903205147,-12113.617314531484,6181.352577370712,8324.750760167928,-187500.02235174447,-187500.02235174447,-187500.02235174447,-187500.02235174447
$SILENCE,-1748.1075821051102,-12110.666884263383,6328.628221586731,8299.515640677886,-187500.02235174447,-187500.02235174447,-187500.02235174447,-187500.02235174447
$SILENCE,-1707.1144827740768,-12098.149907368412,6489.516078176031,8299.180364511058,-187500.02235174447,-187500.02235174447,-187500.02235174447,-187500.02235174447
$SILENCE,-1755.3271955641742,-12102.039110903635,6369.889541851228,8312.278486761867,-187500.02235174447,-187500.02235174447,-187500.02235174447,-187500.02235174447
$SILENCE,-1802.757597298336,-12116.545393055128,6185.912333239596,8320.034542087858,-187500.02235174447,-187500.02235174447,-187500.02235174447,-187500.02235174447
$SILENCE,-1762.9938439123446,-12118.914677967392,6284.058843142849,8303.918934335583,-187500.02235174447,-187500.02235174447,-187500.02235174447,-187500.02235174447
$SILENCE,-1709.5061194307948,-12102.173221370367,6477.334377447889,8298.845088344227,-187500.02235174447,-187500.02235174447,-187500.02235174447,-187500.02235174447
$SILENCE,-1746.721773948881,-12100.809764958592,6396.7116351975965,8310.870326861183,-187500.02235174447,-187500.02235174447,-187500.02235174447,-187500.02235174447
$SILENCE,-1800.7012368084477,-12112.477375564264,6200.686836324553,8322.850861889227,-187500.02235174447,-187500.02235174447,-187500.02235174447,-187500.02235174447
$SILENCE,-1779.042396431255,-12119.92050646788,6244.049220567849,8314.245440273933,-187500.02235174447,-187500.02235174447,-187500.02235174447,-187500.02235174447
$SILENCE,-1715.854014856102,-12105.771852227672,6462.023432496004,8298.375701710665,-187500.02235174447,-187500.02235174447,-187500.02235174447,-187500.02235174447
$SILENCE,-1729.689744673937,-12101.614427758985,6430.619231536297,8309.819794871783,-187500.02235174447,-187500.02235174447,-187500.02235174447,-187500.02235174447
$SILENCE,-1784.8091465007242,-12113.885535464948,6233.253327995936,8320.54863221033,-187500.02235174447,-187500.02235174447,-187500.02235174447,-187500.02235174447
$SILENCE,-1780.2270388873862,-12123.116805924989,6211.594487618743,8307.249344259422,-187500.02235174447,-187500.02235174447,-187500.02235174447,-187500.02235174447
$SILENCE,-1721.2854887587416,-12109.437538318341,6434.888414727261,8295.380567953654,-187500.02235174447,-187500.02235174447,-187500.02235174447,-187500.02235174447
$SILENCE,-1737.0434685997332,-12101.368558569975,6450.46758061261,8304.365969224687,-187500.02235174447,-187500.02235174447,-187500.02235174447,-187500.02235174447
$SILENCE,-1791.6711320485035,-12112.186802886345,6256.879121885196,8315.295972263333,-187500.02235174447,-187500.02235174447,-187500.02235174447,-187500.02235174447
$SILENCE,-1789.748882025347,-12125.374332114976,6184.4594698500005,8311.987914083948,-187500.02235174447,-187500.02235174447,-187500.02235174447,-187500.02235174447
$SILENCE,-1727.9239568619678,-12111.315084852587,6401.226687577569,8300.342655222734,-187500.02235174447,-187500.02235174447,-187500.02235174447,-187500.02235174447
$SILENCE,-1721.978392836856,-12100.139212624934,6471.634682611786,8306.042350058837,-187500.02235174447,-187500.02235174447,-187500.02235174447,-187500.02235174447
$SILENCE,-1781.9704749549003,-12107.96232318429,6292.7536717359635,8321.643867688641,-187500.02235174447,-187500.02235174447,-187500.02235174447,-187500.02235174447
$SILENCE,-1814.7604840708357,-12119.026436689668,6168.813248731286,8326.427141002076,-187500.02235174447,-187500.02235174447,-187500.02235174447,-187500.02235174447
$SILENCE,-1740.7762099237693,-12119.942858212336,6357.037288789426,8304.142451780135,-187500.02235174447,-187500.02235174447,-187500.02235174447,-187500.02235174447
$SILENCE,-1712.1883287654316,-12106.39770107242,6476.529714647498,8298.442756944032,-187500.02235174447,-187500.02235174447,-187500.02235174447,-187500.02235174447
$SILENCE,-1767.1289166365764,-12108.67757900686,6327.242413430502,8314.848937374227,-187500.02235174447,-187500.02235174447,-187500.02235174447,-187500.02235174447
$SILENCE,-1806.043303733266,-12123.787358258649,6169.617911531676,8320.07924557677,-187500.02235174447,-187500.02235174447,-187500.02235174447,-187500.02235174447
$SILENCE,-1750.4098117840067,-12120.121672167978,6313.9431254795945,8296.989893554437,-187500.02235174447,-187500.02235174447,-187500.02235174447,-187500.02235174447
$SILENCE,-1711.562479920683,-12105.01189291619,6481.04476702747,8294.330035964256,-187500.02235174447,-187500.02235174447,-187500.02235174447,-187500.02235174447
$SILENCE,-1756.6683002314926,-12106.710625494794,6365.620358660264,8308.12106229318,-187500.02235174447,-187500.02235174447,-187500.02235174447,-187500.02235174447
$SILENCE,-1809.6419345905704,-12118.132366911455,6181.352577370712,8315.653600174619,-187500.02235174447,-187500.02235174447,-187500.02235174447,-187500.02235174447
$SILENCE,-1765.8101637137133,-12120.881631479459,6269.351395291257,8304.88005934716,-187500.02235174447,-187500.02235174447,-187500.02235174447,-187500.02235174447
$SILENCE,-1716.4575119563954,-12109.169317384878,6464.638586597274,8295.268809231378,-187500.02235174447,-187500.02235174447,-187500.02235174447,-187500.02235174447
$SILENCE,-1752.1532478515207,-12108.319951095576,6391.0119403614935,8305.394149469632,-187500.02235174447,-187500.02235174447,-187500.02235174447,-187500.02235174447
$SILENCE,-1806.780911300291,-12121.887459979947,6191.053234464316,8312.479652461965,-187500.02235174447,-187500.02235174447,-187500.02235174447,-187500.02235174447
$SILENCE,-1786.9325622239785,-12125.061407692601,6226.570156403799,8298.398053455121,-187500.02235174447,-187500.02235174447,-187500.02235174447,-187500.02235174447
$SILENCE,-1726.0240585832667,-12109.079910407056,6446.0195834660035,8289.770280095372,-187500.02235174447,-187500.02235174447,-187500.02235174447,-187500.02235174447
$SILENCE,-1743.2572535583083,-12105.280113849654,6419.800987219928,8301.639056401142,-187500.02235174447,-187500.02235174447,-187500.02235174447,-187500.02235174447
$SILENCE,-1796.1414809395649,-12118.311180867098,6223.239746479959,8314.64777167413,-187500.02235174447,-187500.02235174447,-187500.02235174447,-187500.02235174447
$SILENCE,-1791.0899866926654,-12126.268401893187,6194.137775199149,8306.511736692397,-187500.02235174447,-187500.02235174447,-187500.02235174447,-187500.02235174447
$SILENCE,-1729.4885789738394,-12116.97007619978,6415.531804028965,8291.78193709635,-187500.02235174447,-187500.02235174447,-187500.02235174447,-187500.02235174447
$SILENCE,-1741.849093657624,-12111.516250552684,6439.157597918224,8293.234800485945,-187500.02235174447,-187500.02235174447,-187500.02235174447,-187500.02235174447
$SILENCE,-1789.9947512143556,-12117.752387255716,6253.436953239078,8306.824661114772,-187500.02235174447,-187500.02235174447,-187500.02235174447,-187500.02235174447
não,-1795.8062047727353,-12126.514271082197,6176.7704697573745,8305.707073892007,-187500.02235174447,-187500.02235174447,-187500.02235174447,-187500.02235174447
não,-1733.91422437599,-12115.673675021371,6386.988626359538,8290.776108595861,-187500.02235174447,-187500.02235174447,-187500.02235174447,-187500.02235174447
não,-1724.750009149314,-12106.621218516973,6465.778525564495,8297.347521465721,-187500.02235174447,-187500.02235174447,-187500.02235174447,-187500.02235174447
não,-1780.4058528430287,-12112.879706964459,6293.647741514175,8315.877117619171,-187500.02235174447,-187500.02235174447,-187500.02235174447,-187500.02235174447
não,-1813.821710803713,-12124.904945481414,6161.593635272221,8311.317361750289,-187500.02235174447,-187500.02235174447,-187500.02235174447,-187500.02235174447
não,-1756.467134531395,-12122.379198357965,6341.703992093086,8285.4563934155,-187500.02235174447,-187500.02235174447,-187500.02235174447,-187500.02235174447
não,-1726.9404801059343,-12112.142099397433,6467.2090372096345,8283.020053269871,-187500.02235174447,-187500.02235174447,-187500.02235174447,-187500.02235174447
não,-1768.335910837163,-12115.718378510282,6322.235622672513,8298.219239499478,-187500.02235174447,-187500.02235174447,-187500.02235174447,-187500.02235174447
não,-1803.6963705654587,-12127.341285627042,6161.772449227864,8308.702207649018,-187500.02235174447,-187500.02235174447,-187500.02235174447,-187500.02235174447
não,-1758.9928816548445,-12126.44721584883,6300.465023573044,8298.59921915522,-187500.02235174447,-187500.02235174447,-187500.02235174447,-187500.02235174447
não,-1720.5925846806272,-12112.276209864165,6469.019528510515,8287.825678327761,-187500.02235174447,-187500.02235174447,-187500.02235174447,-187500.02235174447
não,-1759.7751927107804,-12112.007988930702,6357.864303334272,8294.97823655346,-187500.02235174447,-187500.02235174447,-187500.02235174447,-187500.02235174447
não,-1813.106454981143,-12124.949648970325,6171.003719687906,8304.388320969143,-187500.02235174447,-187500.02235174447,-187500.02235174447,-187500.02235174447
não,-1780.8752394765902,-12127.855375749514,6253.280491027891,8291.290198718334,-187500.02235174447,-187500.02235174447,-187500.02235174447,-187500.02235174447
não,-1738.429276755962,-12111.695064508327,6455.072039970403,8282.707128847496,-187500.02235174447,-187500.02235174447,-187500.02235174447,-187500.02235174447
não,-1766.5477712807383,-12107.939971439835,6391.88365839525,8296.02876854286,-187500.02235174447,-187500.02235174447,-187500.02235174447,-187500.02235174447
não,-1810.7595218133358,-12119.518175067686,6191.835545520252,8306.332922736756,-187500.02235174447,-187500.02235174447,-187500.02235174447,-187500.02235174447
não,-1786.9996174573444,-12124.122634425477,6216.578926632277,8295.559381909297,-187500.02235174447,-187500.02235174447,-187500.02235174447,-187500.02235174447
não,-1730.9637941078895,-12111.203326130311,6437.794141506451,8283.310625947788,-187500.02235174447,-187500.02235174447,-187500.02235174447,-187500.02235174447
não,-1751.7285647068697,-12107.202363872811,6419.666876753196,8293.100690019213,-187500.02235174447,-187500.02235174447,-187500.02235174447,-187500.02235174447
não,-1814.0899317371766,-12116.2101168883,6220.7363511009635,8302.60018141272,-187500.02235174447,-187500.02235174447,-187500.02235174447,-187500.02235174447
não,-1807.5632223562268,-12125.530794326163,6185.711167539498,8296.699320876518,-187500.02235174447,-187500.02235174447,-187500.02235174447,-187500.02235174447
não,-1740.2844715457527,-12118.981733200757,6403.730082956563,8278.952035779004,-187500.02235174447,-187500.02235174447,-187500.02235174447,-187500.02235174447
não,-1747.7723059382804,-12107.627047017462,6436.877719983783,8285.076413759758,-187500.02235174447,-187500.02235174447,-187500.02235174447,-187500.02235174447
não,-1801.9082310090341,-12114.869012220981,6249.950081104051,8299.694454633529,-187500.02235174447,-187500.02235174447,-187500.02235174447,-187500.02235174447
não,-1809.619582846115,-12129.487053094752,6160.498399793912,8296.252285987412,-187500.02235174447,-187500.02235174447,-187500.02235174447,-187500.02235174447
não,-1749.7392594503474,-12123.20621290281,6370.671852907164,8281.880114302649,-187500.02235174447,-187500.02235174447,-187500.02235174447,-187500.02235174447
não,-1741.7373349353475,-12110.800994730114,6457.351917904844,8287.69156786103,-187500.02235174447,-187500.02235174447,-187500.02235174447,-187500.02235174447
não,-1800.365960641618,-12115.673675021371,6289.803241467863,8302.108443034702,-187500.02235174447,-187500.02235174447,-187500.02235174447,-187500.02235174447
não,-1828.2832894662965,-12126.648381548928,6157.950300926006,8302.108443034702,-187500.02235174447,-187500.02235174447,-187500.02235174447,-187500.02235174447
não,-1774.2144196289087,-12120.2110791458,6334.082047233826,8291.558419651798,-187500.02235174447,-187500.02235174447,-187500.02235174447,-187500.02235174447
não,-1749.3145763056966,-12105.794203972126,6462.693984829662,8290.127908006658,-187500.02235174447,-187500.02235174447,-187500.02235174447,-187500.02235174447
não,-1781.6799022769812,-12112.119747652978,6321.274497660935,8296.632265643151,-187500.02235174447,-187500.02235174447,-187500.02235174447,-187500.02235174447
não,-1823.2094434749417,-12126.201346659822,6157.793838714819,8303.069568046281,-187500.02235174447,-187500.02235174447,-187500.02235174447,-187500.02235174447
não,-1788.8771639915901,-12123.474433836274,6292.86543045824,8296.296989476323,-187500.02235174447,-187500.02235174447,-187500.02235174447,-187500.02235174447
não,-1752.6673379739927,-12107.87291620647,6466.784354064984,8293.078338274758,-187500.02235174447,-187500.02235174447,-187500.02235174447,-187500.02235174447
não,-1785.5467540677494,-12107.425881317364,6359.428925446145,8302.086091290246,-187500.02235174447,-187500.02235174447,-187500.02235174447,-187500.02235174447
não,-1839.0568302937545,-12121.216907646289,6171.629568532654,8306.489384947943,-187500.02235174447,-187500.02235174447,-187500.02235174447,-187500.02235174447
não,-1820.7060480959474,-12125.195518159333,6241.23290076648,8287.669216116574,-187500.02235174447,-187500.02235174447,-187500.02235174447,-187500.02235174447
não,-1749.0240036277776,-12113.438500575841,6443.6726502981965,8275.01812875487,-187500.02235174447,-187500.02235174447,-187500.02235174447,-187500.02235174447
não,-1764.916093935501,-12112.432672075352,6385.401652503211,8287.06571901628,-187500.02235174447,-187500.02235174447,-187500.02235174447,-187500.02235174447
não,-1824.9975830313663,-12124.681428036862,6186.1582024286035,8298.934495322048,-187500.02235174447,-187500.02235174447,-187500.02235174447,-187500.02235174447
não,-1796.9014402510454,-12130.247012406233,6202.832603792263,8287.378643438655,-187500.02235174447,-187500.02235174447,-187500.02235174447,-187500.02235174447
não,-1731.6343464415488,-12117.171241899878,6424.517205299999,8273.699375832008,-187500.02235174447,-187500.02235174447,-187500.02235174447,-187500.02235174447
não,-1751.7062129624146,-12114.980770943257,6412.290801082945,8282.058928258291,-187500.02235174447,-187500.02235174447,-187500.02235174447,-187500.02235174447
não,-1805.3280479106961,-12124.234393147755,6215.0366562648605,8293.748890608418,-187500.02235174447,-187500.02235174447,-187500.02235174447,-187500.02235174447
não,-1804.724550810403,-12130.001143217223,6173.238894133437,8287.222181227467,-187500.02235174447,-187500.02235174447,-187500.02235174447,-187500.02235174447
não,-1743.9725093808784,-12120.501651823719,6403.126585856269,8275.554570621798,-187500.02235174447,-187500.02235174447,-187500.02235174447,-187500.02235174447
não,-1745.760648937303,-12115.919544210381,6452.367478891311,8290.35142545121,-187500.02235174447,-187500.02235174447,-187500.02235174447,-187500.02235174447
não,-1805.6633240775257,-12118.914677967392,6263.8752178997065,8311.272658261378,-187500.02235174447,-187500.02235174447,-187500.02235174447,-187500.02235174447
não,-1821.466007407428,-12122.960343713803,6167.762716741886,8313.463129217998,-187500.02235174447,-187500.02235174447,-187500.02235174447,-187500.02235174447
não,-1777.3436638526516,-12118.691160522838,6363.8992743372055,8287.378643438655,-187500.02235174447,-187500.02235174447,-187500.02235174447,-187500.02235174447
não,-1762.8150299567021,-12111.203326130311,6451.361650390822,8286.998663782915,-187500.02235174447,-187500.02235174447,-187500.02235174447,-187500.02235174447
não,-1800.5447745972604,-12115.1595848989,6293.535982791899,8305.394149469632,-187500.02235174447,-187500.02235174447,-187500.02235174447,-187500.02235174447
não,-1840.2638244943412,-12129.2635356502,6156.02805090285,8311.45147221702,-187500.02235174447,-187500.02235174447,-187500.02235174447,-187500.02235174447
não,-1780.3835010985736,-12127.385989115954,6327.9129657641615,8293.190096997036,-187500.02235174447,-187500.02235174447,-187500.02235174447,-187500.02235174447
não,-1756.690651975948,-12114.667846520882,6460.61527259532,8285.2552277154,-187500.02235174447,-187500.02235174447,-187500.02235174447,-187500.02235174447
não,-1813.2852689367855,-12117.528869811162,6319.843986015795,8297.571038910275,-187500.02235174447,-187500.02235174447,-187500.02235174447,-187500.02235174447
não,-1847.7516588868689,-12132.593945574039,6148.02612638785,8302.533126179353,-187500.02235174447,-187500.02235174447,-187500.02235174447,-187500.02235174447
não,-1801.461196119928,-12132.169262429388,6270.8042586808515,8291.379605696155,-187500.02235174447,-187500.02235174447,-187500.02235174447,-187500.02235174447
não,-1751.5273990067722,-12108.58817202904,6453.775638791995,8288.675044617063,-187500.02235174447,-187500.02235174447,-187500.02235174447,-187500.02235174447
não,-1787.5807628131824,-12111.203326130311,6357.64078588972,8298.35334996621,-187500.02235174447,-187500.02235174447,-187500.02235174447,-187500.02235174447
não,-1845.717650141436,-12130.87286125098,6173.842391233729,8303.606009913208,-187500.02235174447,-187500.02235174447,-187500.02235174447,-187500.02235174447
não,-1816.593327116171,-12130.69404729534,6245.211511279525,8293.704187119507,-187500.02235174447,-187500.02235174447,-187500.02235174447,-187500.02235174447
não,-1752.6002827406269,-12115.114881409989,6443.583243320375,8289.233838228445,-187500.02235174447,-187500.02235174447,-187500.02235174447,-187500.02235174447
não,-1816.2133474604307,-12123.429730347363,6368.079050550348,8277.946207278515,-187500.02235174447,-187500.02235174447,-187500.02235174447,-187500.02235174447
não,-1857.005281091366,-12124.167337914389,6192.953132743017,8299.560344166797,-187500.02235174447,-187500.02235174447,-187500.02235174447,-187500.02235174447
não,-1825.8022458317573,-12113.594962787029,6224.536147658366,8314.93834435205,-187500.02235174447,-187500.02235174447,-187500.02235174447,-187500.02235174447
não,-1764.6478730020374,-12110.06338716309,6413.900126683728,8291.73723360744,-187500.02235174447,-187500.02235174447,-187500.02235174447,-187500.02235174447
não,-1781.1211086655985,-12111.113919152489,6396.085786352848,8279.153201479103,-187500.02235174447,-187500.02235174447,-187500.02235174447,-187500.02235174447
não,-1853.1831327895086,-12129.956439728314,6209.605182362221,8300.141489522635,-187500.02235174447,-187500.02235174447,-187500.02235174447,-187500.02235174447
não,-1841.9178535840338,-12147.010820747713,6182.738385526942,8294.397091197621,-187500.02235174447,-187500.02235174447,-187500.02235174447,-187500.02235174447
não,-1741.4467622574286,-12104.743671982727,6395.325827041367,8310.445643716532,-187500.02235174447,-187500.02235174447,-187500.02235174447,-187500.02235174447
não,-1792.2522774043416,-12109.661055762894,6384.64169319173,8294.240628986434,-187500.02235174447,-187500.02235174447,-187500.02235174447,-187500.02235174447
não,-1854.7701066458353,-12116.92537271087,6217.607106877221,8301.16966976758,-187500.02235174447,-187500.02235174447,-187500.02235174447,-187500.02235174447
não,-1883.6262087376367,-12135.320858397587,6114.632620171621,8285.657559115596,-187500.02235174447,-187500.02235174447,-187500.02235174447,-187500.02235174447
não,-1822.494187652372,-12138.584213088061,6319.888689504706,8276.985082266938,-187500.02235174447,-187500.02235174447,-187500.02235174447,-187500.02235174447
não,-1802.556431598238,-12118.624105289473,6445.997231721549,8292.810117341294,-187500.02235174447,-187500.02235174447,-187500.02235174447,-187500.02235174447
não,-1857.4523159804721,-12134.337381641553,6288.350378078268,8299.292123233334,-187500.02235174447,-187500.02235174447,-187500.02235174447,-187500.02235174447
não,-1898.9595054339775,-12154.02926850668,6152.183550856537,8300.87909708966,-187500.02235174447,-187500.02235174447,-187500.02235174447,-187500.02235174447
não,-1830.4737604229165,-12125.73196002626,6315.9994859694825,8294.642960386629,-187500.02235174447,-187500.02235174447,-187500.02235174447,-187500.02235174447
não,-1784.7644430118137,-12085.34235779552,6455.94375800416,8285.009358526393,-187500.02235174447,-187500.02235174447,-187500.02235174447,-187500.02235174447
não,-1867.711766685458,-12173.967024560812,6257.661432941131,8266.882093773138,-187500.02235174447,-187500.02235174447,-187500.02235174447,-187500.02235174447
não,-1921.9818022229438,-12193.480097470296,6040.871863469108,8277.499172389409,-187500.02235174447,-187500.02235174447,-187500.02235174447,-187500.02235174447
não,-1871.0868800982096,-12141.042904978145,6194.808327532808,8282.751832336406,-187500.02235174447,-187500.02235174447,-187500.02235174447,-187500.02235174447
não,-1854.1442578010867,-12186.841629367069,6417.543461029943,8243.233948139423,-187500.02235174447,-187500.02235174447,-187500.02235174447,-187500.02235174447
não,-1855.5524177017712,-12170.860132081525,6395.459937508099,8293.234800485945,-187500.02235174447,-187500.02235174447,-187500.02235174447,-187500.02235174447
não,-1898.3113048447735,-12173.11765827151,6089.866887315141,8309.126890793668,-187500.02235174447,-187500.02235174447,-187500.02235174447,-187500.02235174447
não,-1871.1986388204862,-12131.1634339289,6111.5927829257,8269.899579274605,-187500.02235174447,-187500.02235174447,-187500.02235174447,-187500.02235174447
não,-1856.1559148020644,-12171.687146626371,6339.222948458547,8223.67617174103,-187500.02235174447,-187500.02235174447,-187500.02235174447,-187500.02235174447
não,-1890.5328977743266,-12179.733774630282,6316.223003414036,8206.57708723272,-187500.02235174447,-187500.02235174447,-187500.02235174447,-187500.02235174447
não,-1873.9702551329442,-12149.469512637796,6219.104673755726,8290.619646384674,-187500.02235174447,-187500.02235174447,-187500.02235174447,-187500.02235174447
não,-1853.7419264008913,-12164.802809334136,6220.110502256215,8279.577884623754,-187500.02235174447,-187500.02235174447,-187500.02235174447,-187500.02235174447
não,-1858.1452200585868,-12187.959216589836,6271.318348803324,8216.165985604046,-187500.02235174447,-187500.02235174447,-187500.02235174447,-187500.02235174447
não,-1861.4756299824276,-12177.006861806734,6281.019005896927,8242.183416150025,-187500.02235174447,-187500.02235174447,-187500.02235174447,-187500.02235174447
não,-1919.0313719548433,-12190.999053835756,6125.920251121552,8269.050212985303,-187500.02235174447,-187500.02235174447,-187500.02235174447,-187500.02235174447
não,-1924.6416598131252,-12182.237170009277,6082.043776755783,8232.371000334144,-187500.02235174447,-187500.02235174447,-187500.02235174447,-187500.02235174447
não,-1829.0879522666876,-12164.176960489389,6338.083009491326,8237.2436806254,-187500.02235174447,-187500.02235174447,-187500.02235174447,-187500.02235174447
não,-1808.0326089897883,-12135.186747930855,6424.204280877624,8285.54580039332,-187500.02235174447,-187500.02235174447,-187500.02235174447,-187500.02235174447
não,-1849.6292054211146,-12126.916602482392,6249.078363070294,8287.043367271825,-187500.02235174447,-187500.02235174447,-187500.02235174447,-187500.02235174447
não,-1875.9595603894666,-12155.750352829738,6137.051419860294,8261.294157659311,-187500.02235174447,-187500.02235174447,-187500.02235174447,-187500.02235174447
não,-1864.7389846729022,-12202.063167341134,6274.7381657049855,8210.53334600131,-187500.02235174447,-187500.02235174447,-187500.02235174447,-187500.02235174447
não,-1801.9082310090341,-12175.375184461498,6397.851574164817,8251.280576143334,-187500.02235174447,-187500.02235174447,-187500.02235174447,-187500.02235174447
não,-1845.8517606081678,-12173.229416993789,6266.892703401173,8277.052137500303,-187500.02235174447,-187500.02235174447,-187500.02235174447,-187500.02235174447
não,-1887.426005295039,-12178.83970485207,6135.6209082151545,8294.933533064548,-187500.02235174447,-187500.02235174447,-187500.02235174447,-187500.02235174447
não,-1839.5485686717714,-12160.444219165352,6282.047186141871,8256.77910527934,-187500.02235174447,-187500.02235174447,-187500.02235174447,-187500.02235174447
não,-1799.2483734188527,-12149.245995193243,6419.644525008742,8234.33795384621,-187500.02235174447,-187500.02235174447,-187500.02235174447,-187500.02235174447
não,-1831.300774967763,-12138.807730532615,6318.569936581843,8283.40003292561,-187500.02235174447,-187500.02235174447,-187500.02235174447,-187500.02235174447
não,-1869.3210922862402,-12149.424809148886,6152.116495623171,8302.086091290246,-187500.02235174447,-187500.02235174447,-187500.02235174447,-187500.02235174447
não,-1836.620490148126,-12141.512291611707,6258.242578296969,8295.246457486923,-187500.02235174447,-187500.02235174447,-187500.02235174447,-187500.02235174447
não,-1796.3426466396627,-12145.513253869207,6428.361705346311,8278.3038351898,-187500.02235174447,-187500.02235174447,-187500.02235174447,-187500.02235174447
não,-1820.9295655405006,-12153.895158039948,6336.943070524106,8284.294102703823,-187500.02235174447,-187500.02235174447,-187500.02235174447,-187500.02235174447
não,-1887.9624471619663,-12154.900986540437,6152.183550856537,8300.968504067481,-187500.02235174447,-187500.02235174447,-187500.02235174447,-187500.02235174447
não,-1825.9587080429446,-12155.750352829738,6215.081359753771,8296.051120287315,-187500.02235174447,-187500.02235174447,-187500.02235174447,-187500.02235174447
não,-1725.889948116535,-12136.907832253914,6445.304327643434,8306.712902392495,-187500.02235174447,-187500.02235174447,-187500.02235174447,-187500.02235174447
não,-1799.5836495856822,-12138.941840999347,6393.2471148070235,8306.869364603683,-187500.02235174447,-187500.02235174447,-187500.02235174447,-187500.02235174447
não,-1867.1306213296202,-12149.804788804626,6195.881211266663,8313.418425729087,-187500.02235174447,-187500.02235174447,-187500.02235174447,-187500.02235174447
não,-1860.6039119486704,-12148.329573670575,6194.137775199149,8316.413559486098,-187500.02235174447,-187500.02235174447,-187500.02235174447,-187500.02235174447
não,-1801.103568208643,-12140.931146255869,6410.659123737708,8300.789690111838,-187500.02235174447,-187500.02235174447,-187500.02235174447,-187500.02235174447
não,-1786.9549139684336,-12124.055579192112,6431.736818759063,8312.479652461965,-187500.02235174447,-187500.02235174447,-187500.02235174447,-187500.02235174447
não,-1869.812830664257,-12124.167337914389,6243.289261256369,8341.022830131393,-187500.02235174447,-187500.02235174447,-187500.02235174447,-187500.02235174447
não,-1885.6378657386144,-12136.93018399837,6135.173873326048,8315.206565285513,-187500.02235174447,-187500.02235174447,-187500.02235174447,-187500.02235174447
não,-1783.1104139221209,-12126.693085037838,6358.221931245557,8298.889791833139,-187500.02235174447,-187500.02235174447,-187500.02235174447,-187500.02235174447
não,-1781.8140127437132,-12123.407378602908,6442.957394475627,8302.443719201532,-187500.02235174447,-187500.02235174447,-187500.02235174447,-187500.02235174447
não,-1812.815882303224,-12129.084721694557,6282.7177384755305,8345.895510422648,-187500.02235174447,-187500.02235174447,-187500.02235174447,-187500.02235174447
não,-1844.55535942976,-12135.745541542237,6168.589731286733,8345.381420300177,-187500.02235174447,-187500.02235174447,-187500.02235174447,-187500.02235174447
não,-1795.3144663947187,-12131.87868975147,6349.437695674622,8313.038446073348,-187500.02235174447,-187500.02235174447,-187500.02235174447,-187500.02235174447
não,-1783.7586145113248,-12116.567744799584,6462.716336574118,8313.083149562259,-187500.02235174447,-187500.02235174447,-187500.02235174447,-187500.02235174447
não,-1790.7323587813805,-12111.896230208426,6322.034456972416,8341.425161531588,-187500.02235174447,-187500.02235174447,-187500.02235174447,-187500.02235174447
não,-1884.2744093268407,-12125.150814670422,6176.815173246286,8340.12876035318,-187500.02235174447,-187500.02235174447,-187500.02235174447,-187500.02235174447
não,-1828.9091383110451,-12122.178032657866,6318.413474370655,8320.07924557677,-187500.02235174447,-187500.02235174447,-187500.02235174447,-187500.02235174447
não,-1811.5641846137269,-12096.294712578621,6460.950548762149,8313.820757129282,-187500.02235174447,-187500.02235174447,-187500.02235174447,-187500.02235174447
não,-1835.9946413033774,-12102.553201026107,6356.769067855963,8342.542748754353,-187500.02235174447,-187500.02235174447,-187500.02235174447,-187500.02235174447
não,-1862.392051505095,-12105.414224316386,6188.728653040964,8355.663222749617,-187500.02235174447,-187500.02235174447,-187500.02235174447,-187500.02235174447
não,-1826.1151702541317,-12098.418128301875,6284.438822798589,8324.571946212285,-187500.02235174447,-187500.02235174447,-187500.02235174447,-187500.02235174447
não,-1784.0044837003331,-12086.191724084822,6471.634682611786,8319.185175798557,-187500.02235174447,-187500.02235174447,-187500.02235174447,-187500.02235174447
não,-1815.7663125713245,-12083.062479861079,6398.700940454119,8336.396019029144,-187500.02235174447,-187500.02235174447,-187500.02235174447,-187500.02235174447
não,-1869.9022376420783,-12097.702872479305,6196.08237696676,8345.2696615779,-187500.02235174447,-187500.02235174447,-187500.02235174447,-187500.02235174447
não,-1849.4056879765617,-12092.472564276763,6243.1551507896365,8348.242443590456,-187500.02235174447,-187500.02235174447,-187500.02235174447,-187500.02235174447
não,-1785.59145755666,-12078.48037224774,6460.637624339774,8336.775998684883,-187500.02235174447,-187500.02235174447,-187500.02235174447,-187500.02235174447
não,-1835.748772114369,-12077.116915835968,6417.141129629747,8343.973260399493,-187500.02235174447,-187500.02235174447,-187500.02235174447,-187500.02235174447
não,-1889.6388279961143,-12088.449250274809,6216.601278376732,8353.964490171014,-187500.02235174447,-187500.02235174447,-187500.02235174447,-187500.02235174447
não,-1882.553325003782,-12100.496840536218,6207.034731749861,8350.187045358069,-187500.02235174447,-187500.02235174447,-187500.02235174447,-187500.02235174447
não,-1796.655571062037,-12087.845753174515,6425.053647166926,8328.014114858403,-187500.02235174447,-187500.02235174447,-187500.02235174447,-187500.02235174447
não,-1798.331951896185,-12083.263645561177,6428.942850702149,8329.93636488156,-187500.02235174447,-187500.02235174447,-187500.02235174447,-187500.02235174447
não,-1870.4163277645503,-12080.939064137825,6241.702287400042,8359.552426284841,-187500.02235174447,-187500.02235174447,-187500.02235174447,-187500.02235174447
não,-1879.5134877578603,-12093.925427666358,6173.283597622347,8354.635042504673,-187500.02235174447,-187500.02235174447,-187500.02235174447,-187500.02235174447
não,-1814.7381323263803,-12086.974035140758,6389.424966505167,8328.662315447607,-187500.02235174447,-187500.02235174447,-187500.02235174447,-187500.02235174447
não,-1807.5408706117717,-12072.333642522532,6465.577359864397,8338.072399863291,-187500.02235174447,-187500.02235174447,-187500.02235174447,-187500.02235174447
não,-1872.0033016208772,-12082.570741483063,6287.076328644315,8355.216187860511,-187500.02235174447,-187500.02235174447,-187500.02235174447,-187500.02235174447
não,-1901.7311217464355,-12095.400642800409,6158.643205004121,8357.60782451723,-187500.02235174447,-187500.02235174447,-187500.02235174447,-187500.02235174447
não,-1832.7312866129025,-12094.663035233383,6337.792436813407,8337.401847529633,-187500.02235174447,-187500.02235174447,-187500.02235174447,-187500.02235174447
não,-1798.7342832963805,-12081.944892638314,6465.264435442024,8341.782789442872,-187500.02235174447,-187500.02235174447,-187500.02235174447,-187500.02235174447
não,-1848.7127838984472,-12083.598921728006,6315.4406923581,8355.529112282886,-187500.02235174447,-187500.02235174447,-187500.02235174447,-187500.02235174447
não,-1888.9682756624552,-12097.59111375703,6152.74234446792,8354.031545404381,-187500.02235174447,-187500.02235174447,-187500.02235174447,-187500.02235174447
não,-1831.4348854344948,-12094.01483464418,6295.4358810706,8339.301745808334,-187500.02235174447,-187500.02235174447,-187500.02235174447,-187500.02235174447
não,-1803.1599286985313,-12079.19562807031,6453.3733073918,8338.810007430317,-187500.02235174447,-187500.02235174447,-187500.02235174447,-187500.02235174447
não,-1841.1131907836427,-12081.363747282476,6342.910986293672,8364.536865298374,-187500.02235174447,-187500.02235174447,-187500.02235174447,-187500.02235174447
não,-1885.7272727164357,-12094.908904422391,6159.358460826691,8370.951815957049,-187500.02235174447,-187500.02235174447,-187500.02235174447,-187500.02235174447
não,-1871.3103975427625,-12100.63095100295,6239.891796099162,8352.913958181614,-187500.02235174447,-187500.02235174447,-187500.02235174447,-187500.02235174447
não,-1802.1988036869532,-12090.215038086777,6431.245080381046,8350.969356414003,-187500.02235174447,-187500.02235174447,-187500.02235174447,-187500.02235174447
não,-1826.070466765221,-12080.983767626736,6365.732117382541,8365.654452521141,-187500.02235174447,-187500.02235174447,-187500.02235174447,-187500.02235174447
não,-1875.490173755905,-12092.740785210228,6170.847257476718,8364.358051342733,-187500.02235174447,-187500.02235174447,-187500.02235174447,-187500.02235174447
não,-1849.8750746101232,-12098.82045970207,6204.933667771062,8349.89647268015,-187500.02235174447,-187500.02235174447,-187500.02235174447,-187500.02235174447
não,-1801.4164926310175,-12089.0527473751,6421.410312820711,8337.670068463096,-187500.02235174447,-187500.02235174447,-187500.02235174447,-187500.02235174447
não,-1830.2502429783635,-12089.0527473751,6391.12369908377,8350.231748846978,-187500.02235174447,-187500.02235174447,-187500.02235174447,-187500.02235174447
não,-1900.3453135902064,-12100.988578914235,6186.60523731771,8363.12870539769,-187500.02235174447,-187500.02235174447,-187500.02235174447,-187500.02235174447
não,-1885.6602174830698,-12104.855430705004,6165.415783574079,8361.877007708194,-187500.02235174447,-187500.02235174447,-187500.02235174447,-187500.02235174447
não,-1798.4884141073721,-12095.043014889123,6396.488117753043,8349.427086046588,-187500.02235174447,-187500.02235174447,-187500.02235174447,-187500.02235174447
não,-1801.2153269309197,-12087.10814560749,6421.343257587345,8354.545635526852,-187500.02235174447,-187500.02235174447,-187500.02235174447,-187500.02235174447
não,-1865.6330544511145,-12091.53379100964,6226.793673848352,8363.978071686992,-187500.02235174447,-187500.02235174447,-187500.02235174447,-187500.02235174447
não,-1883.9614849044665,-12104.698968493816,6143.108742607683,8358.211321617522,-187500.02235174447,-187500.02235174447,-187500.02235174447,-187500.02235174447
não,-1831.9042720680563,-12095.62416024496,6358.266634734468,8344.867330177705,-187500.02235174447,-187500.02235174447,-187500.02235174447,-187500.02235174447
não,-1828.7303243554027,-12082.146058338412,6437.727086273085,8343.41446678811,-187500.02235174447,-187500.02235174447,-187500.02235174447,-187500.02235174447
não,-1839.9285483275114,-12098.574590513063,6246.820836880307,8349.248272090945,-187500.02235174447,-187500.02235174447,-187500.02235174447,-187500.02235174447
não,-1863.84491489469,-12115.830137232559,6126.702562177487,8354.836208204772,-187500.02235174447,-187500.02235174447,-187500.02235174447,-187500.02235174447
não,-1811.3183154247185,-12103.849602204515,6313.272573145935,8340.12876035318,-187500.02235174447,-187500.02235174447,-187500.02235174447,-187500.02235174447
não,-1794.6662658055147,-12090.885590420437,6440.006964207526,8339.279394063878,-187500.02235174447,-187500.02235174447,-187500.02235174447,-187500.02235174447
não,-1853.3172432562403,-12100.899171936415,6300.688541017597,8359.75359198494,-187500.02235174447,-187500.02235174447,-187500.02235174447,-187500.02235174447
não,-1893.9974181648993,-12112.343265097532,6140.73945769542,8366.727336254995,-187500.02235174447,-187500.02235174447,-187500.02235174447,-187500.02235174447
não,-1859.262807281352,-12108.25289586221,6273.665281971131,8346.230786589478,-187500.02235174447,-187500.02235174447,-187500.02235174447,-187500.02235174447
não,-1799.0248559742995,-12098.44048004633,6431.446246081144,8327.231803802468,-187500.02235174447,-187500.02235174447,-187500.02235174447,-187500.02235174447
não,-1811.9218125250118,-12099.267494591177,6323.397913384189,8342.810969687816,-187500.02235174447,-187500.02235174447,-187500.02235174447,-187500.02235174447
não,-1859.2181037924415,-12112.2091546308,6141.410010029079,8351.662260492118,-187500.02235174447,-187500.02235174447,-187500.02235174447,-187500.02235174447
não,-1820.8848620515898,-12112.902058708914,6232.515720428911,8341.93925165406,-187500.02235174447,-187500.02235174447,-187500.02235174447,-187500.02235174447
não,-1770.9063614495233,-12100.094509136023,6437.928251973182,8333.110312594214,-187500.02235174447,-187500.02235174447,-187500.02235174447,-187500.02235174447
não,-1807.1608909560314,-12098.239314346232,6365.419192960167,8343.146245854647,-187500.02235174447,-187500.02235174447,-187500.02235174447,-187500.02235174447
não,-1861.2521125378744,-12112.2091546308,6167.047460919316,8357.496065794952,-187500.02235174447,-187500.02235174447,-187500.02235174447,-187500.02235174447
não,-1840.7108593834473,-12121.038093690646,6194.22718217697,8354.277414593389,-187500.02235174447,-187500.02235174447,-187500.02235174447,-187500.02235174447
não,-1779.0200446867998,-12101.435613803342,6419.331600586367,8342.654507476629,-187500.02235174447,-187500.02235174447,-187500.02235174447,-187500.02235174447
não,-1794.0404169607662,-12091.980825898747,6401.539611999943,8354.657394249129,-187500.02235174447,-187500.02235174447,-187500.02235174447,-187500.02235174447
não,-1844.4212489630281,-12104.96718942728,6206.163013716104,8364.648624020652,-187500.02235174447,-187500.02235174447,-187500.02235174447,-187500.02235174447
não,-1848.2433972648857,-12113.058520920102,6167.181571386048,8349.516493024408,-187500.02235174447,-187500.02235174447,-187500.02235174447,-187500.02235174447
não,-1784.0938906781544,-12107.627047017462,6390.743719428029,8333.64675446114,-187500.02235174447,-187500.02235174447,-187500.02235174447,-187500.02235174447
não,-1784.2503528893417,-12099.647474246916,6424.248984366534,8339.681725464074,-187500.02235174447,-187500.02235174447,-187500.02235174447,-187500.02235174447
não,-1827.8586063216458,-12108.834041218048,6236.360220475223,8350.231748846978,-187500.02235174447,-187500.02235174447,-187500.02235174447,-187500.02235174447
não,-1845.8741123526231,-12125.195518159333,6144.069867619261,8351.371687814199,-187500.02235174447,-187500.02235174447,-187500.02235174447,-187500.02235174447
não,-1794.0180652163108,-12107.604695273007,6346.420210173155,8331.523338737887,-187500.02235174447,-187500.02235174447,-187500.02235174447,-187500.02235174447
não,-1781.4116813435176,-12092.785488699137,6432.250908881535,8339.614670230707,-187500.02235174447,-187500.02235174447,-187500.02235174447,-187500.02235174447
não,-1824.2152719754306,-12102.508497537196,6268.345566790768,8348.331850568276,-187500.02235174447,-187500.02235174447,-187500.02235174447,-187500.02235174447
não,-1849.2268740209192,-12115.427805832363,6137.654916960588,8344.442647033055,-187500.02235174447,-187500.02235174447,-187500.02235174447,-187500.02235174447
$SILENCE,-1793.5710303272047,-12121.887459979947,6311.953820223072,8322.962620611504,-187500.02235174447,-187500.02235174447,-187500.02235174447,-187500.02235174447
$SILENCE,-1759.8645996886016,-12112.767948242183,6448.0088887225265,8319.900431621127,-187500.02235174447,-187500.02235174447,-187500.02235174447,-187500.02235174447
$SILENCE,-1799.3601321411293,-12102.419090559375,6314.568974324343,8347.057801134324,-187500.02235174447,-187500.02235174447,-187500.02235174447,-187500.02235174447
$SILENCE,-1840.5320454278049,-12109.236372618243,6141.007678628884,8352.288109336867,-187500.02235174447,-187500.02235174447,-187500.02235174447,-187500.02235174447
$SILENCE,-1787.7148732799142,-12110.599829030018,6269.105526102248,8333.333830038766,-187500.02235174447,-187500.02235174447,-187500.02235174447,-187500.02235174447
$SILENCE,-1743.8831024030571,-12103.559029526596,6441.728048530585,8322.716751422495,-187500.02235174447,-187500.02235174447,-187500.02235174447,-187500.02235174447
$SILENCE,-1781.881067977079,-12108.811689473592,6339.781742069929,8329.668143948096,-187500.02235174447,-187500.02235174447,-187500.02235174447,-187500.02235174447
$SILENCE,-1832.8653970796345,-12120.367541356987,6162.755925983897,8337.580661485275,-187500.02235174447,-187500.02235174447,-187500.02235174447,-187500.02235174447
$SILENCE,-1798.2872484072743,-12122.669771035884,6242.99868857845,8327.79059741385,-187500.02235174447,-187500.02235174447,-187500.02235174447,-187500.02235174447
$SILENCE,-1746.4759047598727,-12112.49972730872,6432.228557137079,8313.016094328892,-187500.02235174447,-187500.02235174447,-187500.02235174447,-187500.02235174447
$SILENCE,-1777.8354022306685,-12111.203326130311,6364.167495270669,8316.12298680818,-187500.02235174447,-187500.02235174447,-187500.02235174447,-187500.02235174447
$SILENCE,-1835.3911442030842,-12121.798053002127,6170.4896295654335,8327.008286357914,-187500.02235174447,-187500.02235174447,-187500.02235174447,-187500.02235174447
$SILENCE,-1812.5923648586709,-12119.741692512238,6183.990083216439,8322.381475255666,-187500.02235174447,-187500.02235174447,-187500.02235174447,-187500.02235174447
$SILENCE,-1745.5818349816604,-12101.480317292253,6415.576507517875,8321.710922922006,-187500.02235174447,-187500.02235174447,-187500.02235174447,-187500.02235174447
$SILENCE,-1767.3747858255847,-12104.96718942728,6405.9876091465485,8329.288164292355,-187500.02235174447,-187500.02235174447,-187500.02235174447,-187500.02235174447
$SILENCE,-1832.2618999793413,-12117.975904700268,6194.562458343799,8333.13266433867,-187500.02235174447,-187500.02235174447,-187500.02235174447,-187500.02235174447
$SILENCE,-1826.0481150207659,-12129.107073439012,6154.195207857515,8330.897489893137,-187500.02235174447,-187500.02235174447,-187500.02235174447,-187500.02235174447
$SILENCE,-1755.237788586353,-12108.25289586221,6377.377376243756,8317.17351879758,-187500.02235174447,-187500.02235174447,-187500.02235174447,-187500.02235174447
$SILENCE,-1759.238750843853,-12097.032320145647,6429.658106524719,8323.297896778333,-187500.02235174447,-187500.02235174447,-187500.02235174447,-187500.02235174447
$SILENCE,-1810.8712805356122,-12105.190706871834,6247.446685725055,8339.368801041699,-187500.02235174447,-187500.02235174447,-187500.02235174447,-187500.02235174447
$SILENCE,-1822.5165393968273,-12121.596887302028,6142.438190274023,8328.952888125526,-187500.02235174447,-187500.02235174447,-187500.02235174447,-187500.02235174447
$SILENCE,-1757.7635357098027,-12116.59009654404,6338.887672291717,8312.524355950876,-187500.02235174447,-187500.02235174447,-187500.02235174447,-187500.02235174447
$SILENCE,-1749.046355372233,-12107.761157484194,6427.914670457205,8313.641943173641,-187500.02235174447,-187500.02235174447,-187500.02235174447,-187500.02235174447
$SILENCE,-1806.490338622372,-12113.103224409011,6261.23771205398,8320.615687443697,-187500.02235174447,-187500.02235174447,-187500.02235174447,-187500.02235174447
$SILENCE,-1837.3580977151512,-12125.843718748536,6126.099065077194,8324.370780512189,-187500.02235174447,-187500.02235174447,-187500.02235174447,-187500.02235174447
$SILENCE,-1774.7955649847468,-12117.372407599976,6304.287171874902,8313.910164107105,-187500.02235174447,-187500.02235174447,-187500.02235174447,-187500.02235174447
$SILENCE,-1748.241692571842,-12105.235410360743,6447.338336388867,8306.757605881407,-187500.02235174447,-187500.02235174447,-187500.02235174447,-187500.02235174447
$SILENCE,-1792.2075739154309,-12111.96328544179,6320.067503460348,8321.286239777355,-187500.02235174447,-187500.02235174447,-187500.02235174447,-187500.02235174447
$SILENCE,-1825.690487109481,-12128.525928083174,6150.328356066747,8322.493233977943,-187500.02235174447,-187500.02235174447,-187500.02235174447,-187500.02235174447
$SILENCE,-1766.3689573250958,-12128.056541449612,6273.508819759944,8299.940323822537,-187500.02235174447,-187500.02235174447,-187500.02235174447,-187500.02235174447
$SILENCE,-1725.1523405495097,-12111.605657530507,6446.667784055207,8290.217314984478,-187500.02235174447,-187500.02235174447,-187500.02235174447,-187500.02235174447
$SILENCE,-1770.526381793783,-12112.2091546308,6342.933338038128,8309.395111727132,-187500.02235174447,-187500.02235174447,-187500.02235174447,-187500.02235174447
$SILENCE,-1820.0801992511988,-12125.910773981903,6156.229216602947,8315.251268774422,-187500.02235174447,-187500.02235174447,-187500.02235174447,-187500.02235174447
$SILENCE,-1782.7751377552913,-12130.045846706134,6230.682877383576,8294.888829575639,-187500.02235174447,-187500.02235174447,-187500.02235174447,-187500.02235174447
$SILENCE,-1723.7441806488255,-12116.701855266316,6432.742647259552,8282.34950093621,-187500.02235174447,-187500.02235174447,-187500.02235174447,-187500.02235174447
$SILENCE,-1744.9112826480011,-12111.896230208426,6388.419138004678,8303.494251190932,-187500.02235174447,-187500.02235174447,-187500.02235174447,-187500.02235174447
$SILENCE,-1805.1045304661432,-12123.742654769738,6207.168842216593,8317.709960664506,-187500.02235174447,-187500.02235174447,-187500.02235174447,-187500.02235174447
$SILENCE,-1799.5165943523164,-12129.285887394653,6224.9608308030165,8300.074434289269,-187500.02235174447,-187500.02235174447,-187500.02235174447,-187500.02235174447
$SILENCE,-1744.2854338032525,-12113.68436976485,6423.623135521786,8277.454468900498,-187500.02235174447,-187500.02235174447,-187500.02235174447,-187500.02235174447
$SILENCE,-1751.5721024956827,-12109.973980185268,6395.258771808001,8283.668253859074,-187500.02235174447,-187500.02235174447,-187500.02235174447,-187500.02235174447
$SILENCE,-1806.2444694333637,-12118.646457033929,6203.994894503939,8298.465108688488,-187500.02235174447,-187500.02235174447,-187500.02235174447,-187500.02235174447
$SILENCE,-1805.0821787216878,-12130.559936828606,6171.227237132459,8293.190096997036,-187500.02235174447,-187500.02235174447,-187500.02235174447,-187500.02235174447
$SILENCE,-1730.3155935186855,-12120.903983223914,6405.920553913183,8278.840277056728,-187500.02235174447,-187500.02235174447,-187500.02235174447,-187500.02235174447
$SILENCE,-1741.0891343461437,-12109.415186573886,6445.304327643434,8281.12015499117,-187500.02235174447,-187500.02235174447,-187500.02235174447,-187500.02235174447
$SILENCE,-1799.203669929942,-12116.813613988592,6267.451497012556,8312.54670769533,-187500.02235174447,-187500.02235174447,-187500.02235174447,-187500.02235174447
$SILENCE,-1798.846042018657,-12129.97879147277,6191.902600753618,8327.79059741385,-187500.02235174447,-187500.02235174447,-187500.02235174447,-187500.02235174447
$SILENCE,-1746.0288698707666,-12119.607582045506,6364.346309226312,8296.475803431966,-187500.02235174447,-187500.02235174447,-187500.02235174447,-187500.02235174447
$SILENCE,-1731.6566981860042,-12092.561971254585,6433.592013548853,8270.056041485792,-187500.02235174447,-187500.02235174447,-187500.02235174447,-187500.02235174447
$SILENCE,-1775.8908004630568,-12103.693139993327,6274.045261626871,8303.181326768557,-187500.02235174447,-187500.02235174447,-187500.02235174447,-187500.02235174447
$SILENCE,-1802.3776176425956,-12125.173166414877,6168.701490009009,8326.002457857425,-187500.02235174447,-187500.02235174447,-187500.02235174447,-187500.02235174447
$SILENCE,-1757.9647014099005,-12127.341285627042,6340.87697754824,8297.034597043348,-187500.02235174447,-187500.02235174447,-187500.02235174447,-187500.02235174447
$SILENCE,-1727.6780876729595,-12113.68436976485,6477.490839659076,8276.381585166644,-187500.02235174447,-187500.02235174447,-187500.02235174447,-187500.02235174447
$SILENCE,-1787.0443209462549,-12106.06242490559,6331.645707088198,8284.182343981545,-187500.02235174447,-187500.02235174447,-187500.02235174447,-187500.02235174447
$SILENCE,-1824.6399551200814,-12108.2081923733,6153.5246555238555,8289.099727761713,-187500.02235174447,-187500.02235174447,-187500.02235174447,-187500.02235174447
$SILENCE,-1770.8393062161574,-12102.73201498175,6260.85773239824,8273.051175242803,-187500.02235174447,-187500.02235174447,-187500.02235174447,-187500.02235174447
$SILENCE,-1734.0706865871773,-12083.040128116623,6432.764999004006,8272.022994997858,-187500.02235174447,-187500.02235174447,-187500.02235174447,-187500.02235174447
$SILENCE,-1770.8393062161574,-12092.986654399236,6348.92360555215,8291.78193709635,-187500.02235174447,-187500.02235174447,-187500.02235174447,-187500.02235174447
$SILENCE,-1816.2133474604307,-12121.149852412922,6184.79474601683,8314.468957718487,-187500.02235174447,-187500.02235174447,-187500.02235174447,-187500.02235174447
$SILENCE,-1793.9733617274,-12125.419035603885,6252.81110439433,8298.375701710665,-187500.02235174447,-187500.02235174447,-187500.02235174447,-187500.02235174447
$SILENCE,-1744.1513233365208,-12103.670788248872,6448.053592211437,8276.091012488725,-187500.02235174447,-187500.02235174447,-187500.02235174447,-187500.02235174447
$SILENCE,-1764.8937421910457,-12103.067291148578,6388.866172893784,8287.557457394298,-187500.02235174447,-187500.02235174447,-187500.02235174447,-187500.02235174447
$SILENCE,-1819.2308329618972,-12110.53277379665,6200.820946791286,8303.293085490834,-187500.02235174447,-187500.02235174447,-187500.02235174447,-187500.02235174447
$SILENCE,-1810.4465973909614,-12111.87387846397,6209.471071895489,8297.280466232356,-187500.02235174447,-187500.02235174447,-187500.02235174447,-187500.02235174447
$SILENCE,-1735.4117912544957,-12107.358826083997,6462.112839473825,8295.849954587216,-187500.02235174447,-187500.02235174447,-187500.02235174447,-187500.02235174447
$SILENCE,-1746.6100152266044,-12093.992482899725,6452.300423657945,8295.134698764647,-187500.02235174447,-187500.02235174447,-187500.02235174447,-187500.02235174447
$SILENCE,-1832.4183621905283,-12098.082852135045,6230.973450061495,8298.77803311086,-187500.02235174447,-187500.02235174447,-187500.02235174447,-187500.02235174447
$SILENCE,-1833.2677284798299,-12108.521116795673,6204.576039859777,8301.795518612327,-187500.02235174447,-187500.02235174447,-187500.02235174447,-187500.02235174447
$SILENCE,-1771.2192858718975,-12085.543523495619,6488.622008397819,8311.809100128306,-187500.02235174447,-187500.02235174447,-187500.02235174447,-187500.02235174447
$SILENCE,-1791.335855881674,-12074.479409990241,6486.118613018824,8293.860649330694,-187500.02235174447,-187500.02235174447,-187500.02235174447,-187500.02235174447
$SILENCE,-1784.362111611618,-12105.548334783118,6303.661323030153,8279.086146245736,-187500.02235174447,-187500.02235174447,-187500.02235174447,-187500.02235174447
$SILENCE,-1796.0520739617436,-12105.72714873876,6222.256269723925,8285.523448648864,-187500.02235174447,-187500.02235174447,-187500.02235174447,-187500.02235174447
$SILENCE,-1781.1658121545092,-12089.745651453215,6399.349141043323,8266.703279817495,-187500.02235174447,-187500.02235174447,-187500.02235174447,-187500.02235174447
$SILENCE,-1728.370991751074,-12094.05953813309,6480.351862949356,8272.715899075973,-187500.02235174447,-187500.02235174447,-187500.02235174447,-187500.02235174447
$SILENCE,-1743.5478262362274,-12124.748483270227,6306.499994575977,8268.089087973725,-187500.02235174447,-187500.02235174447,-187500.02235174447,-187500.02235174447
$SILENCE,-1782.752786010836,-12125.262573392698,6172.613045288688,8286.26105621589,-187500.02235174447,-187500.02235174447,-187500.02235174447,-187500.02235174447
$SILENCE,-1721.8666341145795,-12104.341340582532,6363.675756892652,8298.845088344227,-187500.02235174447,-187500.02235174447,-187500.02235174447,-187500.02235174447
$SILENCE,-1685.0533109966889,-12092.897247421413,6480.530676904998,8289.278541717356,-187500.02235174447,-187500.02235174447,-187500.02235174447,-187500.02235174447
$SILENCE,-1771.3086928497187,-12083.867142661471,6311.149157422681,8290.753756851407,-187500.02235174447,-187500.02235174447,-187500.02235174447,-187500.02235174447
$SILENCE,-1824.5058446533496,-12096.294712578621,6146.953242653995,8319.274582776377,-187500.02235174447,-187500.02235174447,-187500.02235174447,-187500.02235174447
$SILENCE,-1780.0258731872887,-12105.615390016485,6284.841154198784,8300.946152323026,-187500.02235174447,-187500.02235174447,-187500.02235174447,-187500.02235174447
$SILENCE,-1690.082453499133,-12088.046918874612,6493.248819500068,8305.438852958543,-187500.02235174447,-187500.02235174447,-187500.02235174447,-187500.02235174447
$SILENCE,-1747.2582158158084,-12081.877837404947,6354.712707366074,8311.898507106127,-187500.02235174447,-187500.02235174447,-187500.02235174447,-187500.02235174447
$SILENCE,-1856.625301435626,-12082.168410082866,6162.577112028255,8318.894603120638,-187500.02235174447,-187500.02235174447,-187500.02235174447,-187500.02235174447
$SILENCE,-1807.3844084005843,-12092.025529387658,6235.488502441466,8300.49911743392,-187500.02235174447,-187500.02235174447,-187500.02235174447,-187500.02235174447
$SILENCE,-1731.6119946970935,-12082.168410082866,6432.385019348267,8279.332015434744,-187500.02235174447,-187500.02235174447,-187500.02235174447,-187500.02235174447
$SILENCE,-1692.4517384113956,-12088.2033810858,6422.1255686432805,8307.986951826448,-187500.02235174447,-187500.02235174447,-187500.02235174447,-187500.02235174447
$SILENCE,-1783.043358688755,-12093.187820099332,6208.375836417179,8313.753701895917,-187500.02235174447,-187500.02235174447,-187500.02235174447,-187500.02235174447
$SILENCE,-1809.686638079481,-12085.29765430661,6191.299103653325,8318.805196142817,-187500.02235174447,-187500.02235174447,-187500.02235174447,-187500.02235174447
$SILENCE,-1767.687710247959,-12061.940081350815,6429.255775124523,8318.201699042524,-187500.02235174447,-187500.02235174447,-187500.02235174447,-187500.02235174447
$SILENCE,-1778.8859342200678,-12074.546465223608,6448.388868378266,8285.746966093417,-187500.02235174447,-187500.02235174447,-187500.02235174447,-187500.02235174447
$SILENCE,-1775.756689996325,-12090.527962509152,6235.354391974734,8300.342655222734,-187500.02235174447,-187500.02235174447,-187500.02235174447,-187500.02235174447
$SILENCE,-1748.018175127289,-12091.265570076177,6159.514923037877,8329.019943358891,-187500.02235174447,-187500.02235174447,-187500.02235174447,-187500.02235174447
$SILENCE,-1732.4166574974845,-12071.77484891115,6396.488117753043,8330.070475348291,-187500.02235174447,-187500.02235174447,-187500.02235174447,-187500.02235174447
$SILENCE,-1775.264951618308,-12059.459037716275,6473.422822168211,8313.552536195819,-187500.02235174447,-187500.02235174447,-187500.02235174447,-187500.02235174447
$SILENCE,-1774.080309162177,-12094.908904422391,6270.401927280656,8296.140527265135,-187500.02235174447,-187500.02235174447,-187500.02235174447,-187500.02235174447
$SILENCE,-1818.716742839425,-12108.744634240227,6127.127245322138,8287.937437050037,-187500.02235174447,-187500.02235174447,-187500.02235174447,-187500.02235174447
$SILENCE,-1729.9132621184901,-12073.071250089557,6357.417268445167,8321.2638880329,-187500.02235174447,-187500.02235174447,-187500.02235174447,-187500.02235174447
$SILENCE,-1707.047427540711,-12050.317174234055,6478.1837437371905,8335.323135295288,-187500.02235174447,-187500.02235174447,-187500.02235174447,-187500.02235174447
$SILENCE,-1788.4971843358499,-12078.234503058733,6310.478605089022,8320.280411276866,-187500.02235174447,-187500.02235174447,-187500.02235174447,-187500.02235174447
$SILENCE,-1801.0141612308219,-12109.415186573886,6144.78512344183,8291.111384762691,-187500.02235174447,-187500.02235174447,-187500.02235174447,-187500.02235174447
$SILENCE,-1743.5701779806827,-12102.709663237294,6307.729340521019,8282.036576513836,-187500.02235174447,-187500.02235174447,-187500.02235174447,-187500.02235174447
$SILENCE,-1735.0318115987554,-12072.780677411638,6464.504476130543,8297.749852865918,-187500.02235174447,-187500.02235174447,-187500.02235174447,-187500.02235174447
$SILENCE,-1768.201800370431,-12060.129590049934,6369.934245340139,8341.872196420694,-187500.02235174447,-187500.02235174447,-187500.02235174447,-187500.02235174447
$SILENCE,-1831.2784232233078,-12111.136270896945,6152.138847367626,8295.604085398209,-187500.02235174447,-187500.02235174447,-187500.02235174447,-187500.02235174447
$SILENCE,-1826.7410190988803,-12085.387061284431,6279.141459362681,8300.186193011546,-187500.02235174447,-187500.02235174447,-187500.02235174447,-187500.02235174447
$SILENCE,-1697.1903082359206,-12075.887569890925,6459.296519672456,8300.566172667286,-187500.02235174447,-187500.02235174447,-187500.02235174447,-187500.02235174447
$SILENCE,-1751.8403234291463,-12072.1995320558,6362.848742347806,8311.11619605019,-187500.02235174447,-187500.02235174447,-187500.02235174447,-187500.02235174447
$SILENCE,-1800.790643786269,-12096.58528525654,6174.691757523032,8319.07341707628,-187500.02235174447,-187500.02235174447,-187500.02235174447,-187500.02235174447
$SILENCE,-1752.913207163001,-12092.494916021218,6233.007458806927,8308.724559393473,-187500.02235174447,-187500.02235174447,-187500.02235174447,-187500.02235174447
$SILENCE,-1742.0726111021772,-12073.562988467573,6428.339353601856,8301.504945934408,-187500.02235174447,-187500.02235174447,-187500.02235174447,-187500.02235174447
$SILENCE,-1787.2901901352634,-12067.840941887014,6399.326789298867,8297.682797632551,-187500.02235174447,-187500.02235174447,-187500.02235174447,-187500.02235174447
$SILENCE,-1823.1200364971205,-12061.269529017154,6223.530319157877,8345.671992978096,-187500.02235174447,-187500.02235174447,-187500.02235174447,-187500.02235174447
$SILENCE,-1828.0597720217434,-12075.842866402016,6190.829717019763,8323.588469456252,-187500.02235174447,-187500.02235174447,-187500.02235174447,-187500.02235174447
$SILENCE,-1794.8227280167018,-12097.121727123467,6385.245190292024,8280.06962300177,-187500.02235174447,-187500.02235174447,-187500.02235174447,-187500.02235174447
$SILENCE,-1736.2388057993421,-12096.048843389612,6406.702864969118,8302.823698857272,-187500.02235174447,-187500.02235174447,-187500.02235174447,-187500.02235174447
$SILENCE,-1808.1667194565202,-12084.560046739585,6213.494385897445,8330.226937559479,-187500.02235174447,-187500.02235174447,-187500.02235174447,-187500.02235174447
$SILENCE,-1814.9169462820228,-12070.43374424383,6170.444926076523,8351.349336069743,-187500.02235174447,-187500.02235174447,-187500.02235174447,-187500.02235174447
$SILENCE,-1707.5168141742724,-12079.48620074823,6351.11407650877,8317.777015897873,-187500.02235174447,-187500.02235174447,-187500.02235174447,-187500.02235174447
$SILENCE,-1780.271742376297,-12068.712659920771,6411.016751648993,8318.447568231531,-187500.02235174447,-187500.02235174447,-187500.02235174447,-187500.02235174447
$SILENCE,-1852.4678769669388,-12058.743781893705,6256.90147362965,8369.655414778641,-187500.02235174447,-187500.02235174447,-187500.02235174447,-187500.02235174447
$SILENCE,-1879.6028947356815,-12049.62427015594,6156.542141025322,8402.892458783681,-187500.02235174447,-187500.02235174447,-187500.02235174447,-187500.02235174447
$SILENCE,-1789.4583093474282,-12053.66993590235,6311.551488822876,8344.599109244242,-187500.02235174447,-187500.02235174447,-187500.02235174447,-187500.02235174447
$SILENCE,-1744.3971925255291,-12061.135418550422,6437.727086273085,8354.724449482495,-187500.02235174447,-187500.02235174447,-187500.02235174447,-187500.02235174447
$SILENCE,-1837.916891326534,-12073.875912889947,6262.914092888128,8358.591301273264,-187500.02235174447,-187500.02235174447,-187500.02235174447,-187500.02235174447
$SILENCE,-1895.070301898754,-12063.169427295856,6117.918326606551,8362.234635619478,-187500.02235174447,-187500.02235174447,-187500.02235174447,-187500.02235174447
$SILENCE,-1801.237678675375,-12078.815648414571,6287.679825744609,8340.620498731196,-187500.02235174447,-187500.02235174447,-187500.02235174447,-187500.02235174447
$SILENCE,-1766.950102680934,-12065.404601741386,6419.756283731018,8345.157902855624,-187500.02235174447,-187500.02235174447,-187500.02235174447,-187500.02235174447
$SILENCE,-1849.6962606544807,-12038.694267117295,6299.079215416815,8393.03533947889,-187500.02235174447,-187500.02235174447,-187500.02235174447,-187500.02235174447
$SILENCE,-1906.5143950598713,-12045.846825342993,6132.201091313493,8423.56782240484,-187500.02235174447,-187500.02235174447,-187500.02235174447,-187500.02235174447
$SILENCE,-1809.1948997014642,-12065.896340119403,6228.335944215768,8401.126670971713,-187500.02235174447,-187500.02235174447,-187500.02235174447,-187500.02235174447
$SILENCE,-1790.240620403364,-12035.117988004446,6434.08375192687,8368.068440922314,-187500.02235174447,-187500.02235174447,-187500.02235174447,-187500.02235174447
$SILENCE,-1835.9946413033774,-12043.991630553202,6344.497960149999,8384.318159141321,-187500.02235174447,-187500.02235174447,-187500.02235174447,-187500.02235174447
$SILENCE,-1834.1617982580422,-12068.645604687406,6160.833675960741,8398.533868614897,-187500.02235174447,-187500.02235174447,-187500.02235174447,-187500.02235174447
$SILENCE,-1813.9558212704446,-12062.00713658418,6218.210603977514,8387.849734765261,-187500.02235174447,-187500.02235174447,-187500.02235174447,-187500.02235174447
$SILENCE,-1819.6108126176373,-12031.18408098031,6416.582336018364,8397.863316281238,-187500.02235174447,-187500.02235174447,-187500.02235174447,-187500.02235174447
$SILENCE,-1841.4037634615618,-12038.493101417196,6375.388070987234,8415.275325211922,-187500.02235174447,-187500.02235174447,-187500.02235174447,-187500.02235174447
$SILENCE,-1841.3143564837405,-12066.410430241875,6191.612028075699,8385.122821941713,-187500.02235174447,-187500.02235174447,-187500.02235174447,-187500.02235174447
$SILENCE,-1868.7399469304023,-12054.787523125116,6140.448885017501,8376.226827648501,-187500.02235174447,-187500.02235174447,-187500.02235174447,-187500.02235174447
$SILENCE,-1819.7002195954585,-12049.937194578313,6374.896332609217,8393.929409257104,-187500.02235174447,-187500.02235174447,-187500.02235174447,-187500.02235174447
