WORD,Channel_1,Channel_2,Channel_3,Channel_4,Channel_5,Channel_6,Channel_7,Channel_8
$SILENCE,-2201.95975327012,-12123.362675113998,6303.258991629958,8324.84016714575,-187500.02235174447,-187500.02235174447,-187500.02235174447,-187500.02235174447
$SILENCE,-2249.7030794266557,-12127.028361204668,6149.814265944275,8335.569004484298,-187500.02235174447,-187500.02235174447,-187500.02235174447,-187500.02235174447
$SILENCE,-2286.8516787113763,-12138.025419476679,5987.294732009737,8339.79348418635,-187500.02235174447,-187500.02235174447,-187500.02235174447,-187500.02235174447
$SILENCE,-2227.798369860455,-12138.517157854696,6136.537329737822,8325.22014680149,-187500.02235174447,-187500.02235174447,-187500.02235174447,-187500.02235174447
$SILENCE,-2187.341712396349,-12123.228564647266,6305.158889908658,8320.235707787957,-187500.02235174447,-187500.02235174447,-187500.02235174447,-187500.02235174447
$SILENCE,-2233.25219550755,-12122.915640224892,6184.884152994651,8333.378533527677,-187500.02235174447,-187500.02235174447,-187500.02235174447,-187500.02235174447
$SILENCE,-2287.0975479003846,-12137.98071598777,5993.284999523759,8336.93246089607,-187500.02235174447,-187500.02235174447,-187500.02235174447,-187500.02235174447
$SILENCE,-2251.6476811942675,-12137.488977609752,6096.72887286292,8337.111274851713,-187500.02235174447,-187500.02235174447,-187500.02235174447,-187500.02235174447
$SILENCE,-2197.9364392681646,-12120.434596590352,6304.667151530642,8335.323135295288,-187500.02235174447,-187500.02235174447,-187500.02235174447,-187500.02235174447
$SILENCE,-2230.413523961726,-12121.440425090841,6230.191139005558,8344.777923199883,-187500.02235174447,-187500.02235174447,-187500.02235174447,-187500.02235174447
$SILENCE,-2290.629123524323,-12131.029323462168,6020.956459159429,8350.27645233589,-187500.02235174447,-187500.02235174447,-187500.02235174447,-187500.02235174447
$SILENCE,-2271.250161081572,-12137.2654601652,6045.565729804723,8331.724504437983,-187500.02235174447,-187500.02235174447,-187500.02235174447,-187500.02235174447
$SILENCE,-2207.9723725285976,-12125.240221648244,6271.251293569958,8321.576812455274,-187500.02235174447,-187500.02235174447,-187500.02235174447,-187500.02235174447
$SILENCE,-2236.403791475748,-12122.625067546973,6237.56721467581,8328.461149747509,-187500.02235174447,-187500.02235174447,-187500.02235174447,-187500.02235174447
$SILENCE,-2303.9060597307753,-12137.69014330985,6026.052656895239,8340.687553964563,-187500.02235174447,-187500.02235174447,-187500.02235174447,-187500.02235174447
$SILENCE,-2304.554260319979,-12147.614317848005,5993.642627435044,8322.292068277844,-187500.02235174447,-187500.02235174447,-187500.02235174447,-187500.02235174447
$SILENCE,-2211.05691326343,-12126.491919337741,6246.463208969022,8322.940268867049,-187500.02235174447,-187500.02235174447,-187500.02235174447,-187500.02235174447
$SILENCE,-2210.5204713965027,-12114.466680820786,6280.460212285544,8338.69824870804,-187500.02235174447,-187500.02235174447,-187500.02235174447,-187500.02235174447
$SILENCE,-2273.932370416209,-12127.743617027238,6090.470384415435,8350.567025013808,-187500.02235174447,-187500.02235174447,-187500.02235174447,-187500.02235174447
$SILENCE,-2293.892478214798,-12139.50063461073,6013.088645111161,8346.744876711951,-187500.02235174447,-187500.02235174447,-187500.02235174447,-187500.02235174447
$SILENCE,-2222.34454421336,-12132.795111274138,6215.081359753771,8327.924707880582,-187500.02235174447,-187500.02235174447,-187500.02235174447,-187500.02235174447
$SILENCE,-2206.4971573945472,-12124.97200071478,6286.182258866103,8329.288164292355,-187500.02235174447,-187500.02235174447,-187500.02235174447,-187500.02235174447
$SILENCE,-2261.147172587773,-12131.029323462168,6104.887259589107,8340.575795242286,-187500.02235174447,-187500.02235174447,-187500.02235174447,-187500.02235174447
$SILENCE,-2290.696178757689,-12144.820349791093,5974.241313247838,8342.855673176728,-187500.02235174447,-187500.02235174447,-187500.02235174447,-187500.02235174447
$SILENCE,-2232.7381053850777,-12139.858262522015,6162.130077139149,8321.845033388738,-187500.02235174447,-187500.02235174447,-187500.02235174447,-187500.02235174447
$SILENCE,-2212.2639074640165,-12124.614372803495,6299.258029372458,8319.542803709843,-187500.02235174447,-187500.02235174447,-187500.02235174447,-187500.02235174447
$SILENCE,-2262.309463299449,-12133.890346752447,6159.179646871048,8330.517510237398,-187500.02235174447,-187500.02235174447,-187500.02235174447,-187500.02235174447
$SILENCE,-2293.7136642591554,-12142.40636138992,5986.333606998159,8344.755571455427,-187500.02235174447,-187500.02235174447,-187500.02235174447,-187500.02235174447
$SILENCE,-2240.740029900078,-12135.902003753425,6121.204033041481,8340.531091753375,-187500.02235174447,-187500.02235174447,-187500.02235174447,-187500.02235174447
$SILENCE,-2205.6254393607906,-12124.30144838112,6296.57582003782,8332.752684682928,-187500.02235174447,-187500.02235174447,-187500.02235174447,-187500.02235174447
$SILENCE,-2249.412506748737,-12126.983657715757,6188.6839495520535,8344.308536566323,-187500.02235174447,-187500.02235174447,-187500.02235174447,-187500.02235174447
$SILENCE,-2310.0974929448957,-12141.758160800715,5988.121746554583,8345.761399955916,-187500.02235174447,-187500.02235174447,-187500.02235174447,-187500.02235174447
$SILENCE,-2266.9586261461527,-12141.825216034082,6077.171096464526,8336.17250158459,-187500.02235174447,-187500.02235174447,-187500.02235174447,-187500.02235174447
$SILENCE,-2198.1376049682626,-12131.386951373453,6286.517535032933,8332.193891071545,-187500.02235174447,-187500.02235174447,-187500.02235174447,-187500.02235174447
$SILENCE,-2235.0179833195193,-12132.169262429388,6208.152318972626,8332.08213234927,-187500.02235174447,-187500.02235174447,-187500.02235174447,-187500.02235174447
$SILENCE,-2282.426033309225,-12141.44523637834,6004.1926508179495,8345.157902855624,-187500.02235174447,-187500.02235174447,-187500.02235174447,-187500.02235174447
$SILENCE,-2259.5825504759014,-12143.188672445855,6035.440389566468,8334.540824239353,-187500.02235174447,-187500.02235174447,-187500.02235174447,-187500.02235174447
$SILENCE,-2200.8868695362653,-12127.92243098288,6267.250331312458,8326.3153822798,-187500.02235174447,-187500.02235174447,-187500.02235174447,-187500.02235174447
$SILENCE,-2226.5466721709577,-12127.095416438035,6245.122104301704,8333.31147829431,-187500.02235174447,-187500.02235174447,-187500.02235174447,-187500.02235174447
$SILENCE,-2285.4882222996025,-12138.539509599152,6037.34028784517,8343.41446678811,-187500.02235174447,-187500.02235174447,-187500.02235174447,-187500.02235174447
$SILENCE,-2278.6709402407337,-12143.859224779515,6000.392854260547,8340.531091753375,-187500.02235174447,-187500.02235174447,-187500.02235174447,-187500.02235174447
$SILENCE,-2212.0403900194633,-12131.409303117909,6230.504063427933,8330.450455004031,-187500.02235174447,-187500.02235174447,-187500.02235174447,-187500.02235174447
$SILENCE,-2216.220166232606,-12123.87676523647,6264.210494066536,8336.239556817956,-187500.02235174447,-187500.02235174447,-187500.02235174447,-187500.02235174447
$SILENCE,-2277.374539062326,-12131.87868975147,6074.622997596622,8346.163731356113,-187500.02235174447,-187500.02235174447,-187500.02235174447,-187500.02235174447
$SILENCE,-2284.2365246101053,-12148.150759714934,5985.081909308661,8344.107370866224,-187500.02235174447,-187500.02235174447,-187500.02235174447,-187500.02235174447
$SILENCE,-2220.4669976791142,-12140.72998055577,6193.087243209749,8324.661353190108,-187500.02235174447,-187500.02235174447,-187500.02235174447,-187500.02235174447
$SILENCE,-2211.369837685804,-12128.794149016638,6280.259046585446,8329.109350336714,-187500.02235174447,-187500.02235174447,-187500.02235174447,-187500.02235174447
$SILENCE,-2261.6836144547005,-12136.349038642531,6105.6248671561325,8342.520397009897,-187500.02235174447,-187500.02235174447,-187500.02235174447,-187500.02235174447
$SILENCE,-2286.2928850999933,-12148.575442859585,5970.7320893683545,8343.950908655037,-187500.02235174447,-187500.02235174447,-187500.02235174447,-187500.02235174447
$SILENCE,-2228.334811727382,-12142.763989301204,6154.619891002166,8331.277469548879,-187500.02235174447,-187500.02235174447,-187500.02235174447,-187500.02235174447
$SILENCE,-2201.4680148921034,-12132.057503707112,6286.33872107729,8327.276507291377,-187500.02235174447,-187500.02235174447,-187500.02235174447,-187500.02235174447
$SILENCE,-2252.0276608500076,-12141.601698589528,6133.16221632507,8335.613707973207,-187500.02235174447,-187500.02235174447,-187500.02235174447,-187500.02235174447
$SILENCE,-2292.305504358471,-12159.661908109416,5967.468734677879,8336.284260306868,-187500.02235174447,-187500.02235174447,-187500.02235174447,-187500.02235174447
$SILENCE,-2238.460151965636,-12166.45683842383,6119.8852801186185,8311.049140816825,-187500.02235174447,-187500.02235174447,-187500.02235174447,-187500.02235174447
$SILENCE,-2196.1930032006508,-12134.136215941457,6298.900401461173,8313.753701895917,-187500.02235174447,-187500.02235174447,-187500.02235174447,-187500.02235174447
$SILENCE,-2240.4941607110695,-12131.319896140087,6169.170876642571,8314.826585629771,-187500.02235174447,-187500.02235174447,-187500.02235174447,-187500.02235174447
$SILENCE,-2287.343417089393,-12147.457855636818,5971.894380080031,8322.783806655862,-187500.02235174447,-187500.02235174447,-187500.02235174447,-187500.02235174447
$SILENCE,-2236.3367362423824,-12150.788265560659,6074.5112388743455,8314.536012951852,-187500.02235174447,-187500.02235174447,-187500.02235174447,-187500.02235174447
$SILENCE,-2180.435023359659,-12138.517157854696,6293.826555469818,8305.103576791713,-187500.02235174447,-187500.02235174447,-187500.02235174447,-187500.02235174447
$SILENCE,-2212.1968522306506,-12138.628916576972,6223.575022646788,8312.591411184241,-187500.02235174447,-187500.02235174447,-187500.02235174447,-187500.02235174447
$SILENCE,-2271.987768648597,-12152.17407371689,6028.6678109965105,8311.183251283557,-187500.02235174447,-187500.02235174447,-187500.02235174447,-187500.02235174447
$SILENCE,-2250.954777116153,-12161.047716265646,6063.5812358357,8311.339713494745,-187500.02235174447,-187500.02235174447,-187500.02235174447,-187500.02235174447
$SILENCE,-2187.2076019296173,-12166.233320979276,6279.320273318323,8298.822736599772,-187500.02235174447,-187500.02235174447,-187500.02235174447,-187500.02235174447
$SILENCE,-2177.19402041364,-12122.513308824697,6284.170601865126,8313.59723968473,-187500.02235174447,-187500.02235174447,-187500.02235174447,-187500.02235174447
$SILENCE,-2253.793448661977,-12129.419997861385,6045.677488526999,8320.973315354982,-187500.02235174447,-187500.02235174447,-187500.02235174447,-187500.02235174447
$SILENCE,-2284.2588763545605,-12177.02921355119,5972.296711480226,8289.54676265082,-187500.02235174447,-187500.02235174447,-187500.02235174447,-187500.02235174447
$SILENCE,-2195.701264822634,-12155.97387027429,6217.540051643855,8286.059890515791,-187500.02235174447,-187500.02235174447,-187500.02235174447,-187500.02235174447
$SILENCE,-2197.2211834455948,-12155.191559218354,6254.532188717389,8280.717823590974,-187500.02235174447,-187500.02235174447,-187500.02235174447,-187500.02235174447
$SILENCE,-2256.408602763248,-12164.288719211665,6061.3684131346245,8296.989893554437,-187500.02235174447,-187500.02235174447,-187500.02235174447,-187500.02235174447
$SILENCE,-2256.788582418988,-12162.54528314415,5975.984749315352,8310.445643716532,-187500.02235174447,-187500.02235174447,-187500.02235174447,-187500.02235174447
$SILENCE,-2189.4874798640585,-12156.912643541413,6194.450699621523,8291.089033018236,-187500.02235174447,-187500.02235174447,-187500.02235174447,-187500.02235174447
$SILENCE,-2177.149316924729,-12147.949594014835,6288.90917168965,8289.502059161909,-187500.02235174447,-187500.02235174447,-187500.02235174447,-187500.02235174447
$SILENCE,-2233.6545269077455,-12155.616242363007,6120.77934989683,8300.946152323026,-187500.02235174447,-187500.02235174447,-187500.02235174447,-187500.02235174447
$SILENCE,-2263.0247191220187,-12170.435448936874,5982.578513929667,8303.02486455737,-187500.02235174447,-187500.02235174447,-187500.02235174447,-187500.02235174447
$SILENCE,-2200.573945113891,-12168.423791935897,6159.023184659861,8285.188172482034,-187500.02235174447,-187500.02235174447,-187500.02235174447,-187500.02235174447
$SILENCE,-2170.5332005659584,-12157.203216219332,6299.906229961662,8279.466125901476,-187500.02235174447,-187500.02235174447,-187500.02235174447,-187500.02235174447
$SILENCE,-2216.0413522769636,-12164.199312233844,6160.677213749554,8285.031710270847,-187500.02235174447,-187500.02235174447,-187500.02235174447,-187500.02235174447
$SILENCE,-2256.341547529882,-12177.811524607127,5990.066348322195,8290.239666728934,-187500.02235174447,-187500.02235174447,-187500.02235174447,-187500.02235174447
$SILENCE,-2208.48646265107,-12176.157495517433,6120.868756874652,8277.879152045149,-187500.02235174447,-187500.02235174447,-187500.02235174447,-187500.02235174447
$SILENCE,-2167.5604185534025,-12159.25957670922,6300.308561361857,8271.888884531127,-187500.02235174447,-187500.02235174447,-187500.02235174447,-187500.02235174447
$SILENCE,-2203.2338027040723,-12160.041887765157,6201.647961336132,8282.952998036504,-187500.02235174447,-187500.02235174447,-187500.02235174447,-187500.02235174447
$SILENCE,-2251.401812005259,-12173.967024560812,6005.176127573983,8288.987969039437,-187500.02235174447,-187500.02235174447,-187500.02235174447,-187500.02235174447
$SILENCE,-2214.700247609645,-12177.900931584947,6080.590913366189,8282.036576513836,-187500.02235174447,-187500.02235174447,-187500.02235174447,-187500.02235174447
$SILENCE,-2160.6537295167127,-12165.31689945661,6286.897514688673,8265.317471661267,-187500.02235174447,-187500.02235174447,-187500.02235174447,-187500.02235174447
$SILENCE,-2186.8052705294217,-12163.908739555925,6228.402999449134,8270.748945563906,-187500.02235174447,-187500.02235174447,-187500.02235174447,-187500.02235174447
$SILENCE,-2240.6059194333457,-12174.771687361204,6027.349058073647,8281.723652091463,-187500.02235174447,-187500.02235174447,-187500.02235174447,-187500.02235174447
$SILENCE,-2223.2609657360276,-12178.012690307223,6040.715401257921,8276.023957255358,-187500.02235174447,-187500.02235174447,-187500.02235174447,-187500.02235174447
$SILENCE,-2158.1950376266286,-12163.193483733356,6274.67111047162,8269.676061830052,-187500.02235174447,-187500.02235174447,-187500.02235174447,-187500.02235174447
$SILENCE,-2170.443793588137,-12159.058411009122,6268.904360402151,8278.393242167622,-187500.02235174447,-187500.02235174447,-187500.02235174447,-187500.02235174447
$SILENCE,-2234.4144862192256,-12167.306204713132,6062.083668957194,8286.842201571728,-187500.02235174447,-187500.02235174447,-187500.02235174447,-187500.02235174447
$SILENCE,-2242.01407933403,-12175.799867606149,6013.37921778908,8281.813059069284,-187500.02235174447,-187500.02235174447,-187500.02235174447,-187500.02235174447
$SILENCE,-2173.1483546672293,-12166.009803534724,6240.070610054804,8268.245550184913,-187500.02235174447,-187500.02235174447,-187500.02235174447,-187500.02235174447
$SILENCE,-2162.218351628584,-12159.907777298426,6292.217229869036,8274.951073521504,-187500.02235174447,-187500.02235174447,-187500.02235174447,-187500.02235174447
$SILENCE,-2205.3572184273266,-12169.899007069947,6107.6812276460205,8284.897599804115,-187500.02235174447,-187500.02235174447,-187500.02235174447,-187500.02235174447
$SILENCE,-2227.7760181159997,-12178.415021707418,6000.392854260547,8278.169724723068,-187500.02235174447,-187500.02235174447,-187500.02235174447,-187500.02235174447
$SILENCE,-2178.155145425218,-12168.781419847182,6203.391397403646,8262.814076282273,-187500.02235174447,-187500.02235174447,-187500.02235174447,-187500.02235174447
$SILENCE,-2163.447697573626,-12156.912643541413,6294.944142692583,8264.199884438502,-187500.02235174447,-187500.02235174447,-187500.02235174447,-187500.02235174447
$SILENCE,-2212.7779975864887,-12160.399515676441,6134.279803547836,8284.987006781937,-187500.02235174447,-187500.02235174447,-187500.02235174447,-187500.02235174447
$SILENCE,-2249.0101753485415,-12172.782382104682,5991.4521564784245,8286.819849827272,-187500.02235174447,-187500.02235174447,-187500.02235174447,-187500.02235174447
$SILENCE,-2189.219258930595,-12170.681318125882,6163.962920184484,8269.564303107774,-187500.02235174447,-187500.02235174447,-187500.02235174447,-187500.02235174447
$SILENCE,-2151.444810801126,-12156.778533074681,6312.333799878812,8268.938454263027,-187500.02235174447,-187500.02235174447,-187500.02235174447,-187500.02235174447
$SILENCE,-2197.0423694899523,-12160.77949533218,6178.893885480629,8280.717823590974,-187500.02235174447,-187500.02235174447,-187500.02235174447,-187500.02235174447
$SILENCE,-2248.6748991817117,-12176.023385050701,5987.540601198745,8280.427250913055,-187500.02235174447,-187500.02235174447,-187500.02235174447,-187500.02235174447
$SILENCE,-2209.157014984729,-12171.955367559834,6107.010675312362,8272.850009542706,-187500.02235174447,-187500.02235174447,-187500.02235174447,-187500.02235174447
$SILENCE,-2161.1007644058186,-12153.246957450743,6300.420320084134,8268.536122862832,-187500.02235174447,-187500.02235174447,-187500.02235174447,-187500.02235174447
$SILENCE,-2191.633247331768,-12154.811579562614,6207.258249194414,8278.594407867718,-187500.02235174447,-187500.02235174447,-187500.02235174447,-187500.02235174447
$SILENCE,-2243.355184001349,-12166.188617490367,6016.731979457376,8287.49040216093,-187500.02235174447,-187500.02235174447,-187500.02235174447,-187500.02235174447
$SILENCE,-2212.8450528198546,-12169.451972180841,6084.4354134125015,8275.934550277538,-187500.02235174447,-187500.02235174447,-187500.02235174447,-187500.02235174447
$SILENCE,-2146.214502598584,-12161.852379066037,6296.307599104357,8265.563340850274,-187500.02235174447,-187500.02235174447,-187500.02235174447,-187500.02235174447
$SILENCE,-2170.6002557993243,-12159.21487322031,6239.444761210056,8273.811134554284,-187500.02235174447,-187500.02235174447,-187500.02235174447,-187500.02235174447
$SILENCE,-2232.53693968498,-12167.55207390214,6035.507444799834,8288.250361472412,-187500.02235174447,-187500.02235174447,-187500.02235174447,-187500.02235174447
$SILENCE,-2230.055896050441,-12172.40240244894,6038.949613445951,8275.576922366254,-187500.02235174447,-187500.02235174447,-187500.02235174447,-187500.02235174447
$SILENCE,-2165.8169824858883,-12159.304280198132,6267.04916561236,8263.618739082664,-187500.02235174447,-187500.02235174447,-187500.02235174447,-187500.02235174447
$SILENCE,-2180.636189059757,-12152.755219072727,6265.417488267123,8275.599274110707,-187500.02235174447,-187500.02235174447,-187500.02235174447,-187500.02235174447
$SILENCE,-2247.4455532366696,-12163.081725011078,6063.648291069066,8286.953960294004,-187500.02235174447,-187500.02235174447,-187500.02235174447,-187500.02235174447
$SILENCE,-2240.6282711778013,-12173.721155371804,6009.624124720589,8280.181381724045,-187500.02235174447,-187500.02235174447,-187500.02235174447,-187500.02235174447
$SILENCE,-2168.3203778648826,-12164.400477933941,6231.442836695056,8263.529332104843,-187500.02235174447,-187500.02235174447,-187500.02235174447,-187500.02235174447
$SILENCE,-2166.6439970307347,-12154.856283051526,6283.589456509288,8268.200846696001,-187500.02235174447,-187500.02235174447,-187500.02235174447,-187500.02235174447
$SILENCE,-2230.5252826840024,-12160.667736609905,6095.723044362431,8279.935512535038,-187500.02235174447,-187500.02235174447,-187500.02235174447,-187500.02235174447
$SILENCE,-2248.6525474372565,-12172.625919893495,5994.357883257614,8284.49526840392,-187500.02235174447,-187500.02235174447,-187500.02235174447,-187500.02235174447
$SILENCE,-2178.825697758877,-12165.40630643443,6194.137775199149,8266.099782717203,-187500.02235174447,-187500.02235174447,-187500.02235174447,-187500.02235174447
$SILENCE,-2156.675119003668,-12153.962213273313,6293.334817091802,8266.92679726205,-187500.02235174447,-187500.02235174447,-187500.02235174447,-187500.02235174447
$SILENCE,-2213.8508813203434,-12159.438390664864,6131.64229770211,8283.489439903431,-187500.02235174447,-187500.02235174447,-187500.02235174447,-187500.02235174447
$SILENCE,-2249.3230997709156,-12171.061297781624,5986.601827931622,8286.730442849452,-187500.02235174447,-187500.02235174447,-187500.02235174447,-187500.02235174447
$SILENCE,-2193.19786944364,-12166.948576801846,6156.6315480031435,8273.49821013191,-187500.02235174447,-187500.02235174447,-187500.02235174447,-187500.02235174447
$SILENCE,-2157.993871926531,-12155.862111552015,6306.187070153603,8269.20667519649,-187500.02235174447,-187500.02235174447,-187500.02235174447,-187500.02235174447
$SILENCE,-2203.8149480599104,-12160.287756954165,6174.892923223129,8278.884980545638,-187500.02235174447,-187500.02235174447,-187500.02235174447,-187500.02235174447
$SILENCE,-2247.266739281027,-12173.721155371804,5996.704816425421,8286.708091104996,-187500.02235174447,-187500.02235174447,-187500.02235174447,-187500.02235174447
$SILENCE,-2205.178404471684,-12172.849437338047,6105.177832267026,8272.984120009438,-187500.02235174447,-187500.02235174447,-187500.02235174447,-187500.02235174447
$SILENCE,-2160.676081261168,-12157.471437152797,6294.787680481396,8267.083259473236,-187500.02235174447,-187500.02235174447,-187500.02235174447,-187500.02235174447
$SILENCE,-2196.818852045399,-12156.622070863496,6206.632400349665,8281.857762558195,-187500.02235174447,-187500.02235174447,-187500.02235174447,-187500.02235174447
$SILENCE,-2251.021832349519,-12167.97675704679,6005.33258978517,8289.770280095372,-187500.02235174447,-187500.02235174447,-187500.02235174447,-187500.02235174447
$SILENCE,-2220.891680823765,-12174.235245494277,6065.302320158758,8274.124058976658,-187500.02235174447,-187500.02235174447,-187500.02235174447,-187500.02235174447
$SILENCE,-2161.8160202283884,-12161.003012776735,6282.427165797611,8263.283462915833,-187500.02235174447,-187500.02235174447,-187500.02235174447,-187500.02235174447
$SILENCE,-2184.6595030617123,-12156.26444295221,6236.8743105976955,8276.49334388892,-187500.02235174447,-187500.02235174447,-187500.02235174447,-187500.02235174447
$SILENCE,-2241.991727589575,-12165.294547712154,6034.993354677362,8285.948131793515,-187500.02235174447,-187500.02235174447,-187500.02235174447,-187500.02235174447
$SILENCE,-2231.084076295385,-12173.229416993789,6032.936994187474,8279.220256712468,-187500.02235174447,-187500.02235174447,-187500.02235174447,-187500.02235174447
$SILENCE,-2165.504058063514,-12158.477265653286,6260.790677164874,8272.626492098152,-187500.02235174447,-187500.02235174447,-187500.02235174447,-187500.02235174447
$SILENCE,-2182.379625127271,-12152.755219072727,6262.4670579990225,8281.522486391365,-187500.02235174447,-187500.02235174447,-187500.02235174447,-187500.02235174447
$SILENCE,-2244.0927915683737,-12164.288719211665,6060.742564289876,8289.993797539926,-187500.02235174447,-187500.02235174447,-187500.02235174447,-187500.02235174447
$SILENCE,-2246.8197043919213,-12174.79403910566,6001.756310672321,8284.651730615107,-187500.02235174447,-187500.02235174447,-187500.02235174447,-187500.02235174447
$SILENCE,-2177.4175378581926,-12164.936919800868,6227.218356993003,8267.195018195513,-187500.02235174447,-187500.02235174447,-187500.02235174447,-187500.02235174447
$SILENCE,-2172.9471889671313,-12153.984565017769,6288.86446820074,8267.820867040262,-187500.02235174447,-187500.02235174447,-187500.02235174447,-187500.02235174447
$SILENCE,-2228.603032660846,-12161.78532383267,6108.083559046217,8281.187210224534,-187500.02235174447,-187500.02235174447,-187500.02235174447,-187500.02235174447
$SILENCE,-2250.6418526937787,-12172.022422793201,5995.698987924932,8285.54580039332,-187500.02235174447,-187500.02235174447,-187500.02235174447,-187500.02235174447
$SILENCE,-2183.2066396721175,-12166.88152156848,6184.481821594456,8267.97732925145,-187500.02235174447,-187500.02235174447,-187500.02235174447,-187500.02235174447
$SILENCE,-2161.994834184031,-12158.119637742,6290.563200779343,8266.882093773138,-187500.02235174447,-187500.02235174447,-187500.02235174447,-187500.02235174447
$SILENCE,-2213.403846431237,-12163.774629089194,6132.826940158241,8281.12015499117,-187500.02235174447,-187500.02235174447,-187500.02235174447,-187500.02235174447
$SILENCE,-2250.574797460413,-12175.576350161595,5981.930313340463,8287.177477738556,-187500.02235174447,-187500.02235174447,-187500.02235174447,-187500.02235174447
$SILENCE,-2197.712921823612,-12169.563730903117,6141.700582706998,8269.83252404124,-187500.02235174447,-187500.02235174447,-187500.02235174447,-187500.02235174447
$SILENCE,-2160.7207847500786,-12153.649288850938,6297.671055516131,8270.54777986381,-187500.02235174447,-187500.02235174447,-187500.02235174447,-187500.02235174447
$SILENCE,-2210.6098783743237,-12157.49378889725,6171.048423176816,8282.818887569772,-187500.02235174447,-187500.02235174447,-187500.02235174447,-187500.02235174447
$SILENCE,-2256.386251018793,-12171.016594292712,5986.870048865087,8290.239666728934,-187500.02235174447,-187500.02235174447,-187500.02235174447,-187500.02235174447
$SILENCE,-2215.661372621223,-12171.396573948452,6095.544230406789,8273.319396176266,-187500.02235174447,-187500.02235174447,-187500.02235174447,-187500.02235174447
$SILENCE,-2167.1357354087518,-12157.136160985967,6290.093814145782,8260.44479137001,-187500.02235174447,-187500.02235174447,-187500.02235174447,-187500.02235174447
$SILENCE,-2205.0442940049525,-12155.236262707265,6203.570211359288,8270.01133799688,-187500.02235174447,-187500.02235174447,-187500.02235174447,-187500.02235174447
$SILENCE,-2257.660300452745,-12167.55207390214,6008.6182962201,8285.031710270847,-187500.02235174447,-187500.02235174447,-187500.02235174447,-187500.02235174447
$SILENCE,-2227.8430733493656,-12170.815428592614,6061.457820112446,8279.332015434744,-187500.02235174447,-187500.02235174447,-187500.02235174447,-187500.02235174447
$SILENCE,-2169.214447643095,-12158.052582508635,6274.7381657049855,8267.3514804067,-187500.02235174447,-187500.02235174447,-187500.02235174447,-187500.02235174447
$SILENCE,-2194.471918877592,-12152.419942905897,6234.080342540782,8277.20859971149,-187500.02235174447,-187500.02235174447,-187500.02235174447,-187500.02235174447
$SILENCE,-2253.413469006237,-12157.940823786357,6032.557014531733,8290.463184173488,-187500.02235174447,-187500.02235174447,-187500.02235174447,-187500.02235174447
$SILENCE,-2237.789599631977,-12169.921358814403,6025.315049328215,8281.947169536015,-187500.02235174447,-187500.02235174447,-187500.02235174447,-187500.02235174447
$SILENCE,-2171.4272703441707,-12158.946652286846,6252.006441593939,8268.692585074019,-187500.02235174447,-187500.02235174447,-187500.02235174447,-187500.02235174447
$SILENCE,-2184.927723995176,-12151.63763184996,6256.521493973911,8273.006471753892,-187500.02235174447,-187500.02235174447,-187500.02235174447,-187500.02235174447
$SILENCE,-2244.629233435301,-12161.02536452119,6061.167247434527,8288.049195772313,-187500.02235174447,-187500.02235174447,-187500.02235174447,-187500.02235174447
$SILENCE,-2254.1734283177175,-12172.380050704485,5996.727168169877,8283.958826536993,-187500.02235174447,-187500.02235174447,-187500.02235174447,-187500.02235174447
$SILENCE,-2189.6886455641566,-12162.50057965524,6211.683894596565,8268.804343796295,-187500.02235174447,-187500.02235174447,-187500.02235174447,-187500.02235174447
$SILENCE,-2174.869438990288,-12153.112846984011,6272.659453470642,8272.11240197568,-187500.02235174447,-187500.02235174447,-187500.02235174447,-187500.02235174447
$SILENCE,-2224.758532614533,-12160.511274398717,6097.734701363409,8281.902466047104,-187500.02235174447,-187500.02235174447,-187500.02235174447,-187500.02235174447
$SILENCE,-2243.355184001349,-12173.341175716065,5986.154793042516,8284.271750959368,-187500.02235174447,-187500.02235174447,-187500.02235174447,-187500.02235174447
$SILENCE,-2182.401976871726,-12165.249844223243,6182.336054126747,8275.196942710512,-187500.02235174447,-187500.02235174447,-187500.02235174447,-187500.02235174447
$SILENCE,-2170.376738354771,-12152.107018483523,6289.57972402331,8272.246512442412,-187500.02235174447,-187500.02235174447,-187500.02235174447,-187500.02235174447
$SILENCE,-2220.3999424457484,-12155.728001085283,6129.854158145686,8282.617721869674,-187500.02235174447,-187500.02235174447,-187500.02235174447,-187500.02235174447
$SILENCE,-2254.5310562290024,-12169.65313788094,5972.27435973577,8284.092937003725,-187500.02235174447,-187500.02235174447,-187500.02235174447,-187500.02235174447
$SILENCE,-2202.384436414771,-12166.099210512544,6133.273975047347,8274.571093865765,-187500.02235174447,-187500.02235174447,-187500.02235174447,-187500.02235174447
$SILENCE,-2167.6498255312235,-12151.391762660953,6295.167660137136,8271.68771883103,-187500.02235174447,-187500.02235174447,-187500.02235174447,-187500.02235174447
$SILENCE,-2218.8129685894214,-12154.878634795981,6167.360385341691,8281.477782902453,-187500.02235174447,-187500.02235174447,-187500.02235174447,-187500.02235174447
$SILENCE,-2269.752594203066,-12167.753239602238,5981.952665084918,8289.502059161909,-187500.02235174447,-187500.02235174447,-187500.02235174447,-187500.02235174447
$SILENCE,-2223.171558758206,-12168.446143680352,6087.564657636244,8269.653710085597,-187500.02235174447,-187500.02235174447,-187500.02235174447,-187500.02235174447
$SILENCE,-2166.576941797369,-12153.492826639751,6278.895590173673,8262.903483260094,-187500.02235174447,-187500.02235174447,-187500.02235174447,-187500.02235174447
$SILENCE,-2203.1443957262513,-12154.521006884695,6195.389472888645,8275.599274110707,-187500.02235174447,-187500.02235174447,-187500.02235174447,-187500.02235174447
$SILENCE,-2258.219094064128,-12167.797943091147,5995.721339669388,8280.941341035526,-187500.02235174447,-187500.02235174447,-187500.02235174447,-187500.02235174447
$SILENCE,-2233.0286780629967,-12168.423791935897,6041.005973935839,8275.44281189952,-187500.02235174447,-187500.02235174447,-187500.02235174447,-187500.02235174447
$SILENCE,-2171.449622088626,-12155.348021429541,6265.90922664514,8268.692585074019,-187500.02235174447,-187500.02235174447,-187500.02235174447,-187500.02235174447
$SILENCE,-2191.7673577985,-12153.135198728467,6233.454493696034,8276.918027033571,-187500.02235174447,-187500.02235174447,-187500.02235174447,-187500.02235174447
$SILENCE,-2249.9713003601196,-12167.440315179863,6028.354886574136,8285.501096904409,-187500.02235174447,-187500.02235174447,-187500.02235174447,-187500.02235174447
$SILENCE,-2241.701154911656,-12175.084611783579,6010.4734910098905,8276.515695633376,-187500.02235174447,-187500.02235174447,-187500.02235174447,-187500.02235174447
$SILENCE,-2181.351444882327,-12162.701745355338,6236.315516986313,8261.942358248516,-187500.02235174447,-187500.02235174447,-187500.02235174447,-187500.02235174447
$SILENCE,-2190.582715342369,-12155.728001085283,6247.647851425154,8268.44671588501,-187500.02235174447,-187500.02235174447,-187500.02235174447,-187500.02235174447
$SILENCE,-2246.35031775836,-12162.388820932963,6057.590968321678,8285.88107656015,-187500.02235174447,-187500.02235174447,-187500.02235174447,-187500.02235174447
$SILENCE,-2262.0412423659855,-12174.972853061301,5983.85256336362,8278.929684034549,-187500.02235174447,-187500.02235174447,-187500.02235174447,-187500.02235174447
$SILENCE,-2193.6225525882905,-12165.518065156706,6202.810252047808,8262.277634415344,-187500.02235174447,-187500.02235174447,-187500.02235174447,-187500.02235174447
$SILENCE,-2171.091994177341,-12152.129370227978,6275.073441871816,8267.709108317984,-187500.02235174447,-187500.02235174447,-187500.02235174447,-187500.02235174447
$SILENCE,-2230.0782477948965,-12160.555977887629,6090.135108248604,8277.767393322873,-187500.02235174447,-187500.02235174447,-187500.02235174447,-187500.02235174447
$SILENCE,-2264.20936157815,-12167.88735006897,5976.2529702488155,8285.12111724867,-187500.02235174447,-187500.02235174447,-187500.02235174447,-187500.02235174447
$SILENCE,-2205.0442940049525,-12161.539454643662,6171.160181899093,8270.368965908167,-187500.02235174447,-187500.02235174447,-187500.02235174447,-187500.02235174447
$SILENCE,-2179.6750640481787,-12151.280003938677,6286.8304594553065,8269.765468807873,-187500.02235174447,-187500.02235174447,-187500.02235174447,-187500.02235174447
$SILENCE,-2231.575814673402,-12154.766876073703,6134.704486692487,8285.009358526393,-187500.02235174447,-187500.02235174447,-187500.02235174447,-187500.02235174447
$SILENCE,-2262.443573766181,-12169.876655325492,5973.101374280617,8284.07058525927,-187500.02235174447,-187500.02235174447,-187500.02235174447,-187500.02235174447
$SILENCE,-2205.9383637831647,-12168.759068102727,6123.148634809093,8269.072564729759,-187500.02235174447,-187500.02235174447,-187500.02235174447,-187500.02235174447
talvez,-2172.611912800302,-12157.918472041902,6287.545715277876,8264.758678049884,-187500.02235174447,-187500.02235174447,-187500.02235174447,-187500.02235174447
talvez,-2222.6574686357344,-12157.40438191943,6170.847257476718,8278.102669489703,-187500.02235174447,-187500.02235174447,-187500.02235174447,-187500.02235174447
talvez,-2271.5854372484014,-12166.54624540165,5987.004159331818,8289.278541717356,-187500.02235174447,-187500.02235174447,-187500.02235174447,-187500.02235174447
talvez,-2223.573890158402,-12170.524855914695,6078.512201131845,8274.034651998836,-187500.02235174447,-187500.02235174447,-187500.02235174447,-187500.02235174447
talvez,-2168.09686042033,-12160.26540520971,6276.235732583491,8264.579864094241,-187500.02235174447,-187500.02235174447,-187500.02235174447,-187500.02235174447
talvez,-2210.6769336076895,-12154.40924816242,6206.99002826095,8279.39907066811,-187500.02235174447,-187500.02235174447,-187500.02235174447,-187500.02235174447
talvez,-2265.6175214788345,-12171.955367559834,5993.530868712767,8279.913160790582,-187500.02235174447,-187500.02235174447,-187500.02235174447,-187500.02235174447
talvez,-2232.693401896167,-12177.878579840492,6029.695991241454,8271.218332197468,-187500.02235174447,-187500.02235174447,-187500.02235174447,-187500.02235174447
talvez,-2180.703244293123,-12158.097285997545,6256.297976529358,8262.679965815541,-187500.02235174447,-187500.02235174447,-187500.02235174447,-187500.02235174447
talvez,-2197.422349145693,-12155.303317940632,6228.961793060517,8273.162933965079,-187500.02235174447,-187500.02235174447,-187500.02235174447,-187500.02235174447
talvez,-2249.0101753485415,-12167.328556457587,6026.09736038415,8283.198867225512,-187500.02235174447,-187500.02235174447,-187500.02235174447,-187500.02235174447
talvez,-2245.277434024505,-12177.431544951385,6002.650380450533,8273.073526987258,-187500.02235174447,-187500.02235174447,-187500.02235174447,-187500.02235174447
talvez,-2178.445718103137,-12165.048678523146,6235.533205930377,8260.958881492483,-187500.02235174447,-187500.02235174447,-187500.02235174447,-187500.02235174447
talvez,-2176.1434884242403,-12159.281928453676,6254.66629918412,8263.238759426924,-187500.02235174447,-187500.02235174447,-187500.02235174447,-187500.02235174447
talvez,-2240.1588845442398,-12163.864036067014,6060.7202125454205,8277.432117156044,-187500.02235174447,-187500.02235174447,-187500.02235174447,-187500.02235174447
talvez,-2263.538809244491,-12173.922321071903,5985.864220364598,8279.041442756825,-187500.02235174447,-187500.02235174447,-187500.02235174447,-187500.02235174447
talvez,-2199.43400614667,-12167.93205355788,6196.216487433492,8260.48949485892,-187500.02235174447,-187500.02235174447,-187500.02235174447,-187500.02235174447
talvez,-2182.2231629160838,-12154.699820840338,6273.978206393505,8263.082297215737,-187500.02235174447,-187500.02235174447,-187500.02235174447,-187500.02235174447
talvez,-2237.9013583542537,-12165.74158260126,6101.8697740876405,8279.376718923655,-187500.02235174447,-187500.02235174447,-187500.02235174447,-187500.02235174447
talvez,-2259.8507714093653,-12183.93590258788,5978.354034227614,8275.77808806635,-187500.02235174447,-187500.02235174447,-187500.02235174447,-187500.02235174447
talvez,-2189.4651281196034,-12178.571483918606,6164.253492862403,8255.058020956281,-187500.02235174447,-187500.02235174447,-187500.02235174447,-187500.02235174447
talvez,-2157.479781804059,-12153.604585362029,6295.368825837234,8261.897654759605,-187500.02235174447,-187500.02235174447,-187500.02235174447,-187500.02235174447
talvez,-2224.1997390031506,-12156.420905163397,6131.709352935476,8275.286349688335,-187500.02235174447,-187500.02235174447,-187500.02235174447,-187500.02235174447
talvez,-2255.2239603071166,-12172.2235884933,5980.745670884332,8277.83444855624,-187500.02235174447,-187500.02235174447,-187500.02235174447,-187500.02235174447
talvez,-2192.0579304764187,-12172.40240244894,6116.621925428143,8264.624567583152,-187500.02235174447,-187500.02235174447,-187500.02235174447,-187500.02235174447
talvez,-2135.955051893598,-12166.143914001455,6282.762441964441,8256.265015156867,-187500.02235174447,-187500.02235174447,-187500.02235174447,-187500.02235174447
talvez,-2176.6575785467126,-12176.917454828914,6161.951263183506,8262.344689648711,-187500.02235174447,-187500.02235174447,-187500.02235174447,-187500.02235174447
talvez,-2223.05980003593,-12185.656986910939,5973.2578364918045,8270.905407775093,-187500.02235174447,-187500.02235174447,-187500.02235174447,-187500.02235174447
talvez,-2183.3631018833044,-12175.084611783579,6080.322692432725,8266.904445517594,-187500.02235174447,-187500.02235174447,-187500.02235174447,-187500.02235174447
talvez,-2142.034726385442,-12154.968041773802,6290.8761252017175,8261.405916381587,-187500.02235174447,-187500.02235174447,-187500.02235174447,-187500.02235174447
talvez,-2175.4282326016705,-12159.103114498033,6218.27765921088,8270.033689741336,-187500.02235174447,-187500.02235174447,-187500.02235174447,-187500.02235174447
talvez,-2240.6506229222564,-12170.88248382598,6014.921488156497,8285.12111724867,-187500.02235174447,-187500.02235174447,-187500.02235174447,-187500.02235174447
talvez,-2214.990820287564,-12175.464591439319,6051.153665918549,8276.359233422188,-187500.02235174447,-187500.02235174447,-187500.02235174447,-187500.02235174447
talvez,-2155.1775521251625,-12162.858207566525,6273.933502904595,8265.004547238892,-187500.02235174447,-187500.02235174447,-187500.02235174447,-187500.02235174447
talvez,-2188.8169275303994,-12157.69495459735,6238.684801898576,8266.949149006505,-187500.02235174447,-187500.02235174447,-187500.02235174447,-187500.02235174447
talvez,-2248.496085226069,-12171.664794881915,6040.737753002376,8285.188172482034,-187500.02235174447,-187500.02235174447,-187500.02235174447,-187500.02235174447
talvez,-2223.7080006251335,-12182.9747775763,6015.927316656986,8280.248436957412,-187500.02235174447,-187500.02235174447,-187500.02235174447,-187500.02235174447
talvez,-2138.9725373950646,-12168.468495424808,6260.522456231411,8257.807285524284,-187500.02235174447,-187500.02235174447,-187500.02235174447,-187500.02235174447
talvez,-2134.904519904199,-12160.60068137654,6290.183221123603,8255.482704100932,-187500.02235174447,-187500.02235174447,-187500.02235174447,-187500.02235174447
talvez,-2209.604049873835,-12174.145838516455,6091.6550268715655,8273.11823047617,-187500.02235174447,-187500.02235174447,-187500.02235174447,-187500.02235174447
talvez,-2226.993707060064,-12193.725966659304,6014.385046289569,8271.933588020038,-187500.02235174447,-187500.02235174447,-187500.02235174447,-187500.02235174447
talvez,-2173.2601133895055,-12171.016594292712,6227.173653504093,8250.654727298586,-187500.02235174447,-187500.02235174447,-187500.02235174447,-187500.02235174447
talvez,-2142.28059557445,-12159.594852876051,6322.794416283896,8254.901558745094,-187500.02235174447,-187500.02235174447,-187500.02235174447,-187500.02235174447
talvez,-2166.3534243528156,-12163.618166878006,6143.041687374317,8271.799477553306,-187500.02235174447,-187500.02235174447,-187500.02235174447,-187500.02235174447
talvez,-2216.4660354216144,-12181.946597331358,6002.09158683915,8277.946207278515,-187500.02235174447,-187500.02235174447,-187500.02235174447,-187500.02235174447
talvez,-2183.2513431610278,-12208.545173233173,6158.5537980263,8222.290363584802,-187500.02235174447,-187500.02235174447,-187500.02235174447,-187500.02235174447
talvez,-2106.3613422347717,-12183.310053743131,6353.192788743114,8274.928721777049,-187500.02235174447,-187500.02235174447,-187500.02235174447,-187500.02235174447
talvez,-2133.89869140371,-12151.905852783424,6162.487705050434,8302.667236646084,-187500.02235174447,-187500.02235174447,-187500.02235174447,-187500.02235174447
talvez,-2232.246367007061,-12186.819277622615,5977.32585398267,8248.374849364143,-187500.02235174447,-187500.02235174447,-187500.02235174447,-187500.02235174447
talvez,-2169.728537765567,-12194.575332948605,6196.08237696676,8294.710015619996,-187500.02235174447,-187500.02235174447,-187500.02235174447,-187500.02235174447
talvez,-2114.407970238682,-12176.872751340003,6309.137500421703,8345.068495877802,-187500.02235174447,-187500.02235174447,-187500.02235174447,-187500.02235174447
talvez,-2174.6235698012792,-12164.020498278202,6152.161199112082,8311.40676872811,-187500.02235174447,-187500.02235174447,-187500.02235174447,-187500.02235174447
talvez,-2149.835485200344,-12172.447105937852,6016.329648057181,8288.943265550526,-187500.02235174447,-187500.02235174447,-187500.02235174447,-187500.02235174447
talvez,-2123.6615924431794,-12197.592818450072,6165.460487062989,8271.151276964101,-187500.02235174447,-187500.02235174447,-187500.02235174447,-187500.02235174447
talvez,-2053.0747834533195,-12118.847622734025,6397.426891020166,8312.591411184241,-187500.02235174447,-187500.02235174447,-187500.02235174447,-187500.02235174447
talvez,-2150.6848514896456,-12202.778423163703,6219.574060389288,8188.360415501645,-187500.02235174447,-187500.02235174447,-187500.02235174447,-187500.02235174447
talvez,-2216.734256355078,-12250.968784209346,6037.250880867348,8202.397311019577,-187500.02235174447,-187500.02235174447,-187500.02235174447,-187500.02235174447
talvez,-2219.863500578821,-12271.688851319415,6010.80876717672,8226.917174687049,-187500.02235174447,-187500.02235174447,-187500.02235174447,-187500.02235174447
talvez,-2066.3740714042274,-12154.521006884695,6344.1179804942585,8272.201808953501,-187500.02235174447,-187500.02235174447,-187500.02235174447,-187500.02235174447
talvez,-2058.9532922450653,-12126.380160615465,6319.776930782429,8292.631303385651,-187500.02235174447,-187500.02235174447,-187500.02235174447,-187500.02235174447
talvez,-2232.0452013069635,-12240.083484659612,6073.684224329499,8240.194110893503,-187500.02235174447,-187500.02235174447,-187500.02235174447,-187500.02235174447
talvez,-2119.9735546080537,-12137.600736332028,6235.533205930377,8362.256987363933,-187500.02235174447,-187500.02235174447,-187500.02235174447,-187500.02235174447
talvez,-2060.74143180149,-12185.299358999653,6278.225037840014,8312.747873395429,-187500.02235174447,-187500.02235174447,-187500.02235174447,-187500.02235174447
talvez,-2245.8362276358876,-12334.899584639024,6053.00886070834,8166.925092569005,-187500.02235174447,-187500.02235174447,-187500.02235174447,-187500.02235174447
talvez,-2163.0006626845197,-12221.866812928536,6082.3790529226135,8303.382492468654,-187500.02235174447,-187500.02235174447,-187500.02235174447,-187500.02235174447
talvez,-2129.048362856908,-12231.545118277683,5946.703964078899,8261.271805914856,-187500.02235174447,-187500.02235174447,-187500.02235174447,-187500.02235174447
talvez,-2086.6247518807354,-12187.556885189639,6167.986234186439,8284.227047470456,-187500.02235174447,-187500.02235174447,-187500.02235174447,-187500.02235174447
talvez,-2103.9473538335983,-12205.70650168735,6290.853773457262,8232.996849178893,-187500.02235174447,-187500.02235174447,-187500.02235174447,-187500.02235174447
talvez,-2155.2222556140728,-12283.602331114094,6065.324671903214,8236.997811436393,-187500.02235174447,-187500.02235174447,-187500.02235174447,-187500.02235174447
talvez,-2087.0717867698418,-12240.061132915156,5995.14019431355,8300.767338367385,-187500.02235174447,-187500.02235174447,-187500.02235174447,-187500.02235174447
talvez,-2025.6044895177472,-12189.881466612991,6207.437063150056,8308.523393693375,-187500.02235174447,-187500.02235174447,-187500.02235174447,-187500.02235174447
talvez,-2038.4567425795487,-12184.69586189936,6321.900346505684,8257.673175057553,-187500.02235174447,-187500.02235174447,-187500.02235174447,-187500.02235174447
talvez,-2059.869713767733,-12197.257542283243,6222.815063335307,8364.715679254017,-187500.02235174447,-187500.02235174447,-187500.02235174447,-187500.02235174447
talvez,-2085.797737335889,-12187.087498556079,6069.996186494373,8386.709795798039,-187500.02235174447,-187500.02235174447,-187500.02235174447,-187500.02235174447
talvez,-2043.865864737733,-12167.015632035213,6203.145528214637,8368.962510700525,-187500.02235174447,-187500.02235174447,-187500.02235174447,-187500.02235174447
talvez,-1911.1188544176646,-12135.142044441944,6431.960336203616,8394.28703716839,-187500.02235174447,-187500.02235174447,-187500.02235174447,-187500.02235174447
talvez,-2001.6434194616581,-12138.271288665688,6328.762332053463,8418.136348502201,-187500.02235174447,-187500.02235174447,-187500.02235174447,-187500.02235174447
talvez,-2062.6860335691017,-12154.476303395784,6116.107835305672,8413.174261233124,-187500.02235174447,-187500.02235174447,-187500.02235174447,-187500.02235174447
talvez,-1995.362579269717,-12147.033172492167,6214.388455675657,8447.52889246093,-187500.02235174447,-187500.02235174447,-187500.02235174447,-187500.02235174447
talvez,-1956.5152474063932,-12132.526890340674,6421.03033316497,8463.577444979841,-187500.02235174447,-187500.02235174447,-187500.02235174447,-187500.02235174447
talvez,-1983.449099475038,-12124.793186759138,6351.404649186689,8415.722360101028,-187500.02235174447,-187500.02235174447,-187500.02235174447,-187500.02235174447
talvez,-1999.4305967605826,-12129.554108328119,6180.9949494594275,8468.316014804366,-187500.02235174447,-187500.02235174447,-187500.02235174447,-187500.02235174447
talvez,-2054.035908464898,-12121.216907646289,6188.7957082743305,8486.130355135245,-187500.02235174447,-187500.02235174447,-187500.02235174447,-187500.02235174447
talvez,-1979.9845790844656,-12111.002160430213,6401.003170133015,8460.872883900749,-187500.02235174447,-187500.02235174447,-187500.02235174447,-187500.02235174447
talvez,-2009.198309087552,-12093.612503243983,6405.719388213085,8481.458840544086,-187500.02235174447,-187500.02235174447,-187500.02235174447,-187500.02235174447
talvez,-2084.9483710465875,-12082.168410082866,6233.990935562961,8527.861062033304,-187500.02235174447,-187500.02235174447,-187500.02235174447,-187500.02235174447
talvez,-2103.545022433403,-12083.10718334999,6178.715071524986,8506.425739100665,-187500.02235174447,-187500.02235174447,-187500.02235174447,-187500.02235174447
talvez,-2021.424713304605,-12081.453154260296,6399.773824187973,8467.824276426349,-187500.02235174447,-187500.02235174447,-187500.02235174447,-187500.02235174447
talvez,-1991.808651901323,-12081.699023449306,6457.262510927023,8442.343287747299,-187500.02235174447,-187500.02235174447,-187500.02235174447,-187500.02235174447
talvez,-2054.192370676085,-12090.930293909347,6262.265892298925,8430.76508411945,-187500.02235174447,-187500.02235174447,-187500.02235174447,-187500.02235174447
talvez,-2057.6345393222023,-12087.175200840855,6175.451716834512,8468.092497359812,-187500.02235174447,-187500.02235174447,-187500.02235174447,-187500.02235174447
talvez,-1989.327608266784,-12065.829284886036,6383.457050735599,8491.785346482438,-187500.02235174447,-187500.02235174447,-187500.02235174447,-187500.02235174447
talvez,-2045.4975420829705,-12062.05184007309,6443.56089157592,8423.634877638207,-187500.02235174447,-187500.02235174447,-187500.02235174447,-187500.02235174447
talvez,-2111.2787260149394,-12049.91484283386,6283.611808253742,8409.553278631363,-187500.02235174447,-187500.02235174447,-187500.02235174447,-187500.02235174447
talvez,-2076.700577342579,-12065.426953485841,6200.195097946536,8435.727171388527,-187500.02235174447,-187500.02235174447,-187500.02235174447,-187500.02235174447
talvez,-1984.7678523979012,-12077.407488513887,6440.386943863266,8457.654232699184,-187500.02235174447,-187500.02235174447,-187500.02235174447,-187500.02235174447
talvez,-1993.261515290918,-12041.398828196387,6504.044712071981,8467.891331659715,-187500.02235174447,-187500.02235174447,-187500.02235174447,-187500.02235174447
talvez,-2044.3128996268392,-12033.598069381485,6317.921735992639,8501.374244853765,-187500.02235174447,-187500.02235174447,-187500.02235174447,-187500.02235174447
talvez,-2080.2768564554285,-12040.594165395996,6174.512943567389,8525.201204443121,-187500.02235174447,-187500.02235174447,-187500.02235174447,-187500.02235174447
talvez,-2051.577216574814,-12027.786615823105,6311.640895800698,8480.318901576866,-187500.02235174447,-187500.02235174447,-187500.02235174447,-187500.02235174447
talvez,-1990.6240094451916,-11993.789612506584,6532.453779274676,8494.646369772718,-187500.02235174447,-187500.02235174447,-187500.02235174447,-187500.02235174447
talvez,-2031.6841640095909,-11992.493211328176,6443.382077620277,8505.129337922257,-187500.02235174447,-187500.02235174447,-187500.02235174447,-187500.02235174447
talvez,-2098.024141552942,-12015.627266839418,6237.142531531159,8498.043834929924,-187500.02235174447,-187500.02235174447,-187500.02235174447,-187500.02235174447
talvez,-2062.7754405469227,-12022.71276983175,6298.475718316522,8518.294515406433,-187500.02235174447,-187500.02235174447,-187500.02235174447,-187500.02235174447
talvez,-2004.482091007482,-12011.916877259837,6481.961188550137,8484.453974301097,-187500.02235174447,-187500.02235174447,-187500.02235174447,-187500.02235174447
talvez,-2054.3488328872722,-12002.931475988804,6392.800079917918,8483.403442311697,-187500.02235174447,-187500.02235174447,-187500.02235174447,-187500.02235174447
talvez,-2112.41866498216,-11992.694377028272,6204.79955730433,8508.280933890455,-187500.02235174447,-187500.02235174447,-187500.02235174447,-187500.02235174447
talvez,-2086.580048391825,-11997.790574764083,6219.685819111564,8515.992285727536,-187500.02235174447,-187500.02235174447,-187500.02235174447,-187500.02235174447
talvez,-2032.0417919208758,-11996.538877074585,6450.534635845976,8491.785346482438,-187500.02235174447,-187500.02235174447,-187500.02235174447,-187500.02235174447
talvez,-2056.8522282662666,-11987.486420570187,6444.231443909579,8504.145861166222,-187500.02235174447,-187500.02235174447,-187500.02235174447,-187500.02235174447
talvez,-2103.0979875442968,-11997.298836386066,6246.150284546648,8543.954318041126,-187500.02235174447,-187500.02235174447,-187500.02235174447,-187500.02235174447
talvez,-2112.508071959981,-12019.024731996624,6190.673254808576,8499.899029719714,-187500.02235174447,-187500.02235174447,-187500.02235174447,-187500.02235174447
talvez,-2054.415888120638,-12002.372682377421,6413.117815627792,8454.256767541978,-187500.02235174447,-187500.02235174447,-187500.02235174447,-187500.02235174447
talvez,-2052.5606933308477,-11983.41840307932,6460.727031317596,8457.140142576713,-187500.02235174447,-187500.02235174447,-187500.02235174447,-187500.02235174447
talvez,-2094.3808072067272,-11989.363967104431,6300.196802639581,8513.623000815272,-187500.02235174447,-187500.02235174447,-187500.02235174447,-187500.02235174447
talvez,-2117.313697017872,-12014.532031361108,6176.323434868269,8477.81550619787,-187500.02235174447,-187500.02235174447,-187500.02235174447,-187500.02235174447
talvez,-2047.9115304841437,-11994.057833440047,6374.896332609217,8461.208160067577,-187500.02235174447,-187500.02235174447,-187500.02235174447,-187500.02235174447
talvez,-2072.4984493849815,-11986.815868236527,6443.918519487205,8404.278266939911,-187500.02235174447,-187500.02235174447,-187500.02235174447,-187500.02235174447
talvez,-2103.030932310931,-11970.409687806332,6304.488337575,8488.812564469883,-187500.02235174447,-187500.02235174447,-187500.02235174447,-187500.02235174447
talvez,-2094.581972906825,-11989.90040897136,6210.968638773995,8564.048536306445,-187500.02235174447,-187500.02235174447,-187500.02235174447,-187500.02235174447
talvez,-2085.730682102523,-12017.370702906932,6369.576617428854,8487.58321852484,-187500.02235174447,-187500.02235174447,-187500.02235174447,-187500.02235174447
talvez,-2058.8415335227887,-12014.844955783481,6507.173956295724,8456.58134896533,-187500.02235174447,-187500.02235174447,-187500.02235174447,-187500.02235174447
talvez,-2127.640202956224,-12043.52224391964,6338.932375780628,8482.330558577843,-187500.02235174447,-187500.02235174447,-187500.02235174447,-187500.02235174447
talvez,-2165.57111329688,-12042.784636352615,6169.193228387026,8510.225535658066,-187500.02235174447,-187500.02235174447,-187500.02235174447,-187500.02235174447
talvez,-2083.540211145903,-12000.293970143077,6318.9946197264935,8455.396706509198,-187500.02235174447,-187500.02235174447,-187500.02235174447,-187500.02235174447
talvez,-1990.0875675782643,-11970.521446528608,6504.938781850194,8447.663002927662,-187500.02235174447,-187500.02235174447,-187500.02235174447,-187500.02235174447
talvez,-2027.2361668629846,-11975.930568686792,6444.879644498783,8503.855288488305,-187500.02235174447,-187500.02235174447,-187500.02235174447,-187500.02235174447
talvez,-2169.9520552101203,-12019.672932585829,6180.03382444785,8516.908707250202,-187500.02235174447,-187500.02235174447,-187500.02235174447,-187500.02235174447
talvez,-2128.4672175010705,-12024.880889043914,6283.455346042556,8456.380183265232,-187500.02235174447,-187500.02235174447,-187500.02235174447,-187500.02235174447
talvez,-1992.3003902793398,-11989.967464204725,6659.434039525276,8490.176020881656,-187500.02235174447,-187500.02235174447,-187500.02235174447,-187500.02235174447
talvez,-2012.0816841222866,-11982.636092023384,6553.464419062665,8506.023407700468,-187500.02235174447,-187500.02235174447,-187500.02235174447,-187500.02235174447
talvez,-2128.9142523901764,-11995.555400318552,6234.929708830084,8469.120677604757,-187500.02235174447,-187500.02235174447,-187500.02235174447,-187500.02235174447
talvez,-2195.5895061003575,-12068.265625031665,6195.74710079993,8423.456063682564,-187500.02235174447,-187500.02235174447,-187500.02235174447,-187500.02235174447
talvez,-2104.327333489339,-12075.038203601624,6482.542333905975,8457.67658444364,-187500.02235174447,-187500.02235174447,-187500.02235174447,-187500.02235174447
talvez,-2067.0222719934313,-12029.395941423887,6411.061455137904,8488.276122602954,-187500.02235174447,-187500.02235174447,-187500.02235174447,-187500.02235174447
talvez,-2123.6168889542687,-12030.535880391108,6208.554650372822,8467.600758981796,-187500.02235174447,-187500.02235174447,-187500.02235174447,-187500.02235174447
talvez,-2168.186267398151,-12026.04317975559,6194.27188566588,8445.450180226586,-187500.02235174447,-187500.02235174447,-187500.02235174447,-187500.02235174447
talvez,-2095.5654496628586,-12044.840996842504,6335.244337945502,8423.56782240484,-187500.02235174447,-187500.02235174447,-187500.02235174447,-187500.02235174447
talvez,-2110.2728975144505,-12083.285997305633,6374.248132020013,8385.972188231015,-187500.02235174447,-187500.02235174447,-187500.02235174447,-187500.02235174447
talvez,-2095.118414773752,-12036.548499649585,6368.146105783714,8487.896142947215,-187500.02235174447,-187500.02235174447,-187500.02235174447,-187500.02235174447
talvez,-2163.3582905958046,-12077.474543747252,6130.211786056971,8437.42590396713,-187500.02235174447,-187500.02235174447,-187500.02235174447,-187500.02235174447
talvez,-2135.843293171322,-12112.343265097532,6206.967676516495,8367.55435079984,-187500.02235174447,-187500.02235174447,-187500.02235174447,-187500.02235174447
talvez,-2087.965856548054,-12066.119857563956,6378.919646611172,8389.74963304396,-187500.02235174447,-187500.02235174447,-187500.02235174447,-187500.02235174447
talvez,-2087.340007703305,-12036.459092671765,6355.807942844384,8461.230511812033,-187500.02235174447,-187500.02235174447,-187500.02235174447,-187500.02235174447
talvez,-2148.986118911042,-12082.637796716428,6170.042594676327,8438.655249912174,-187500.02235174447,-187500.02235174447,-187500.02235174447,-187500.02235174447
talvez,-2077.3934814206937,-12081.922540893858,6354.377431199245,8422.76315960445,-187500.02235174447,-187500.02235174447,-187500.02235174447,-187500.02235174447
talvez,-2091.542135660903,-12133.912698496903,6433.547310059943,8349.874120935694,-187500.02235174447,-187500.02235174447,-187500.02235174447,-187500.02235174447
talvez,-2125.5614907218805,-12105.570686527573,6310.1880324111025,8414.940049045092,-187500.02235174447,-187500.02235174447,-187500.02235174447,-187500.02235174447
talvez,-2188.5934100858462,-12110.421015074375,6051.980680463395,8421.556165403863,-187500.02235174447,-187500.02235174447,-187500.02235174447,-187500.02235174447
talvez,-2142.638223485735,-12114.399625587419,6102.830899099219,8408.703912342062,-187500.02235174447,-187500.02235174447,-187500.02235174447,-187500.02235174447
talvez,-2082.6461413676907,-12114.980770943257,6329.522291364943,8367.867275222216,-187500.02235174447,-187500.02235174447,-187500.02235174447,-187500.02235174447
talvez,-2120.3758860082494,-12115.226640132267,6288.618599011731,8379.311368383333,-187500.02235174447,-187500.02235174447,-187500.02235174447,-187500.02235174447
talvez,-2152.85297070181,-12107.269419106176,6127.373114511146,8406.781662318905,-187500.02235174447,-187500.02235174447,-187500.02235174447,-187500.02235174447
talvez,-2135.195092582118,-12093.210171843788,6217.003609776928,8409.061540253346,-187500.02235174447,-187500.02235174447,-187500.02235174447,-187500.02235174447
talvez,-2055.6675858101353,-12074.747630923704,6453.261548669523,8417.398740935176,-187500.02235174447,-187500.02235174447,-187500.02235174447,-187500.02235174447
talvez,-2077.9522750320766,-12107.627047017462,6344.788532827918,8399.316179670832,-187500.02235174447,-187500.02235174447,-187500.02235174447,-187500.02235174447
talvez,-2161.3689853392825,-12127.296582138131,6120.198204540993,8402.512479127941,-187500.02235174447,-187500.02235174447,-187500.02235174447,-187500.02235174447
talvez,-2114.407970238682,-12133.532718841163,6132.134036080127,8407.586325119297,-187500.02235174447,-187500.02235174447,-187500.02235174447,-187500.02235174447
talvez,-2044.2681961379287,-12114.131404653956,6362.602873158798,8383.871124252215,-187500.02235174447,-187500.02235174447,-187500.02235174447,-187500.02235174447
talvez,-2063.0883649692973,-12083.934197894836,6388.575600215865,8397.639798836684,-187500.02235174447,-187500.02235174447,-187500.02235174447,-187500.02235174447
talvez,-2109.51293820297,-12090.706776464795,6202.094996225238,8435.458950455064,-187500.02235174447,-187500.02235174447,-187500.02235174447,-187500.02235174447
talvez,-2123.9074616321877,-12096.920561423369,6131.999925613395,8412.637819366195,-187500.02235174447,-187500.02235174447,-187500.02235174447,-187500.02235174447
talvez,-2054.482943354004,-12078.078040847546,6362.267596991968,8412.257839710455,-187500.02235174447,-187500.02235174447,-187500.02235174447,-187500.02235174447
talvez,-2042.5247600704147,-12088.493953763718,6425.075998911381,8417.62225837973,-187500.02235174447,-187500.02235174447,-187500.02235174447,-187500.02235174447
talvez,-2111.770464392956,-12117.148890155422,6229.162958760615,8415.029456022914,-187500.02235174447,-187500.02235174447,-187500.02235174447,-187500.02235174447
talvez,-2114.899708616699,-12109.571648785073,6143.734591452431,8440.219872024045,-187500.02235174447,-187500.02235174447,-187500.02235174447,-187500.02235174447
talvez,-2060.0708794678308,-12096.384119556442,6311.931468478617,8403.786528561894,-187500.02235174447,-187500.02235174447,-187500.02235174447,-187500.02235174447
talvez,-2040.3566408582499,-12078.458020503285,6432.183853648169,8388.587342332285,-187500.02235174447,-187500.02235174447,-187500.02235174447,-187500.02235174447
talvez,-2096.504222929981,-12074.568816968062,6286.67399724412,8416.728188601517,-187500.02235174447,-187500.02235174447,-187500.02235174447,-187500.02235174447
talvez,-2158.373851582271,-12129.084721694557,6099.098157775183,8401.081967482802,-187500.02235174447,-187500.02235174447,-187500.02235174447,-187500.02235174447
talvez,-2052.6501003086687,-12080.53673273763,6310.545660322387,8439.549319690386,-187500.02235174447,-187500.02235174447,-187500.02235174447,-187500.02235174447
talvez,-2026.5879662737807,-12069.2491017877,6445.304327643434,8420.215060736546,-187500.02235174447,-187500.02235174447,-187500.02235174447,-187500.02235174447
talvez,-2117.8054353958887,-12121.01574194619,6272.6818052150975,8376.316234626322,-187500.02235174447,-187500.02235174447,-187500.02235174447,-187500.02235174447
talvez,-2139.5983862398134,-12134.963230486303,6114.4314544715235,8408.413339664143,-187500.02235174447,-187500.02235174447,-187500.02235174447,-187500.02235174447
talvez,-2076.544115131392,-12103.380215570953,6243.04339206736,8419.969191547536,-187500.02235174447,-187500.02235174447,-187500.02235174447,-187500.02235174447
talvez,-2023.324611583306,-12085.141192095423,6493.494688689076,8427.613488151252,-187500.02235174447,-187500.02235174447,-187500.02235174447,-187500.02235174447
talvez,-2067.290492926895,-12108.789337729137,6399.930286399161,8438.632898167718,-187500.02235174447,-187500.02235174447,-187500.02235174447,-187500.02235174447
talvez,-2136.6926594606234,-12105.660093505394,6181.553743070811,8446.254843026978,-187500.02235174447,-187500.02235174447,-187500.02235174447,-187500.02235174447
talvez,-2102.94152533311,-12112.052692419613,6218.724694099987,8410.670865854128,-187500.02235174447,-187500.02235174447,-187500.02235174447,-187500.02235174447
talvez,-2038.54614955737,-12083.733032194737,6440.61046130782,8406.155813474157,-187500.02235174447,-187500.02235174447,-187500.02235174447,-187500.02235174447
talvez,-2086.580048391825,-12076.178142568844,6380.8642483787835,8401.32783667181,-187500.02235174447,-187500.02235174447,-187500.02235174447,-187500.02235174447
talvez,-2162.3748138397714,-12109.21402087379,6162.353594583702,8379.825458505806,-187500.02235174447,-187500.02235174447,-187500.02235174447,-187500.02235174447
talvez,-2135.284499559939,-12116.478337821763,6163.247664361914,8396.030473235902,-187500.02235174447,-187500.02235174447,-187500.02235174447,-187500.02235174447
talvez,-2059.5567893453585,-12105.056596405102,6458.044821982959,8395.829307535805,-187500.02235174447,-187500.02235174447,-187500.02235174447,-187500.02235174447
talvez,-2037.0038791899538,-12064.666994174362,6516.092302333392,8432.91085158716,-187500.02235174447,-187500.02235174447,-187500.02235174447,-187500.02235174447
talvez,-2147.5556072659024,-12108.141137139934,6182.5819233157545,8392.387138889688,-187500.02235174447,-187500.02235174447,-187500.02235174447,-187500.02235174447
talvez,-2159.4914388050365,-12114.35492209851,6112.933887593018,8397.2821709254,-187500.02235174447,-187500.02235174447,-187500.02235174447,-187500.02235174447
talvez,-2083.0484727678863,-12113.237334875743,6352.321070709357,8396.902191269659,-187500.02235174447,-187500.02235174447,-187500.02235174447,-187500.02235174447
talvez,-2080.8803535557217,-12089.857410175493,6423.533728543965,8380.965397473026,-187500.02235174447,-187500.02235174447,-187500.02235174447,-187500.02235174447
talvez,-2115.4585022280817,-12077.899226891903,6262.6458719546645,8399.964380260037,-187500.02235174447,-187500.02235174447,-187500.02235174447,-187500.02235174447
talvez,-2150.9530724231095,-12108.565820284584,6113.6044399266775,8384.474621352509,-187500.02235174447,-187500.02235174447,-187500.02235174447,-187500.02235174447
talvez,-2088.0105600369648,-12099.088680635534,6332.696239077597,8394.219981935023,-187500.02235174447,-187500.02235174447,-187500.02235174447,-187500.02235174447
talvez,-2059.288568411895,-12076.24519780221,6460.235292939579,8401.439595394088,-187500.02235174447,-187500.02235174447,-187500.02235174447,-187500.02235174447
talvez,-2132.7811041809446,-12105.68244524985,6297.693407260586,8399.85262153776,-187500.02235174447,-187500.02235174447,-187500.02235174447,-187500.02235174447
talvez,-2138.5925577393245,-12089.276264819655,6172.970673199973,8432.2402992535,-187500.02235174447,-187500.02235174447,-187500.02235174447,-187500.02235174447
talvez,-2102.338028232816,-12113.68436976485,6263.986976621983,8391.068385966824,-187500.02235174447,-187500.02235174447,-187500.02235174447,-187500.02235174447
talvez,-2073.4372226521045,-12091.377328798453,6440.453999096632,8380.875990495204,-187500.02235174447,-187500.02235174447,-187500.02235174447,-187500.02235174447
talvez,-2121.2029005530953,-12078.256854803189,6317.228831914525,8389.66022606614,-187500.02235174447,-187500.02235174447,-187500.02235174447,-187500.02235174447
talvez,-2177.1716686691843,-12099.468660291275,6107.9718003239395,8391.604827833751,-187500.02235174447,-187500.02235174447,-187500.02235174447,-187500.02235174447
talvez,-2147.7120694770897,-12113.594962787029,6203.011417747905,8372.382327602189,-187500.02235174447,-187500.02235174447,-187500.02235174447,-187500.02235174447
talvez,-2085.350702446783,-12094.037186388636,6434.530786815976,8372.98582470248,-187500.02235174447,-187500.02235174447,-187500.02235174447,-187500.02235174447
$SILENCE,-2098.359417719772,-12080.760250182182,6397.3598357868,8401.216077949533,-187500.02235174447,-187500.02235174447,-187500.02235174447,-187500.02235174447
$SILENCE,-2164.900560963221,-12094.797145700115,6153.256434590392,8410.939086787592,-187500.02235174447,-187500.02235174447,-187500.02235174447,-187500.02235174447
$SILENCE,-2140.514807762481,-12107.06825340608,6160.699565494009,8392.498897611964,-187500.02235174447,-187500.02235174447,-187500.02235174447,-187500.02235174447
$SILENCE,-2081.416795422649,-12089.745651453215,6404.378283545767,8374.796316003361,-187500.02235174447,-187500.02235174447,-187500.02235174447,-187500.02235174447
$SILENCE,-2109.6694004141573,-12077.809819914082,6387.88269613775,8380.116031183725,-187500.02235174447,-187500.02235174447,-187500.02235174447,-187500.02235174447
$SILENCE,-2166.3087208639054,-12090.259741575688,6182.22429540447,8396.902191269659,-187500.02235174447,-187500.02235174447,-187500.02235174447,-187500.02235174447
$SILENCE,-2167.38160459776,-12109.817517974081,6142.21467282947,8389.503763854953,-187500.02235174447,-187500.02235174447,-187500.02235174447,-187500.02235174447
$SILENCE,-2088.41289143716,-12091.086756120534,6387.323902526367,8372.695252024561,-187500.02235174447,-187500.02235174447,-187500.02235174447,-187500.02235174447
$SILENCE,-2096.0348362964196,-12080.24616005971,6424.092522155348,8376.070365437314,-187500.02235174447,-187500.02235174447,-187500.02235174447,-187500.02235174447
$SILENCE,-2166.867514475288,-12083.218942072266,6226.011362792417,8394.28703716839,-187500.02235174447,-187500.02235174447,-187500.02235174447,-187500.02235174447
$SILENCE,-2186.693511807145,-12100.899171936415,6121.807530141775,8403.004217505959,-187500.02235174447,-187500.02235174447,-187500.02235174447,-187500.02235174447
$SILENCE,-2119.8841476302323,-12103.134346381945,6331.042209987904,8369.878932223193,-187500.02235174447,-187500.02235174447,-187500.02235174447,-187500.02235174447
$SILENCE,-2099.119377031252,-12088.87393341946,6426.819434978895,8377.65733929364,-187500.02235174447,-187500.02235174447,-187500.02235174447,-187500.02235174447
$SILENCE,-2149.0755258888635,-12086.683462462839,6255.202741051047,8405.686426840595,-187500.02235174447,-187500.02235174447,-187500.02235174447,-187500.02235174447
$SILENCE,-2189.3310176528717,-12100.653302747405,6106.585992167711,8413.755406588962,-187500.02235174447,-187500.02235174447,-187500.02235174447,-187500.02235174447
$SILENCE,-2148.315566577383,-12094.864200933482,6272.815915681829,8367.263778121922,-187500.02235174447,-187500.02235174447,-187500.02235174447,-187500.02235174447
$SILENCE,-2102.1592142771738,-12079.82147691506,6421.164443631702,8356.825513461294,-187500.02235174447,-187500.02235174447,-187500.02235174447,-187500.02235174447
$SILENCE,-2129.4283425126487,-12080.179104826344,6286.986921666494,8387.067423709324,-187500.02235174447,-187500.02235174447,-187500.02235174447,-187500.02235174447
$SILENCE,-2185.933552495665,-12094.618331744472,6110.229326513926,8400.411415149143,-187500.02235174447,-187500.02235174447,-187500.02235174447,-187500.02235174447
$SILENCE,-2140.0007176400086,-12095.422994544864,6252.766400905419,8386.173353931112,-187500.02235174447,-187500.02235174447,-187500.02235174447,-187500.02235174447
$SILENCE,-2103.969705578054,-12079.732069937238,6439.381115362778,8382.530019584898,-187500.02235174447,-187500.02235174447,-187500.02235174447,-187500.02235174447
$SILENCE,-2161.637206272746,-12077.921578636358,6328.203538442081,8395.829307535805,-187500.02235174447,-187500.02235174447,-187500.02235174447,-187500.02235174447
$SILENCE,-2202.406788159226,-12090.595017742518,6124.512091220867,8408.838022808794,-187500.02235174447,-187500.02235174447,-187500.02235174447,-187500.02235174447
$SILENCE,-2169.8179447433886,-12104.698968493816,6201.5138508694,8384.362862630232,-187500.02235174447,-187500.02235174447,-187500.02235174447,-187500.02235174447
$SILENCE,-2112.9327551046317,-12085.007081628692,6420.8962226982385,8365.855618221238,-187500.02235174447,-187500.02235174447,-187500.02235174447,-187500.02235174447
$SILENCE,-2116.7772551509447,-12070.456095988286,6371.655329663197,8404.94881927357,-187500.02235174447,-187500.02235174447,-187500.02235174447,-187500.02235174447
$SILENCE,-2180.3232646373826,-12074.211189056778,6161.5042282944005,8437.738828389505,-187500.02235174447,-187500.02235174447,-187500.02235174447,-187500.02235174447
$SILENCE,-2153.0764881463633,-12084.91767465087,6181.687853537543,8414.694179856084,-187500.02235174447,-187500.02235174447,-187500.02235174447,-187500.02235174447
$SILENCE,-2089.3963681931937,-12072.154828566889,6411.21791734909,8390.04020572188,-187500.02235174447,-187500.02235174447,-187500.02235174447,-187500.02235174447
$SILENCE,-2114.4303219831377,-12059.906072605381,6398.186850331646,8387.626217320707,-187500.02235174447,-187500.02235174447,-187500.02235174447,-187500.02235174447
$SILENCE,-2193.9131252662096,-12069.025584343146,6179.944417470028,8398.80208954836,-187500.02235174447,-187500.02235174447,-187500.02235174447,-187500.02235174447
$SILENCE,-2181.507907093514,-12082.593093227517,6135.598556470699,8400.187897704589,-187500.02235174447,-187500.02235174447,-187500.02235174447,-187500.02235174447
$SILENCE,-2102.98622882202,-12066.835113386525,6393.135356084747,8398.399758148165,-187500.02235174447,-187500.02235174447,-187500.02235174447,-187500.02235174447
$SILENCE,-2103.0979875442968,-12050.071305045047,6444.566720076409,8413.554240888863,-187500.02235174447,-187500.02235174447,-187500.02235174447,-187500.02235174447
$SILENCE,-2174.958845968109,-12058.81083712707,6234.28150824088,8427.457025940064,-187500.02235174447,-187500.02235174447,-187500.02235174447,-187500.02235174447
$SILENCE,-2189.643942075246,-12065.404601741386,6131.329373279736,8434.609584165762,-187500.02235174447,-187500.02235174447,-187500.02235174447,-187500.02235174447
$SILENCE,-2135.843293171322,-12063.258834273676,6344.185035727624,8409.977961776014,-187500.02235174447,-187500.02235174447,-187500.02235174447,-187500.02235174447
$SILENCE,-2117.291345273417,-12059.816665627559,6434.195510649146,8415.007104278458,-187500.02235174447,-187500.02235174447,-187500.02235174447,-187500.02235174447
$SILENCE,-2155.9822149255533,-12046.852653843482,6265.19397082257,8457.318956532354,-187500.02235174447,-187500.02235174447,-187500.02235174447,-187500.02235174447
$SILENCE,-2173.081299433863,-12047.232633499221,6124.6462016875985,8484.744546979016,-187500.02235174447,-187500.02235174447,-187500.02235174447,-187500.02235174447
$SILENCE,-2118.0960080738078,-12049.803084111581,6303.035474185404,8444.667869170651,-187500.02235174447,-187500.02235174447,-187500.02235174447,-187500.02235174447
$SILENCE,-2109.870566114255,-12050.853616100982,6426.327696600878,8400.925505271614,-187500.02235174447,-187500.02235174447,-187500.02235174447,-187500.02235174447
$SILENCE,-2127.1931680671178,-12041.28706947411,6306.120014920237,8441.873901113737,-187500.02235174447,-187500.02235174447,-187500.02235174447,-187500.02235174447
$SILENCE,-2194.516622366503,-12055.122799291945,6114.833785871719,8448.490017472508,-187500.02235174447,-187500.02235174447,-187500.02235174447,-187500.02235174447
$SILENCE,-2153.858799202299,-12064.711697663271,6248.005479336439,8432.128540531223,-187500.02235174447,-187500.02235174447,-187500.02235174447,-187500.02235174447
$SILENCE,-2074.331292430317,-12055.681592903327,6445.930176488183,8415.074159511823,-187500.02235174447,-187500.02235174447,-187500.02235174447,-187500.02235174447
$SILENCE,-2131.1047233467966,-12055.368668480955,6327.9129657641615,8417.175223490623,-187500.02235174447,-187500.02235174447,-187500.02235174447,-187500.02235174447
$SILENCE,-2192.795538043444,-12057.603842926485,6120.846405130196,8450.076991328835,-187500.02235174447,-187500.02235174447,-187500.02235174447,-187500.02235174447
$SILENCE,-2135.485665260037,-12054.00521206918,6216.46716791,8451.1945785516,-187500.02235174447,-187500.02235174447,-187500.02235174447,-187500.02235174447
$SILENCE,-2100.639295654213,-12054.206377769278,6428.026429179482,8421.086778770301,-187500.02235174447,-187500.02235174447,-187500.02235174447,-187500.02235174447
$SILENCE,-2141.095953118319,-12055.838055114515,6355.8526463332955,8428.842834096293,-187500.02235174447,-187500.02235174447,-187500.02235174447,-187500.02235174447
$SILENCE,-2200.797462558444,-12065.404601741386,6138.88426290563,8438.655249912174,-187500.02235174447,-187500.02235174447,-187500.02235174447,-187500.02235174447
$SILENCE,-2164.9452644521316,-12063.616462184962,6156.497437536412,8436.174206277634,-187500.02235174447,-187500.02235174447,-187500.02235174447,-187500.02235174447
$SILENCE,-2093.88906882871,-12056.843883615004,6398.365664287289,8421.109130514757,-187500.02235174447,-187500.02235174447,-187500.02235174447,-187500.02235174447
$SILENCE,-2105.243755012006,-12056.396848725897,6388.955579871605,8429.982773063513,-187500.02235174447,-187500.02235174447,-187500.02235174447,-187500.02235174447
$SILENCE,-2163.447697573626,-12060.420162727853,6174.557647056299,8440.599851679784,-187500.02235174447,-187500.02235174447,-187500.02235174447,-187500.02235174447
$SILENCE,-2171.5166773219917,-12077.67570944735,6121.9416406085065,8427.032342795414,-187500.02235174447,-187500.02235174447,-187500.02235174447,-187500.02235174447
$SILENCE,-2097.3088857303724,-12070.411392499374,6367.632015661242,8410.983790276503,-187500.02235174447,-187500.02235174447,-187500.02235174447,-187500.02235174447
$SILENCE,-2095.5878014073137,-12066.76805815316,6419.443359308643,8420.796206092382,-187500.02235174447,-187500.02235174447,-187500.02235174447,-187500.02235174447
$SILENCE,-2149.0978776333186,-12077.2510263027,6214.544917886844,8437.135331289212,-187500.02235174447,-187500.02235174447,-187500.02235174447,-187500.02235174447
$SILENCE,-2172.723671522578,-12094.77479395566,6099.6345996421105,8439.48226445702,-187500.02235174447,-187500.02235174447,-187500.02235174447,-187500.02235174447
$SILENCE,-2102.4944904440035,-12085.67763396235,6316.066541202848,8410.492051898485,-187500.02235174447,-187500.02235174447,-187500.02235174447,-187500.02235174447
$SILENCE,-2072.1855249626074,-12062.208302284278,6411.396731304733,8408.90507804216,-187500.02235174447,-187500.02235174447,-187500.02235174447,-187500.02235174447
$SILENCE,-2133.0940286033187,-12070.38904075492,6234.952060574539,8436.353020233277,-187500.02235174447,-187500.02235174447,-187500.02235174447,-187500.02235174447
$SILENCE,-2180.502078593025,-12076.222846057755,6087.922285547529,8443.460874970064,-187500.02235174447,-187500.02235174447,-187500.02235174447,-187500.02235174447
$SILENCE,-2125.740304677523,-12066.43278198633,6279.230866340503,8428.887537585204,-187500.02235174447,-187500.02235174447,-187500.02235174447,-187500.02235174447
$SILENCE,-2089.1504990041853,-12059.079058060535,6435.961298461116,8430.38510446371,-187500.02235174447,-187500.02235174447,-187500.02235174447,-187500.02235174447
$SILENCE,-2145.968633409576,-12070.098468077002,6284.81880245433,8442.276232513932,-187500.02235174447,-187500.02235174447,-187500.02235174447,-187500.02235174447
$SILENCE,-2191.633247331768,-12085.811744429082,6090.15745999306,8466.639633970217,-187500.02235174447,-187500.02235174447,-187500.02235174447,-187500.02235174447
$SILENCE,-2142.8393891858327,-12090.751479953704,6213.8073103198185,8419.164528747146,-187500.02235174447,-187500.02235174447,-187500.02235174447,-187500.02235174447
$SILENCE,-2080.5897808778027,-12062.744744151205,6416.314115084901,8393.214153434534,-187500.02235174447,-187500.02235174447,-187500.02235174447,-187500.02235174447
$SILENCE,-2123.9745168655536,-12062.700040662294,6311.506785333966,8409.195650720078,-187500.02235174447,-187500.02235174447,-187500.02235174447,-187500.02235174447
$SILENCE,-2196.081244478374,-12082.727203694249,6097.041797285295,8432.888499842704,-187500.02235174447,-187500.02235174447,-187500.02235174447,-187500.02235174447
$SILENCE,-2162.5312760509582,-12082.213113571777,6179.720900025475,8415.454139167565,-187500.02235174447,-187500.02235174447,-187500.02235174447,-187500.02235174447
$SILENCE,-2071.671434840135,-12064.108200562978,6440.185778163169,8400.32200817132,-187500.02235174447,-187500.02235174447,-187500.02235174447,-187500.02235174447
$SILENCE,-2098.3370659753164,-12063.035316829124,6377.198562288113,8404.300618684367,-187500.02235174447,-187500.02235174447,-187500.02235174447,-187500.02235174447
$SILENCE,-2159.7149562495897,-12087.286959563133,6130.368248268158,8408.636857108695,-187500.02235174447,-187500.02235174447,-187500.02235174447,-187500.02235174447
$SILENCE,-2141.5653397518804,-12105.280113849654,6131.9775738689395,8405.261743695944,-187500.02235174447,-187500.02235174447,-187500.02235174447,-187500.02235174447
$SILENCE,-2087.764690847956,-12076.736936180227,6364.882751093239,8397.483336625497,-187500.02235174447,-187500.02235174447,-187500.02235174447,-187500.02235174447
$SILENCE,-2109.6917521586124,-12057.603842926485,6385.133431569748,8408.90507804216,-187500.02235174447,-187500.02235174447,-187500.02235174447,-187500.02235174447
$SILENCE,-2166.7557557530113,-12075.351128023998,6176.949283713017,8413.576592633319,-187500.02235174447,-187500.02235174447,-187500.02235174447,-187500.02235174447
$SILENCE,-2156.1386771367406,-12093.009006143691,6126.233175543925,8393.437670879088,-187500.02235174447,-187500.02235174447,-187500.02235174447,-187500.02235174447
$SILENCE,-2088.3011327148834,-12098.82045970207,6336.339573423812,8380.920693984115,-187500.02235174447,-187500.02235174447,-187500.02235174447,-187500.02235174447
$SILENCE,-2083.830783823822,-12082.995424627714,6394.029425862959,8388.788508032383,-187500.02235174447,-187500.02235174447,-187500.02235174447,-187500.02235174447
$SILENCE,-2152.5847497683467,-12076.58047396904,6196.618818833687,8411.922563543625,-187500.02235174447,-187500.02235174447,-187500.02235174447,-187500.02235174447
$SILENCE,-2183.8771920057766,-12090.885590420437,6102.406215954568,8403.272438439422,-187500.02235174447,-187500.02235174447,-187500.02235174447,-187500.02235174447
$SILENCE,-2106.026066067942,-12088.002215385703,6318.68169530412,8380.652473050652,-187500.02235174447,-187500.02235174447,-187500.02235174447,-187500.02235174447
$SILENCE,-2076.968798276043,-12078.43566875883,6422.1255686432805,8383.89347599667,-187500.02235174447,-187500.02235174447,-187500.02235174447,-187500.02235174447
$SILENCE,-2141.051249629408,-12083.867142661471,6248.251348525447,8408.458043153054,-187500.02235174447,-187500.02235174447,-187500.02235174447,-187500.02235174447
$SILENCE,-2166.487534819548,-12093.657206732894,6099.25461998637,8421.846738081782,-187500.02235174447,-187500.02235174447,-187500.02235174447,-187500.02235174447
$SILENCE,-2117.336048762327,-12089.991520642225,6284.438822798589,8404.278266939911,-187500.02235174447,-187500.02235174447,-187500.02235174447,-187500.02235174447
$SILENCE,-2083.8754873127327,-12074.85938964598,6427.9370222016605,8386.352167886755,-187500.02235174447,-187500.02235174447,-187500.02235174447,-187500.02235174447
$SILENCE,-2136.200921082607,-12081.184933326833,6288.14921237817,8389.704929555051,-187500.02235174447,-187500.02235174447,-187500.02235174447,-187500.02235174447
$SILENCE,-2192.8178897878993,-12095.311235822588,6094.381939695113,8392.722415056518,-187500.02235174447,-187500.02235174447,-187500.02235174447,-187500.02235174447
$SILENCE,-2130.9482611356093,-12103.827250460059,6217.338885943757,8372.315272368822,-187500.02235174447,-187500.02235174447,-187500.02235174447,-187500.02235174447
$SILENCE,-2062.1495917021743,-12087.622235729961,6423.310211099411,8372.650548535652,-187500.02235174447,-187500.02235174447,-187500.02235174447,-187500.02235174447
$SILENCE,-2107.858909113277,-12084.649453717406,6352.231663731535,8390.174316188612,-187500.02235174447,-187500.02235174447,-187500.02235174447,-187500.02235174447
$SILENCE,-2176.992854713542,-12100.295674836121,6125.026181343339,8389.74963304396,-187500.02235174447,-187500.02235174447,-187500.02235174447,-187500.02235174447
$SILENCE,-2146.4603717875925,-12102.754366726205,6172.434231333045,8373.343452613766,-187500.02235174447,-187500.02235174447,-187500.02235174447,-187500.02235174447
$SILENCE,-2084.2107634795625,-12090.192686342321,6393.984722374049,8365.252121120944,-187500.02235174447,-187500.02235174447,-187500.02235174447,-187500.02235174447
$SILENCE,-2114.9220603611543,-12088.493953763718,6344.386201427723,8367.219074633012,-187500.02235174447,-187500.02235174447,-187500.02235174447,-187500.02235174447
$SILENCE,-2183.340750138849,-12096.562933512085,6133.005754113884,8371.80118224635,-187500.02235174447,-187500.02235174447,-187500.02235174447,-187500.02235174447
$SILENCE,-2163.894732462732,-12109.21402087379,6133.452789002989,8360.580606529786,-187500.02235174447,-187500.02235174447,-187500.02235174447,-187500.02235174447
$SILENCE,-2088.5246501594365,-12098.77575621316,6394.901143896716,8346.677821478585,-187500.02235174447,-187500.02235174447,-187500.02235174447,-187500.02235174447
$SILENCE,-2115.5255574614475,-12092.33845381003,6374.78457388694,8346.36489705621,-187500.02235174447,-187500.02235174447,-187500.02235174447,-187500.02235174447
$SILENCE,-2174.9141424791983,-12106.956494683802,6152.831751445741,8359.12774314019,-187500.02235174447,-187500.02235174447,-187500.02235174447,-187500.02235174447
$SILENCE,-2188.638113574757,-12120.479300079263,6094.806622839764,8357.563121028319,-187500.02235174447,-187500.02235174447,-187500.02235174447,-187500.02235174447
$SILENCE,-2097.8900310862105,-12109.772814485172,6366.268559249468,8354.724449482495,-187500.02235174447,-187500.02235174447,-187500.02235174447,-187500.02235174447
$SILENCE,-2111.3681329927604,-12080.715546693273,6408.826280692373,8335.524300995387,-187500.02235174447,-187500.02235174447,-187500.02235174447,-187500.02235174447
$SILENCE,-2200.6857038361672,-12092.897247421413,6179.117402925182,8344.085019121769,-187500.02235174447,-187500.02235174447,-187500.02235174447,-187500.02235174447
$SILENCE,-2207.9947242730527,-12115.137233154444,6094.963085050951,8354.36682157121,-187500.02235174447,-187500.02235174447,-187500.02235174447,-187500.02235174447
$SILENCE,-2141.7218019630673,-12112.656189519905,6291.5243257909215,8334.250251561434,-187500.02235174447,-187500.02235174447,-187500.02235174447,-187500.02235174447
$SILENCE,-2111.166967292663,-12097.635817245939,6417.319943585389,8326.673010191085,-187500.02235174447,-187500.02235174447,-187500.02235174447,-187500.02235174447
$SILENCE,-2157.368023081782,-12106.01772141668,6244.362144990224,8343.392115043654,-187500.02235174447,-187500.02235174447,-187500.02235174447,-187500.02235174447
$SILENCE,-2203.7478928265446,-12121.261611135198,6062.82127652422,8331.344524782244,-187500.02235174447,-187500.02235174447,-187500.02235174447,-187500.02235174447
$SILENCE,-2153.9035026912097,-12112.656189519905,6238.237767009469,8317.151167053124,-187500.02235174447,-187500.02235174447,-187500.02235174447,-187500.02235174447
$SILENCE,-2119.7947406524113,-12096.920561423369,6412.134338871759,8318.156995553612,-187500.02235174447,-187500.02235174447,-187500.02235174447,-187500.02235174447
$SILENCE,-2172.768375011489,-12100.87682019196,6278.582665751299,8334.205548072523,-187500.02235174447,-187500.02235174447,-187500.02235174447,-187500.02235174447
$SILENCE,-2224.2220907476058,-12118.758215756205,6075.1594394635495,8337.93828939656,-187500.02235174447,-187500.02235174447,-187500.02235174447,-187500.02235174447
$SILENCE,-2175.0706046903856,-12123.385026858454,6194.204830432514,8319.296934520833,-187500.02235174447,-187500.02235174447,-187500.02235174447,-187500.02235174447
$SILENCE,-2112.284554515428,-12106.73297723925,6410.189737104147,8310.959733839003,-187500.02235174447,-187500.02235174447,-187500.02235174447,-187500.02235174447
$SILENCE,-2160.3631568387937,-12095.1547736114,6308.221078899036,8320.928611866071,-187500.02235174447,-187500.02235174447,-187500.02235174447,-187500.02235174447
$SILENCE,-2217.181291244184,-12109.705759251805,6100.551021164778,8331.344524782244,-187500.02235174447,-187500.02235174447,-187500.02235174447,-187500.02235174447
$SILENCE,-2181.6643693047013,-12127.721265282782,6169.260283620391,8326.65065844663,-187500.02235174447,-187500.02235174447,-187500.02235174447,-187500.02235174447
$SILENCE,-2118.677153429646,-12115.427805832363,6403.55126900092,8324.50489097892,-187500.02235174447,-187500.02235174447,-187500.02235174447,-187500.02235174447
$SILENCE,-2151.5565695234027,-12104.721320238272,6343.045096760404,8310.624457672175,-187500.02235174447,-187500.02235174447,-187500.02235174447,-187500.02235174447
$SILENCE,-2199.724578824589,-12121.820404746582,6133.944527381007,8316.950001353027,-187500.02235174447,-187500.02235174447,-187500.02235174447,-187500.02235174447
$SILENCE,-2173.95301746762,-12137.131349698468,6138.303117549792,8316.726483908473,-187500.02235174447,-187500.02235174447,-187500.02235174447,-187500.02235174447
$SILENCE,-2124.287441287928,-12119.026436689668,6357.1490475117025,8302.197850012524,-187500.02235174447,-187500.02235174447,-187500.02235174447,-187500.02235174447
$SILENCE,-2164.8111539853994,-12104.095471393523,6346.353154939789,8296.92283832107,-187500.02235174447,-187500.02235174447,-187500.02235174447,-187500.02235174447
$SILENCE,-2215.9742970435973,-12120.479300079263,6160.788972471831,8311.518527450387,-187500.02235174447,-187500.02235174447,-187500.02235174447,-187500.02235174447
$SILENCE,-2214.7449510985557,-12133.219794418788,6101.556849665267,8315.45243447452,-187500.02235174447,-187500.02235174447,-187500.02235174447,-187500.02235174447
$SILENCE,-2146.0133368984866,-12119.54052681214,6323.375561639734,8295.380567953654,-187500.02235174447,-187500.02235174447,-187500.02235174447,-187500.02235174447
$SILENCE,-2135.7538861935004,-12106.889439450437,6393.962370629593,8296.967541809981,-187500.02235174447,-187500.02235174447,-187500.02235174447,-187500.02235174447
$SILENCE,-2196.438872389659,-12115.293695365632,6207.7052840835195,8308.255172759911,-187500.02235174447,-187500.02235174447,-187500.02235174447,-187500.02235174447
$SILENCE,-2224.825587847899,-12128.995314716734,6086.737643091398,8315.765358896895,-187500.02235174447,-187500.02235174447,-187500.02235174447,-187500.02235174447
$SILENCE,-2161.1231161502737,-12124.569669314584,6292.351340335767,8306.265867503389,-187500.02235174447,-187500.02235174447,-187500.02235174447,-187500.02235174447
$SILENCE,-2114.475025472048,-12118.244125633732,6417.141129629747,8318.045236831336,-187500.02235174447,-187500.02235174447,-187500.02235174447,-187500.02235174447
$SILENCE,-2182.089052449352,-12123.340323369543,6241.054086810838,8308.612800671197,-187500.02235174447,-187500.02235174447,-187500.02235174447,-187500.02235174447
$SILENCE,-2254.3298905289043,-12126.268401893187,6075.181791208004,8293.324207463767,-187500.02235174447,-187500.02235174447,-187500.02235174447,-187500.02235174447
$SILENCE,-2192.4155583877036,-12122.043922191135,6227.933612815573,8285.903428304604,-187500.02235174447,-187500.02235174447,-187500.02235174447,-187500.02235174447
$SILENCE,-2135.508017004492,-12113.952590698313,6409.586240003853,8288.250361472412,-187500.02235174447,-187500.02235174447,-187500.02235174447,-187500.02235174447
$SILENCE,-2183.8101367724107,-12117.685332022349,6283.142421620181,8307.562268681797,-187500.02235174447,-187500.02235174447,-187500.02235174447,-187500.02235174447
$SILENCE,-2233.542768185469,-12139.366524143998,6089.822183826231,8318.581678698263,-187500.02235174447,-187500.02235174447,-187500.02235174447,-187500.02235174447
$SILENCE,-2186.7158635516007,-12132.54924208513,6202.251458436425,8307.11523379269,-187500.02235174447,-187500.02235174447,-187500.02235174447,-187500.02235174447
$SILENCE,-2145.2980810759163,-12110.53277379665,6404.288876567945,8290.329073706755,-187500.02235174447,-187500.02235174447,-187500.02235174447,-187500.02235174447
$SILENCE,-2189.2639624195053,-12114.287866865143,6310.992695211494,8297.101652276713,-187500.02235174447,-187500.02235174447,-187500.02235174447,-187500.02235174447
$SILENCE,-2251.6253294498124,-12127.073064693579,6094.15842225056,8303.069568046281,-187500.02235174447,-187500.02235174447,-187500.02235174447,-187500.02235174447
$SILENCE,-2211.861576063821,-12127.87772749397,6164.186437629037,8312.412597228598,-187500.02235174447,-187500.02235174447,-187500.02235174447,-187500.02235174447
$SILENCE,-2137.474970516559,-12120.099320423524,6399.617361976786,8290.396128940121,-187500.02235174447,-187500.02235174447,-187500.02235174447,-187500.02235174447
$SILENCE,-2171.2708081329833,-12115.07017792108,6354.891521321717,8295.648788887118,-187500.02235174447,-187500.02235174447,-187500.02235174447,-187500.02235174447
$SILENCE,-2251.0665358384294,-12125.910773981903,6133.966879125462,8303.985989568948,-187500.02235174447,-187500.02235174447,-187500.02235174447,-187500.02235174447
$SILENCE,-2231.1734832732063,-12140.931146255869,6112.866832359652,8294.3076842198,-187500.02235174447,-187500.02235174447,-187500.02235174447,-187500.02235174447
$SILENCE,-2159.2679213604833,-12120.658114034906,6351.717573609063,8289.435003928544,-187500.02235174447,-187500.02235174447,-187500.02235174447,-187500.02235174447
$SILENCE,-2170.4661453325925,-12113.371445342476,6376.59506518782,8293.905352819605,-187500.02235174447,-187500.02235174447,-187500.02235174447,-187500.02235174447
$SILENCE,-2227.150169271251,-12125.64255304844,6167.472144063967,8298.621570899675,-187500.02235174447,-187500.02235174447,-187500.02235174447,-187500.02235174447
$SILENCE,-2251.8711986388207,-12131.83398626256,6070.599683594666,8286.864553316183,-187500.02235174447,-187500.02235174447,-187500.02235174447,-187500.02235174447
$SILENCE,-2172.4330988446595,-12122.44625359133,6324.828425029329,8297.54868716582,-187500.02235174447,-187500.02235174447,-187500.02235174447,-187500.02235174447
$SILENCE,-2150.059002644897,-12119.92050646788,6414.4142168062,8314.22308852948,-187500.02235174447,-187500.02235174447,-187500.02235174447,-187500.02235174447
$SILENCE,-2210.5204713965027,-12126.693085037838,6211.616839363199,8301.504945934408,-187500.02235174447,-187500.02235174447,-187500.02235174447,-187500.02235174447
$SILENCE,-2241.410582233737,-12139.992372988747,6075.5841226082,8304.991818069437,-187500.02235174447,-187500.02235174447,-187500.02235174447,-187500.02235174447
$SILENCE,-2193.3990351437374,-12136.2149281758,6278.716776218031,8295.805251098305,-187500.02235174447,-187500.02235174447,-187500.02235174447,-187500.02235174447
$SILENCE,-2157.278616103961,-12118.378236100465,6392.911838640194,8277.29800668931,-187500.02235174447,-187500.02235174447,-187500.02235174447,-187500.02235174447
$SILENCE,-2207.8159103174103,-12119.406416345408,6235.4214472081,8293.88300107515,-187500.02235174447,-187500.02235174447,-187500.02235174447,-187500.02235174447
$SILENCE,-2250.954777116153,-12137.913660754402,6071.6949190729765,8310.93738209455,-187500.02235174447,-187500.02235174447,-187500.02235174447,-187500.02235174447
$SILENCE,-2203.859651548821,-12141.73580905626,6229.632345394176,8293.480669674953,-187500.02235174447,-187500.02235174447,-187500.02235174447,-187500.02235174447
$SILENCE,-2136.826769927355,-12129.531756583663,6406.859327180306,8292.407785941099,-187500.02235174447,-187500.02235174447,-187500.02235174447,-187500.02235174447
$SILENCE,-2182.6254943162794,-12126.223698404277,6281.7789652084075,8309.372759982678,-187500.02235174447,-187500.02235174447,-187500.02235174447,-187500.02235174447
$SILENCE,-2259.3590330313486,-12131.431654862363,6070.15264870556,8315.564193196797,-187500.02235174447,-187500.02235174447,-187500.02235174447,-187500.02235174447
$SILENCE,-2222.143378513262,-12137.131349698468,6178.491554080433,8305.572963425275,-187500.02235174447,-187500.02235174447,-187500.02235174447,-187500.02235174447
$SILENCE,-2148.8073049553996,-12119.987561701246,6396.488117753043,8301.303780234311,-187500.02235174447,-187500.02235174447,-187500.02235174447,-187500.02235174447
$SILENCE,-2182.2455146605394,-12122.1109774245,6308.19872715458,8314.088978062748,-187500.02235174447,-187500.02235174447,-187500.02235174447,-187500.02235174447
$SILENCE,-2261.929483643709,-12141.892271267447,6083.139012234094,8319.78867289885,-187500.02235174447,-187500.02235174447,-187500.02235174447,-187500.02235174447
$SILENCE,-2206.3853986722706,-12143.680410823872,6155.335146824736,8324.482539234465,-187500.02235174447,-187500.02235174447,-187500.02235174447,-187500.02235174447
$SILENCE,-2140.0454211289193,-12133.890346752447,6367.54260868342,8309.708036149506,-187500.02235174447,-187500.02235174447,-187500.02235174447,-187500.02235174447
$SILENCE,-2179.0492152034303,-12124.346151870031,6315.552451080376,8296.140527265135,-187500.02235174447,-187500.02235174447,-187500.02235174447,-187500.02235174447
$SILENCE,-2245.6797654247007,-12131.386951373453,6098.762881608353,8306.891716348138,-187500.02235174447,-187500.02235174447,-187500.02235174447,-187500.02235174447
$SILENCE,-2244.6515851797562,-12139.478282866274,6092.526744905323,8322.515585722398,-187500.02235174447,-187500.02235174447,-187500.02235174447,-187500.02235174447
$SILENCE,-2165.0346714299526,-12126.849547249025,6337.255994946479,8312.256135017411,-187500.02235174447,-187500.02235174447,-187500.02235174447,-187500.02235174447
$SILENCE,-2144.962804909087,-12123.720303025282,6359.518332423965,8315.698303663528,-187500.02235174447,-187500.02235174447,-187500.02235174447,-187500.02235174447
$SILENCE,-2210.6545818632344,-12140.037076477656,6149.143713610615,8329.22110905899,-187500.02235174447,-187500.02235174447,-187500.02235174447,-187500.02235174447
$SILENCE,-2233.207492018639,-12149.491864382251,6069.3479859051695,8329.958716626015,-187500.02235174447,-187500.02235174447,-187500.02235174447,-187500.02235174447
$SILENCE,-2174.020072700986,-12141.936974756358,6290.183221123603,8304.857707602705,-187500.02235174447,-187500.02235174447,-187500.02235174447,-187500.02235174447
$SILENCE,-2164.0064911850086,-12123.250916391722,6347.4036869291895,8298.666274388584,-187500.02235174447,-187500.02235174447,-187500.02235174447,-187500.02235174447
$SILENCE,-2219.952907556642,-12125.262573392698,6168.880303964652,8320.347466510233,-187500.02235174447,-187500.02235174447,-187500.02235174447,-187500.02235174447
$SILENCE,-2230.324116983905,-12142.428713134375,6057.635671810588,8329.690495692552,-187500.02235174447,-187500.02235174447,-187500.02235174447,-187500.02235174447
$SILENCE,-2153.747040480023,-12135.879652008969,6254.442781739567,8317.17351879758,-187500.02235174447,-187500.02235174447,-187500.02235174447,-187500.02235174447
$SILENCE,-2133.4069530256934,-12120.658114034906,6368.816658117373,8316.927649608571,-187500.02235174447,-187500.02235174447,-187500.02235174447,-187500.02235174447
$SILENCE,-2169.706186021112,-12139.83591077756,6225.340810458757,8320.950963610527,-187500.02235174447,-187500.02235174447,-187500.02235174447,-187500.02235174447
$SILENCE,-2220.377590701293,-12149.670678337894,6057.233340410393,8324.862518890204,-187500.02235174447,-187500.02235174447,-187500.02235174447,-187500.02235174447
$SILENCE,-2153.2553021020058,-12148.754256815226,6206.364179416201,8314.357198996211,-187500.02235174447,-187500.02235174447,-187500.02235174447,-187500.02235174447
$SILENCE,-2106.964839335065,-12135.477320608774,6374.181076786647,8319.520451965387,-187500.02235174447,-187500.02235174447,-187500.02235174447,-187500.02235174447
$SILENCE,-2160.698433005623,-12136.25963166471,6249.033659581382,8325.823643901784,-187500.02235174447,-187500.02235174447,-187500.02235174447,-187500.02235174447
$SILENCE,-2210.743988841056,-12144.462721879807,6054.260558397837,8322.02384734438,-187500.02235174447,-187500.02235174447,-187500.02235174447,-187500.02235174447
$SILENCE,-2167.7168807645894,-12146.966117258802,6158.531446281844,8311.83145187276,-187500.02235174447,-187500.02235174447,-187500.02235174447,-187500.02235174447
$SILENCE,-2136.603252482802,-12135.902003753425,6353.885692821228,8285.791669582328,-187500.02235174447,-187500.02235174447,-187500.02235174447,-187500.02235174447
$SILENCE,-2142.5711682523693,-12143.456893379318,6285.131726876703,8293.078338274758,-187500.02235174447,-187500.02235174447,-187500.02235174447,-187500.02235174447
$SILENCE,-2189.375721141782,-12153.425771406386,6084.4354134125015,8313.306667006811,-187500.02235174447,-187500.02235174447,-187500.02235174447,-187500.02235174447
$SILENCE,-2172.5895610558464,-12160.824198821092,6106.653047401077,8298.845088344227,-187500.02235174447,-187500.02235174447,-187500.02235174447,-187500.02235174447
$SILENCE,-2098.1806037641295,-12147.301393425632,6340.027611258938,8297.861611588194,-187500.02235174447,-187500.02235174447,-187500.02235174447,-187500.02235174447
talvez,-2118.3642290072717,-12137.0642944651,6317.564108081354,8305.818832614283,-187500.02235174447,-187500.02235174447,-187500.02235174447,-187500.02235174447
talvez,-2179.898581492732,-12152.576405117085,6110.341085236202,8304.16480352459,-187500.02235174447,-187500.02235174447,-187500.02235174447,-187500.02235174447
talvez,-2169.9073517212096,-12164.154608744933,6110.16227128056,8304.142451780135,-187500.02235174447,-187500.02235174447,-187500.02235174447,-187500.02235174447
talvez,-2106.316638745861,-12156.130332485478,6310.098625433282,8281.880114302649,-187500.02235174447,-187500.02235174447,-187500.02235174447,-187500.02235174447
talvez,-2116.7772551509447,-12146.675544580883,6336.138407723714,8281.567189880276,-187500.02235174447,-187500.02235174447,-187500.02235174447,-187500.02235174447
talvez,-2163.246531873528,-12161.919434299403,6139.197187328004,8292.363082452188,-187500.02235174447,-187500.02235174447,-187500.02235174447,-187500.02235174447
talvez,-2171.315511621894,-12172.670623382404,6055.936939231985,8285.814021326783,-187500.02235174447,-187500.02235174447,-187500.02235174447,-187500.02235174447
talvez,-2094.6713798846463,-12168.490847169263,6286.517535032933,8267.97732925145,-187500.02235174447,-187500.02235174447,-187500.02235174447,-187500.02235174447
talvez,-2078.0416820098976,-12161.74062034376,6374.561056442387,8273.677024087552,-187500.02235174447,-187500.02235174447,-187500.02235174447,-187500.02235174447
talvez,-2142.5935199968244,-12164.69105061186,6191.410862375601,8276.292178188824,-187500.02235174447,-187500.02235174447,-187500.02235174447,-187500.02235174447
talvez,-2169.773241254478,-12177.386841462476,6048.3373461171805,8258.947224491505,-187500.02235174447,-187500.02235174447,-187500.02235174447,-187500.02235174447
talvez,-2094.22434499554,-12176.157495517433,6249.704211915042,8246.743172018907,-187500.02235174447,-187500.02235174447,-187500.02235174447,-187500.02235174447
talvez,-2067.9163417716436,-12164.199312233844,6388.352082771312,8256.041497712315,-187500.02235174447,-187500.02235174447,-187500.02235174447,-187500.02235174447
talvez,-2123.9521651210985,-12171.865960582014,6232.873348340196,8259.930701247538,-187500.02235174447,-187500.02235174447,-187500.02235174447,-187500.02235174447
talvez,-2152.9870811685423,-12185.634635166483,6072.164305706538,8264.646919327608,-187500.02235174447,-187500.02235174447,-187500.02235174447,-187500.02235174447
talvez,-2095.453690940582,-12185.41111772193,6218.367066188702,8249.87241624265,-187500.02235174447,-187500.02235174447,-187500.02235174447,-187500.02235174447
talvez,-2055.712289299046,-12167.88735006897,6389.804946160906,8237.511901558864,-187500.02235174447,-187500.02235174447,-187500.02235174447,-187500.02235174447
talvez,-2106.249583512495,-12167.93205355788,6270.401927280656,8242.20576789448,-187500.02235174447,-187500.02235174447,-187500.02235174447,-187500.02235174447
talvez,-2148.9414154221317,-12191.066109069123,6084.770689579331,8251.504093587888,-187500.02235174447,-187500.02235174447,-187500.02235174447,-187500.02235174447
talvez,-2100.0134468094643,-12195.93878936038,6174.870571478674,8244.507997573375,-187500.02235174447,-187500.02235174447,-187500.02235174447,-187500.02235174447
talvez,-2040.5578065583477,-12176.045736795157,6379.947826856116,8237.355439347677,-187500.02235174447,-187500.02235174447,-187500.02235174447,-187500.02235174447
talvez,-2069.8385917948,-12168.714364613816,6318.860509259762,8252.889901744116,-187500.02235174447,-187500.02235174447,-187500.02235174447,-187500.02235174447
talvez,-2130.5012262465034,-12179.733774630282,6114.744378893898,8258.433134369032,-187500.02235174447,-187500.02235174447,-187500.02235174447,-187500.02235174447
talvez,-2108.2388887690176,-12189.36737649052,6145.12039960866,8245.58088130723,-187500.02235174447,-187500.02235174447,-187500.02235174447,-187500.02235174447
talvez,-2039.3061088688505,-12181.566617675617,6375.186905287136,8228.861776454662,-187500.02235174447,-187500.02235174447,-187500.02235174447,-187500.02235174447
talvez,-2054.3041293983615,-12181.901893842447,6349.415343930166,8227.3418578317,-187500.02235174447,-187500.02235174447,-187500.02235174447,-187500.02235174447
talvez,-2113.7821213939337,-12192.809545136637,6145.768600197864,8237.511901558864,-187500.02235174447,-187500.02235174447,-187500.02235174447,-187500.02235174447
talvez,-2109.535289947425,-12209.327484289108,6118.410064984569,8215.96481990395,-187500.02235174447,-187500.02235174447,-187500.02235174447,-187500.02235174447
talvez,-2042.8600362372442,-12194.150649803954,6347.49309390701,8208.700502955973,-187500.02235174447,-187500.02235174447,-187500.02235174447,-187500.02235174447
talvez,-2049.4761525960153,-12170.45780068133,6372.035309318938,8223.653819996574,-187500.02235174447,-187500.02235174447,-187500.02235174447,-187500.02235174447
talvez,-2099.1417287757076,-12183.868847354513,6186.940513484539,8244.642108040109,-187500.02235174447,-187500.02235174447,-187500.02235174447,-187500.02235174447
talvez,-2110.6528771701905,-12194.530629459696,6111.101044547683,8239.992945193404,-187500.02235174447,-187500.02235174447,-187500.02235174447,-187500.02235174447
talvez,-2044.4470100935712,-12191.759013147237,6329.075256475837,8217.641200738097,-187500.02235174447,-187500.02235174447,-187500.02235174447,-187500.02235174447
talvez,-2029.873672708711,-12186.439297966874,6410.770882459985,8219.04936063878,-187500.02235174447,-187500.02235174447,-187500.02235174447,-187500.02235174447
talvez,-2091.877411827733,-12189.657949168439,6210.923935285085,8224.972572919438,-187500.02235174447,-187500.02235174447,-187500.02235174447,-187500.02235174447
talvez,-2119.0347813409307,-12205.37122552052,6091.364454193646,8226.425436309033,-187500.02235174447,-187500.02235174447,-187500.02235174447,-187500.02235174447
talvez,-2061.5237428574255,-12193.882428870491,6263.003499865949,8216.970648404438,-187500.02235174447,-187500.02235174447,-187500.02235174447,-187500.02235174447
talvez,-2027.0350011628868,-12183.488867698774,6396.197545075124,8207.873488411127,-187500.02235174447,-187500.02235174447,-187500.02235174447,-187500.02235174447
talvez,-2081.3720919337384,-12200.185620806888,6246.6196711802095,8208.097005855681,-187500.02235174447,-187500.02235174447,-187500.02235174447,-187500.02235174447
talvez,-2122.186377309129,-12211.339141290086,6086.11179424665,8212.746168702384,-187500.02235174447,-187500.02235174447,-187500.02235174447,-187500.02235174447
talvez,-2062.9766062470208,-12196.0281963382,6245.9714705910055,8214.400197792078,-187500.02235174447,-187500.02235174447,-187500.02235174447,-187500.02235174447
talvez,-2008.773625942901,-12183.645329909961,6442.197435164147,8205.839479665694,-187500.02235174447,-187500.02235174447,-187500.02235174447,-187500.02235174447
talvez,-2044.8940449826773,-12203.337216775086,6320.738055794008,8221.552756017776,-187500.02235174447,-187500.02235174447,-187500.02235174447,-187500.02235174447
talvez,-2100.7957578654,-12221.84446118408,6104.842556100197,8219.384636805611,-187500.02235174447,-187500.02235174447,-187500.02235174447,-187500.02235174447
talvez,-2073.1913534630958,-12202.912533630435,6178.5586093138,8206.420625021532,-187500.02235174447,-187500.02235174447,-187500.02235174447,-187500.02235174447
talvez,-2023.5257772834036,-12191.781364891693,6383.367643757778,8188.069842823726,-187500.02235174447,-187500.02235174447,-187500.02235174447,-187500.02235174447
talvez,-2052.583045075303,-12191.51314395823,6327.130654708226,8196.42939525001,-187500.02235174447,-187500.02235174447,-187500.02235174447,-187500.02235174447
talvez,-2116.7996068954,-12202.197277807865,6129.496530234401,8207.873488411127,-187500.02235174447,-187500.02235174447,-187500.02235174447,-187500.02235174447
talvez,-2088.7258158595346,-12209.282780800198,6155.670422991565,8195.781194660807,-187500.02235174447,-187500.02235174447,-187500.02235174447,-187500.02235174447
talvez,-2028.130236641197,-12197.726928916803,6380.528972211954,8180.984339831393,-187500.02235174447,-187500.02235174447,-187500.02235174447,-187500.02235174447
talvez,-2041.3624693587387,-12195.290588771175,6358.35604171229,8186.169944545025,-187500.02235174447,-187500.02235174447,-187500.02235174447,-187500.02235174447
talvez,-2102.6286009107353,-12208.008731366246,6149.099010121705,8194.440089993488,-187500.02235174447,-187500.02235174447,-187500.02235174447,-187500.02235174447
talvez,-2095.4983944294922,-12222.090330373088,6115.504338205378,8186.907552112049,-187500.02235174447,-187500.02235174447,-187500.02235174447,-187500.02235174447
talvez,-2006.940782897566,-12215.340103547585,6353.662175376675,8176.201066517958,-187500.02235174447,-187500.02235174447,-187500.02235174447,-187500.02235174447
talvez,-2018.2731173364066,-12194.038891081678,6402.947771900627,8185.409985233544,-187500.02235174447,-187500.02235174447,-187500.02235174447,-187500.02235174447
talvez,-2068.385728405205,-12194.08359457059,6212.153281230126,8195.535325471797,-187500.02235174447,-187500.02235174447,-187500.02235174447,-187500.02235174447
talvez,-2106.0484178123975,-12224.973705407823,6113.805605626775,8181.163153787036,-187500.02235174447,-187500.02235174447,-187500.02235174447,-187500.02235174447
talvez,-2060.8084870348557,-12215.541269247684,6341.815750815363,8161.1359907550805,-187500.02235174447,-187500.02235174447,-187500.02235174447,-187500.02235174447
talvez,-2034.9251669556104,-12191.870771869513,6447.8971300002495,8175.910493840039,-187500.02235174447,-187500.02235174447,-187500.02235174447,-187500.02235174447
talvez,-2052.6948037975794,-12169.541379158662,6307.77404400993,8220.09989262818,-187500.02235174447,-187500.02235174447,-187500.02235174447,-187500.02235174447
talvez,-2077.3711296762385,-12175.129315272488,6186.471126850978,8204.3866162761,-187500.02235174447,-187500.02235174447,-187500.02235174447,-187500.02235174447
talvez,-2075.1136034862525,-12227.007714153257,6307.349360865279,8137.174920698992,-187500.02235174447,-187500.02235174447,-187500.02235174447,-187500.02235174447
talvez,-2085.149536746685,-12284.831677059135,6390.676664194663,8128.256574661324,-187500.02235174447,-187500.02235174447,-187500.02235174447,-187500.02235174447
talvez,-2079.3604349327607,-12220.726873961316,6256.454438740545,8205.727720943418,-187500.02235174447,-187500.02235174447,-187500.02235174447,-187500.02235174447
talvez,-2066.3070161708615,-12164.914568056414,6184.906504739107,8210.91332565705,-187500.02235174447,-187500.02235174447,-187500.02235174447,-187500.02235174447
talvez,-1999.8329281607782,-12136.885480509458,6304.130709663715,8204.3866162761,-187500.02235174447,-187500.02235174447,-187500.02235174447,-187500.02235174447
talvez,-2013.44514053406,-12208.522821488717,6421.387961076255,8148.75312432684,-187500.02235174447,-187500.02235174447,-187500.02235174447,-187500.02235174447
talvez,-2107.7918538799113,-12226.985362408801,6296.933447949105,8150.764781327818,-187500.02235174447,-187500.02235174447,-187500.02235174447,-187500.02235174447
talvez,-2156.026918414464,-12209.327484289108,6076.657006342055,8153.201121473447,-187500.02235174447,-187500.02235174447,-187500.02235174447,-187500.02235174447
talvez,-2169.6167790432905,-12266.86087451707,6108.530593935322,8094.147812622526,-187500.02235174447,-187500.02235174447,-187500.02235174447,-187500.02235174447
talvez,-2084.6130948797577,-12242.452769571873,6376.438602976633,8119.070007690193,-187500.02235174447,-187500.02235174447,-187500.02235174447,-187500.02235174447
talvez,-2026.319745340317,-12185.232303766288,6388.665007193686,8186.57227594522,-187500.02235174447,-187500.02235174447,-187500.02235174447,-187500.02235174447
talvez,-2178.959808225609,-12314.894773351523,6021.872880682097,8103.647304016031,-187500.02235174447,-187500.02235174447,-187500.02235174447,-187500.02235174447
talvez,-2186.1570699402178,-12314.514793695784,6003.4326915064685,8108.609391285109,-187500.02235174447,-187500.02235174447,-187500.02235174447,-187500.02235174447
talvez,-2044.0446786933755,-12246.341973107097,6393.358873529301,8117.885365234061,-187500.02235174447,-187500.02235174447,-187500.02235174447,-187500.02235174447
talvez,-2047.6209578062246,-12209.528649989206,6399.729120699063,8186.0805375672035,-187500.02235174447,-187500.02235174447,-187500.02235174447,-187500.02235174447
talvez,-2107.7024469020903,-12226.739493219793,6180.79378375933,8160.845418077161,-187500.02235174447,-187500.02235174447,-187500.02235174447,-187500.02235174447
talvez,-2152.227121857062,-12276.561531610672,6012.194575332949,8056.775695893252,-187500.02235174447,-187500.02235174447,-187500.02235174447,-187500.02235174447
talvez,-2085.395405935694,-12255.32737437813,6206.364179416201,8110.621048286087,-187500.02235174447,-187500.02235174447,-187500.02235174447,-187500.02235174447
talvez,-2075.5606383753584,-12269.654842573982,6294.318293847835,8130.089417706659,-187500.02235174447,-187500.02235174447,-187500.02235174447,-187500.02235174447
talvez,-2020.0836086372865,-12242.60923178306,6208.711112584008,8165.628691390597,-187500.02235174447,-187500.02235174447,-187500.02235174447,-187500.02235174447
talvez,-2044.5364170713924,-12243.548005050185,6083.049605256272,8145.489769636366,-187500.02235174447,-187500.02235174447,-187500.02235174447,-187500.02235174447
talvez,-2083.6519698681795,-12235.657839257461,6282.740090219986,8138.694839321953,-187500.02235174447,-187500.02235174447,-187500.02235174447,-187500.02235174447
talvez,-2085.931847802621,-12216.591801237084,6374.248132020013,8207.918191900038,-187500.02235174447,-187500.02235174447,-187500.02235174447,-187500.02235174447
talvez,-2123.4604267430814,-12196.36347250503,6206.4088829051125,8192.987226603893,-187500.02235174447,-187500.02235174447,-187500.02235174447,-187500.02235174447
talvez,-2135.4633135155814,-12209.595705222573,6089.464555914946,8193.657778937553,-187500.02235174447,-187500.02235174447,-187500.02235174447,-187500.02235174447
talvez,-2067.3798999047162,-12202.84547839707,6281.130764619204,8224.413779308055,-187500.02235174447,-187500.02235174447,-187500.02235174447,-187500.02235174447
talvez,-2026.453855807049,-12203.091347586078,6389.424966505167,8196.563505716742,-187500.02235174447,-187500.02235174447,-187500.02235174447,-187500.02235174447
talvez,-2096.772443863445,-12207.740510432783,6266.982110378995,8201.994979619381,-187500.02235174447,-187500.02235174447,-187500.02235174447,-187500.02235174447
talvez,-2129.450694257104,-12212.546135490673,6112.956239337474,8240.574090549242,-187500.02235174447,-187500.02235174447,-187500.02235174447,-187500.02235174447
talvez,-2099.544060175903,-12196.542286460673,6227.911261071117,8248.464256341966,-187500.02235174447,-187500.02235174447,-187500.02235174447,-187500.02235174447
talvez,-2093.8220135953443,-12167.93205355788,6391.727196184063,8230.895785200093,-187500.02235174447,-187500.02235174447,-187500.02235174447,-187500.02235174447
talvez,-2092.324446716839,-12171.106001270533,6306.075311431327,8265.83156178374,-187500.02235174447,-187500.02235174447,-187500.02235174447,-187500.02235174447
talvez,-2140.8053804404,-12193.36833874802,6122.008695841872,8275.912198533082,-187500.02235174447,-187500.02235174447,-187500.02235174447,-187500.02235174447
talvez,-2140.09012461783,-12191.22257128031,6202.676141581076,8266.502114117398,-187500.02235174447,-187500.02235174447,-187500.02235174447,-187500.02235174447
talvez,-2060.8755422682216,-12184.204123521344,6397.583353231354,8248.330145875234,-187500.02235174447,-187500.02235174447,-187500.02235174447,-187500.02235174447
talvez,-2063.64715858068,-12183.041832809668,6340.608756614775,8253.001660466392,-187500.02235174447,-187500.02235174447,-187500.02235174447,-187500.02235174447
talvez,-2160.9443021946313,-12193.591856192572,6136.894957649107,8266.457410628487,-187500.02235174447,-187500.02235174447,-187500.02235174447,-187500.02235174447
talvez,-2143.956976408598,-12197.324597516608,6138.236062316426,8243.502169072886,-187500.02235174447,-187500.02235174447,-187500.02235174447,-187500.02235174447
talvez,-2077.3040744428727,-12179.040870552168,6344.430904916633,8210.667456468042,-187500.02235174447,-187500.02235174447,-187500.02235174447,-187500.02235174447
talvez,-2087.2729524699394,-12150.900024282935,6358.221931245557,8242.362230105666,-187500.02235174447,-187500.02235174447,-187500.02235174447,-187500.02235174447
talvez,-2138.190226339129,-12156.800884819137,6178.826830247263,8280.82958231325,-187500.02235174447,-187500.02235174447,-187500.02235174447,-187500.02235174447
talvez,-2164.118249907285,-12170.256634981231,6123.014524342361,8252.398163366099,-187500.02235174447,-187500.02235174447,-187500.02235174447,-187500.02235174447
talvez,-2113.1786242936405,-12159.907777298426,6339.982907770027,8240.73055276043,-187500.02235174447,-187500.02235174447,-187500.02235174447,-187500.02235174447
talvez,-2125.5838424663357,-12150.542396371651,6361.999376058505,8250.498265087399,-187500.02235174447,-187500.02235174447,-187500.02235174447,-187500.02235174447
talvez,-2178.088090191852,-12151.257652194221,6186.359368128702,8276.314529933277,-187500.02235174447,-187500.02235174447,-187500.02235174447,-187500.02235174447
talvez,-2188.258133919017,-12155.571538874095,6099.075806030728,8281.500134646909,-187500.02235174447,-187500.02235174447,-187500.02235174447,-187500.02235174447
talvez,-2127.70725818959,-12140.685277066861,6305.538869564399,8283.288274203334,-187500.02235174447,-187500.02235174447,-187500.02235174447,-187500.02235174447
talvez,-2115.32439176135,-12125.419035603885,6405.473519024077,8298.465108688488,-187500.02235174447,-187500.02235174447,-187500.02235174447,-187500.02235174447
talvez,-2181.6420175602457,-12128.011837960701,6226.972487803994,8308.232821015456,-187500.02235174447,-187500.02235174447,-187500.02235174447,-187500.02235174447
talvez,-2227.8430733493656,-12133.800939774626,6080.0321197548055,8290.776108595861,-187500.02235174447,-187500.02235174447,-187500.02235174447,-187500.02235174447
talvez,-2152.0706596458745,-12124.569669314584,6264.165790577626,8288.675044617063,-187500.02235174447,-187500.02235174447,-187500.02235174447,-187500.02235174447
talvez,-2105.7801968789336,-12110.711587752294,6426.439455323155,8292.050158029813,-187500.02235174447,-187500.02235174447,-187500.02235174447,-187500.02235174447
talvez,-2165.3699475967824,-12112.49972730872,6277.286264572891,8326.494196235442,-187500.02235174447,-187500.02235174447,-187500.02235174447,-187500.02235174447
talvez,-2215.6166691323124,-12128.235355405255,6092.258523971859,8355.104429138235,-187500.02235174447,-187500.02235174447,-187500.02235174447,-187500.02235174447
talvez,-2130.389467524227,-12111.53860229714,6253.325194516801,8323.432007245065,-187500.02235174447,-187500.02235174447,-187500.02235174447,-187500.02235174447
talvez,-2108.7976823804,-12101.815593459081,6421.8349959653615,8299.605047655708,-187500.02235174447,-187500.02235174447,-187500.02235174447,-187500.02235174447
talvez,-2158.8879417047433,-12105.749500483216,6311.395026611689,8314.379550740667,-187500.02235174447,-187500.02235174447,-187500.02235174447,-187500.02235174447
talvez,-2194.471918877592,-12128.704742038815,6116.376056239135,8339.569966741798,-187500.02235174447,-187500.02235174447,-187500.02235174447,-187500.02235174447
talvez,-2117.7607319069784,-12126.089587937546,6190.360330386202,8291.290198718334,-187500.02235174447,-187500.02235174447,-187500.02235174447,-187500.02235174447
talvez,-2120.152368563696,-12097.859334690493,6400.153803843714,8312.323190250778,-187500.02235174447,-187500.02235174447,-187500.02235174447,-187500.02235174447
talvez,-2175.7635087685003,-12092.360805554486,6346.330803195335,8334.98785912846,-187500.02235174447,-187500.02235174447,-187500.02235174447,-187500.02235174447
talvez,-2228.8712535943096,-12107.135308639445,6156.609196258688,8301.862573845694,-187500.02235174447,-187500.02235174447,-187500.02235174447,-187500.02235174447
talvez,-2196.349465411838,-12120.166375656889,6191.276751908869,8320.123949065679,-187500.02235174447,-187500.02235174447,-187500.02235174447,-187500.02235174447
talvez,-2110.831691125833,-12115.181936643356,6393.001245618016,8299.046254044326,-187500.02235174447,-187500.02235174447,-187500.02235174447,-187500.02235174447
talvez,-2108.7529788914894,-12097.188782356834,6397.471594509077,8311.227954772468,-187500.02235174447,-187500.02235174447,-187500.02235174447,-187500.02235174447
talvez,-2193.7566630550223,-12101.972055670269,6269.485505757989,8361.65349026364,-187500.02235174447,-187500.02235174447,-187500.02235174447,-187500.02235174447
talvez,-2177.6857587916566,-12106.420052816875,6193.422519376579,8335.256080061923,-187500.02235174447,-187500.02235174447,-187500.02235174447,-187500.02235174447
talvez,-2092.9502955615876,-12121.529832068663,6308.91398297715,8293.391262697132,-187500.02235174447,-187500.02235174447,-187500.02235174447,-187500.02235174447
talvez,-2088.971685048543,-12089.320968308564,6417.923440685683,8298.554515666308,-187500.02235174447,-187500.02235174447,-187500.02235174447,-187500.02235174447
talvez,-2167.5827702978577,-12096.719395723272,6245.837360124274,8313.485480962454,-187500.02235174447,-187500.02235174447,-187500.02235174447,-187500.02235174447
talvez,-2226.6807826376894,-12128.771797272182,6111.63748641461,8313.127853051168,-187500.02235174447,-187500.02235174447,-187500.02235174447,-187500.02235174447
talvez,-2140.447752529115,-12112.723244753272,6357.976062056549,8308.188117526546,-187500.02235174447,-187500.02235174447,-187500.02235174447,-187500.02235174447
