WORD,Channel_1,Channel_2,Channel_3,Channel_4,Channel_5,Channel_6,Channel_7,Channel_8
$SILENCE,25345.045369272873,-13722.026493790925,-19194.560550994942,-6726.086941491001,-187500.02235174447,-187500.02235174447,-187500.02235174447,-187500.02235174447
$SILENCE,25385.30086103688,-13621.398940253132,-19132.668570598194,-6618.575050660975,-187500.02235174447,-187500.02235174447,-187500.02235174447,-187500.02235174447
$SILENCE,25529.491964518067,-13531.924907198538,-18795.47015374543,-6559.164113898768,-187500.02235174447,-187500.02235174447,-187500.02235174447,-187500.02235174447
$SILENCE,25541.405444312746,-13584.250340968412,-18741.736560074874,-6625.2805739975665,-187500.02235174447,-187500.02235174447,-187500.02235174447,-187500.02235174447
$SILENCE,25365.676029405124,-13707.117880239235,-19138.3682654343,-6716.453339630764,-187500.02235174447,-187500.02235174447,-187500.02235174447,-187500.02235174447
$SILENCE,25364.55844218236,-13649.472731288997,-19183.31762353392,-6646.0006411076365,-187500.02235174447,-187500.02235174447,-187500.02235174447,-187500.02235174447
$SILENCE,25514.96333062212,-13527.58866877421,-18849.851948005195,-6534.510139764565,-187500.02235174447,-187500.02235174447,-187500.02235174447,-187500.02235174447
$SILENCE,25558.929211965708,-13552.06382895277,-18705.70554801292,-6567.724832025151,-187500.02235174447,-187500.02235174447,-187500.02235174447,-187500.02235174447
$SILENCE,25371.040448074396,-13698.534810368397,-19086.57927353135,-6692.246400385667,-187500.02235174447,-187500.02235174447,-187500.02235174447,-187500.02235174447
$SILENCE,25335.501174390458,-13673.143228667168,-19225.607124043363,-6667.3689088069095,-187500.02235174447,-187500.02235174447,-187500.02235174447,-187500.02235174447
$SILENCE,25473.18792023515,-13549.269860895856,-18926.98781812046,-6569.4012128592985,-187500.02235174447,-187500.02235174447,-187500.02235174447,-187500.02235174447
$SILENCE,25568.473406848123,-13544.240718393412,-18691.534542028254,-6544.411962558265,-187500.02235174447,-187500.02235174447,-187500.02235174447,-187500.02235174447
$SILENCE,25411.22888460504,-13693.706833566052,-19015.23250523001,-6671.436926297775,-187500.02235174447,-187500.02235174447,-187500.02235174447,-187500.02235174447
$SILENCE,25327.521601619912,-13696.590208600785,-19245.90250800878,-6701.969409223725,-187500.02235174447,-187500.02235174447,-187500.02235174447,-187500.02235174447
$SILENCE,25447.41635887818,-13564.558454103286,-18982.37544088071,-6566.674300035751,-187500.02235174447,-187500.02235174447,-187500.02235174447,-187500.02235174447
$SILENCE,25575.20128192917,-13522.648933249586,-18688.27118733778,-6513.566555209942,-187500.02235174447,-187500.02235174447,-187500.02235174447,-187500.02235174447
$SILENCE,25449.316257156883,-13658.346373837754,-18935.07914961328,-6643.810170151016,-187500.02235174447,-187500.02235174447,-187500.02235174447,-187500.02235174447
$SILENCE,25319.09499396026,-13704.078042993313,-19241.655676562274,-6680.668196757817,-187500.02235174447,-187500.02235174447,-187500.02235174447,-187500.02235174447
$SILENCE,25398.331928054326,-13600.12007953168,-19064.29458430941,-6605.365169687888,-187500.02235174447,-187500.02235174447,-187500.02235174447,-187500.02235174447
$SILENCE,25539.23732510058,-13516.189279102002,-18736.930935016982,-6567.322500624955,-187500.02235174447,-187500.02235174447,-187500.02235174447,-187500.02235174447
$SILENCE,25489.683507643167,-13616.481556472965,-18861.07252372176,-6644.234853295667,-187500.02235174447,-187500.02235174447,-187500.02235174447,-187500.02235174447
$SILENCE,25347.07937801831,-13715.209211732055,-19206.764603467538,-6689.072452673013,-187500.02235174447,-187500.02235174447,-187500.02235174447,-187500.02235174447
$SILENCE,25408.591378759313,-13627.389207767155,-19088.54622704342,-6600.514841141086,-187500.02235174447,-187500.02235174447,-187500.02235174447,-187500.02235174447
$SILENCE,25546.38988332628,-13517.86565993615,-18749.67142935651,-6510.86199413085,-187500.02235174447,-187500.02235174447,-187500.02235174447,-187500.02235174447
$SILENCE,25507.229627040582,-13615.140451805646,-18795.894836890082,-6581.82878277645,-187500.02235174447,-187500.02235174447,-187500.02235174447,-187500.02235174447
$SILENCE,25343.6819128611,-13724.90986882566,-19182.75882992254,-6689.6759497733065,-187500.02235174447,-187500.02235174447,-187500.02235174447,-187500.02235174447
$SILENCE,25387.245462804494,-13620.281353030367,-19142.70450385863,-6646.961766119214,-187500.02235174447,-187500.02235174447,-187500.02235174447,-187500.02235174447
$SILENCE,25529.33550230688,-13522.000732660383,-18801.929807893015,-6567.121334924857,-187500.02235174447,-187500.02235174447,-187500.02235174447,-187500.02235174447
$SILENCE,25537.851516944353,-13569.654651839097,-18740.86484204112,-6595.061015493991,-187500.02235174447,-187500.02235174447,-187500.02235174447,-187500.02235174447
$SILENCE,25359.462244446546,-13715.611543132252,-19137.653009611728,-6694.772147509116,-187500.02235174447,-187500.02235174447,-187500.02235174447,-187500.02235174447
$SILENCE,25349.046331530375,-13649.428027800088,-19196.572207995916,-6653.756696433627,-187500.02235174447,-187500.02235174447,-187500.02235174447,-187500.02235174447
$SILENCE,25507.453144485135,-13522.514822782854,-18863.017125489372,-6524.094226848391,-187500.02235174447,-187500.02235174447,-187500.02235174447,-187500.02235174447
$SILENCE,25543.886487947286,-13546.96763121696,-18717.239048151856,-6564.506180823587,-187500.02235174447,-187500.02235174447,-187500.02235174447,-187500.02235174447
$SILENCE,25371.822759130333,-13695.137345211191,-19088.188599132132,-6711.737121550695,-187500.02235174447,-187500.02235174447,-187500.02235174447,-187500.02235174447
$SILENCE,25354.321343221825,-13674.931368223593,-19205.31174007794,-6665.558417506029,-187500.02235174447,-187500.02235174447,-187500.02235174447,-187500.02235174447
$SILENCE,25495.025574567986,-13545.626526549642,-18902.467954452986,-6528.206947828168,-187500.02235174447,-187500.02235174447,-187500.02235174447,-187500.02235174447
$SILENCE,25569.769808026533,-13536.037628178316,-18674.994251131327,-6509.409130741255,-187500.02235174447,-187500.02235174447,-187500.02235174447,-187500.02235174447
$SILENCE,25394.152151841183,-13681.61453981573,-19018.249990731478,-6682.612798525429,-187500.02235174447,-187500.02235174447,-187500.02235174447,-187500.02235174447
$SILENCE,25285.321508088295,-13685.257874161945,-19274.33392695593,-6711.0442174725795,-187500.02235174447,-187500.02235174447,-187500.02235174447,-187500.02235174447
$SILENCE,25417.75559398599,-13566.659518082086,-19012.259723217456,-6612.2495069801225,-187500.02235174447,-187500.02235174447,-187500.02235174447,-187500.02235174447
$SILENCE,25551.709598506644,-13525.19703211749,-18697.502457797822,-6543.383782313322,-187500.02235174447,-187500.02235174447,-187500.02235174447,-187500.02235174447
$SILENCE,25442.40956812019,-13660.961527939025,-18922.673931440586,-6641.0162020941025,-187500.02235174447,-187500.02235174447,-187500.02235174447,-187500.02235174447
$SILENCE,25308.164990921618,-13712.638761119695,-19241.543917839994,-6708.272601160122,-187500.02235174447,-187500.02235174447,-187500.02235174447,-187500.02235174447
$SILENCE,25392.02873611793,-13594.867419584683,-19064.71926745406,-6617.50216692712,-187500.02235174447,-187500.02235174447,-187500.02235174447,-187500.02235174447
$SILENCE,25522.96525513712,-13514.803470945773,-18743.189423464468,-6560.1252389103465,-187500.02235174447,-187500.02235174447,-187500.02235174447,-187500.02235174447
$SILENCE,25453.250164181016,-13628.327981034277,-18871.801361060305,-6650.64980395434,-187500.02235174447,-187500.02235174447,-187500.02235174447,-187500.02235174447
$SILENCE,25303.471124586,-13714.248086720478,-19228.848126989382,-6708.607877326951,-187500.02235174447,-187500.02235174447,-187500.02235174447,-187500.02235174447
$SILENCE,25379.467055734047,-13607.138527290646,-19112.0602622104,-6609.276724967566,-187500.02235174447,-187500.02235174447,-187500.02235174447,-187500.02235174447
$SILENCE,25512.929321876687,-13513.06003487826,-18773.610147668143,-6535.6500787317855,-187500.02235174447,-187500.02235174447,-187500.02235174447,-187500.02235174447
$SILENCE,25489.057658798418,-13596.521448674375,-18797.861790402152,-6606.370998188377,-187500.02235174447,-187500.02235174447,-187500.02235174447,-187500.02235174447
$SILENCE,25326.828697541798,-13716.304447210367,-19187.07271660241,-6683.551571792552,-187500.02235174447,-187500.02235174447,-187500.02235174447,-187500.02235174447
$SILENCE,25352.712017621045,-13638.252155572434,-19160.630602911784,-6619.8267483504715,-187500.02235174447,-187500.02235174447,-187500.02235174447,-187500.02235174447
$SILENCE,25490.28700474346,-13521.173718115535,-18827.477851805434,-6549.709325994173,-187500.02235174447,-187500.02235174447,-187500.02235174447,-187500.02235174447
$SILENCE,25506.357909006823,-13564.625509336653,-18757.740409104874,-6590.165983458279,-187500.02235174447,-187500.02235174447,-187500.02235174447,-187500.02235174447
$SILENCE,25335.34471217927,-13712.258781463956,-19145.54317540445,-6682.299874103055,-187500.02235174447,-187500.02235174447,-187500.02235174447,-187500.02235174447
$SILENCE,25318.647959071157,-13664.984841940981,-19214.543010537986,-6643.519597473097,-187500.02235174447,-187500.02235174447,-187500.02235174447,-187500.02235174447
$SILENCE,25463.531966630457,-13534.048322921792,-18888.922797313073,-6553.10679115138,-187500.02235174447,-187500.02235174447,-187500.02235174447,-187500.02235174447
$SILENCE,25532.800022697455,-13546.453541094488,-18713.640417294555,-6566.450782591198,-187500.02235174447,-187500.02235174447,-187500.02235174447,-187500.02235174447
$SILENCE,25362.949116581574,-13700.300598180367,-19083.159456629688,-6701.61178131244,-187500.02235174447,-187500.02235174447,-187500.02235174447,-187500.02235174447
$SILENCE,25314.40112762465,-13680.56400782633,-19243.913202752257,-6679.215333368223,-187500.02235174447,-187500.02235174447,-187500.02235174447,-187500.02235174447
$SILENCE,25440.643780308223,-13552.264994652867,-18960.33662084778,-6568.797715759006,-187500.02235174447,-187500.02235174447,-187500.02235174447,-187500.02235174447
$SILENCE,25532.66591223072,-13522.850098949684,-18707.538391058253,-6546.1553986257795,-187500.02235174447,-187500.02235174447,-187500.02235174447,-187500.02235174447
$SILENCE,25397.482561765024,-13670.930405966094,-19005.353034180767,-6658.539969747063,-187500.02235174447,-187500.02235174447,-187500.02235174447,-187500.02235174447
$SILENCE,25302.264130385418,-13696.746670811972,-19255.33494416892,-6673.694452487762,-187500.02235174447,-187500.02235174447,-187500.02235174447,-187500.02235174447
$SILENCE,25398.60014898779,-13576.091954242225,-19029.314104236855,-6576.866695507371,-187500.02235174447,-187500.02235174447,-187500.02235174447,-187500.02235174447
$SILENCE,25525.558057493934,-13512.568296500242,-18718.155469674526,-6537.773494455039,-187500.02235174447,-187500.02235174447,-187500.02235174447,-187500.02235174447
$SILENCE,25433.51357382698,-13641.180234096078,-18922.293951784846,-6645.55360621853,-187500.02235174447,-187500.02235174447,-187500.02235174447,-187500.02235174447
$SILENCE,25307.62854905469,-13706.648493605673,-19249.411731888264,-6686.457298571742,-187500.02235174447,-187500.02235174447,-187500.02235174447,-187500.02235174447
$SILENCE,25385.904358137173,-13596.968483563482,-19091.787229989437,-6591.864716036883,-187500.02235174447,-187500.02235174447,-187500.02235174447,-187500.02235174447
$SILENCE,25516.215028311617,-13514.043511634292,-18764.42358069701,-6528.408113528266,-187500.02235174447,-187500.02235174447,-187500.02235174447,-187500.02235174447
$SILENCE,25454.904193270708,-13619.297876274333,-18869.812055803784,-6616.004600048614,-187500.02235174447,-187500.02235174447,-187500.02235174447,-187500.02235174447
$SILENCE,25296.7208977605,-13724.328723469822,-19243.220298674143,-6703.42227261332,-187500.02235174447,-187500.02235174447,-187500.02235174447,-187500.02235174447
$SILENCE,25356.48946243399,-13617.50973671791,-19144.98438179307,-6614.64114363684,-187500.02235174447,-187500.02235174447,-187500.02235174447,-187500.02235174447
$SILENCE,25510.157705564226,-13510.780156943818,-18795.067822345238,-6541.617994501352,-187500.02235174447,-187500.02235174447,-187500.02235174447,-187500.02235174447
$SILENCE,25483.447370940135,-13588.318358459277,-18802.66741546004,-6611.109568012902,-187500.02235174447,-187500.02235174447,-187500.02235174447,-187500.02235174447
$SILENCE,25298.464333828015,-13721.33358971281,-19209.200943613167,-6718.509700120652,-187500.02235174447,-187500.02235174447,-187500.02235174447,-187500.02235174447
$SILENCE,25324.43706088508,-13639.07917011728,-19203.32243482142,-6642.290251528055,-187500.02235174447,-187500.02235174447,-187500.02235174447,-187500.02235174447
$SILENCE,25474.596080135834,-13528.974476930438,-18858.59148008722,-6531.112674607358,-187500.02235174447,-187500.02235174447,-187500.02235174447,-187500.02235174447
$SILENCE,25508.3695660078,-13552.510863841875,-18755.393475937068,-6577.604303074397,-187500.02235174447,-187500.02235174447,-187500.02235174447,-187500.02235174447
$SILENCE,25353.226107743518,-13681.815705515828,-19129.159346718712,-6703.198755168767,-187500.02235174447,-187500.02235174447,-187500.02235174447,-187500.02235174447
$SILENCE,25337.311665691337,-13658.79340872686,-19211.793745969982,-6665.3125483170215,-187500.02235174447,-187500.02235174447,-187500.02235174447,-187500.02235174447
$SILENCE,25472.025629523472,-13548.979288217937,-18900.277483496367,-6557.10775340888,-187500.02235174447,-187500.02235174447,-187500.02235174447,-187500.02235174447
$SILENCE,25532.218877341616,-13532.215479876457,-18721.061196453717,-6550.156360883279,-187500.02235174447,-187500.02235174447,-187500.02235174447,-187500.02235174447
$SILENCE,25355.237764744496,-13686.509571851442,-19089.306186354897,-6667.055984384535,-187500.02235174447,-187500.02235174447,-187500.02235174447,-187500.02235174447
$SILENCE,25279.219481851993,-13692.768060298928,-19282.537017171027,-6685.965560193725,-187500.02235174447,-187500.02235174447,-187500.02235174447,-187500.02235174447
$SILENCE,25414.02285266195,-13535.791758989306,-18989.237426428488,-6586.0756142229575,-187500.02235174447,-187500.02235174447,-187500.02235174447,-187500.02235174447
$SILENCE,25530.296627318457,-13523.028912905325,-18717.239048151856,-6564.796753501506,-187500.02235174447,-187500.02235174447,-187500.02235174447,-187500.02235174447
$SILENCE,25401.036489133417,-13673.210283900535,-18995.33945266479,-6662.160952348823,-187500.02235174447,-187500.02235174447,-187500.02235174447,-187500.02235174447
$SILENCE,25314.602293324744,-13696.009063244946,-19246.260135920067,-6682.836315969982,-187500.02235174447,-187500.02235174447,-187500.02235174447,-187500.02235174447
$SILENCE,25415.74393698501,-13576.360175175689,-19037.45013921859,-6589.584838102441,-187500.02235174447,-187500.02235174447,-187500.02235174447,-187500.02235174447
$SILENCE,25522.33940629237,-13522.96185767196,-18753.448874169455,-6563.410945345277,-187500.02235174447,-187500.02235174447,-187500.02235174447,-187500.02235174447
$SILENCE,25417.37561433025,-13635.592297982252,-18949.02663815339,-6665.558417506029,-187500.02235174447,-187500.02235174447,-187500.02235174447,-187500.02235174447
$SILENCE,25290.23889186846,-13693.729185310505,-19258.844168048403,-6690.927647462803,-187500.02235174447,-187500.02235174447,-187500.02235174447,-187500.02235174447
$SILENCE,25370.92868935212,-13586.217294480479,-19103.298378383923,-6609.857870323404,-187500.02235174447,-187500.02235174447,-187500.02235174447,-187500.02235174447
$SILENCE,25512.035252098474,-13515.585782001708,-18768.111618532137,-6554.53730279652,-187500.02235174447,-187500.02235174447,-187500.02235174447,-187500.02235174447
$SILENCE,25478.37352494878,-13616.481556472965,-18843.63816304662,-6607.823861577972,-187500.02235174447,-187500.02235174447,-187500.02235174447,-187500.02235174447
$SILENCE,25314.78110728039,-13708.61544711774,-19221.740272252595,-6680.645845013362,-187500.02235174447,-187500.02235174447,-187500.02235174447,-187500.02235174447
$SILENCE,25345.7829768399,-13627.45626300052,-19169.057210571435,-6638.669268926295,-187500.02235174447,-187500.02235174447,-187500.02235174447,-187500.02235174447
$SILENCE,25508.79424915245,-13507.583857486708,-18811.026967886326,-6553.86675046286,-187500.02235174447,-187500.02235174447,-187500.02235174447,-187500.02235174447
$SILENCE,25502.8710368718,-13578.081259498747,-18789.658700187054,-6589.651893335807,-187500.02235174447,-187500.02235174447,-187500.02235174447,-187500.02235174447
$SILENCE,25323.20771494004,-13711.320008196833,-19187.542103235974,-6682.076356658502,-187500.02235174447,-187500.02235174447,-187500.02235174447,-187500.02235174447
$SILENCE,25321.59838933926,-13646.052914387335,-19209.67033024673,-6628.2757077545775,-187500.02235174447,-187500.02235174447,-187500.02235174447,-187500.02235174447
$SILENCE,25469.969269033583,-13528.549793785787,-18874.483570394943,-6560.371108099354,-187500.02235174447,-187500.02235174447,-187500.02235174447,-187500.02235174447
$SILENCE,25508.213103796614,-13559.998698234403,-18767.70928713194,-6606.192184232734,-187500.02235174447,-187500.02235174447,-187500.02235174447,-187500.02235174447
$SILENCE,25337.132851735696,-13700.546467369375,-19152.651030141238,-6715.715732063739,-187500.02235174447,-187500.02235174447,-187500.02235174447,-187500.02235174447
$SILENCE,25297.95024370554,-13671.198626899557,-19261.28050819403,-6680.355272335443,-187500.02235174447,-187500.02235174447,-187500.02235174447,-187500.02235174447
$SILENCE,25433.960608716086,-13548.912232984572,-18947.260850341423,-6561.2428261331115,-187500.02235174447,-187500.02235174447,-187500.02235174447,-187500.02235174447
$SILENCE,25537.38213031079,-13526.24756410689,-18726.872650012094,-6547.988241671114,-187500.02235174447,-187500.02235174447,-187500.02235174447,-187500.02235174447
$SILENCE,25383.713887180555,-13676.697156035561,-19063.378162786743,-6684.624455526407,-187500.02235174447,-187500.02235174447,-187500.02235174447,-187500.02235174447
$SILENCE,25306.265092642916,-13673.32204262281,-19256.72075232515,-6683.3951095813645,-187500.02235174447,-187500.02235174447,-187500.02235174447,-187500.02235174447
$SILENCE,25423.634102777734,-13554.030782464837,-18992.925464263615,-6588.288436924034,-187500.02235174447,-187500.02235174447,-187500.02235174447,-187500.02235174447
$SILENCE,25522.38410978128,-13520.570221015243,-18738.272039684303,-6576.576122829452,-187500.02235174447,-187500.02235174447,-187500.02235174447,-187500.02235174447
$SILENCE,25386.016116859453,-13669.924577465605,-19014.3384354518,-6692.9616562082365,-187500.02235174447,-187500.02235174447,-187500.02235174447,-187500.02235174447
$SILENCE,25281.09702838624,-13707.296694194878,-19278.737220613628,-6697.94609522177,-187500.02235174447,-187500.02235174447,-187500.02235174447,-187500.02235174447
$SILENCE,25400.36593679976,-13575.376698419655,-19045.38500850022,-6564.796753501506,-187500.02235174447,-187500.02235174447,-187500.02235174447,-187500.02235174447
$SILENCE,25533.649388986756,-13520.592572759697,-18734.4722431269,-6518.819215156939,-187500.02235174447,-187500.02235174447,-187500.02235174447,-187500.02235174447
$SILENCE,25421.443631821112,-13656.51353079242,-18937.001399636436,-6644.659536440317,-187500.02235174447,-187500.02235174447,-187500.02235174447,-187500.02235174447
$SILENCE,25284.58390052127,-13716.036226276903,-19275.451514178698,-6737.28516546311,-187500.02235174447,-187500.02235174447,-187500.02235174447,-187500.02235174447
$SILENCE,25359.30578223536,-13595.806192851805,-19128.242925196046,-6655.723649945695,-187500.02235174447,-187500.02235174447,-187500.02235174447,-187500.02235174447
$SILENCE,25499.831199625874,-13510.333122054712,-18785.747144907375,-6564.617939545863,-187500.02235174447,-187500.02235174447,-187500.02235174447,-187500.02235174447
$SILENCE,25454.36775140378,-13595.537971918342,-18860.424323132556,-6632.299021756533,-187500.02235174447,-187500.02235174447,-187500.02235174447,-187500.02235174447
$SILENCE,25299.648976284145,-13702.781641814905,-19232.603220057874,-6677.673063000806,-187500.02235174447,-187500.02235174447,-187500.02235174447,-187500.02235174447
$SILENCE,25344.374816939213,-13623.03061759837,-19161.278803500987,-6611.176623246268,-187500.02235174447,-187500.02235174447,-187500.02235174447,-187500.02235174447
$SILENCE,25494.578539678878,-13522.179546616024,-18815.184392355015,-6579.213628675178,-187500.02235174447,-187500.02235174447,-187500.02235174447,-187500.02235174447
$SILENCE,25490.644632654745,-13582.171628734068,-18796.67714794602,-6633.662478168307,-187500.02235174447,-187500.02235174447,-187500.02235174447,-187500.02235174447
$SILENCE,25312.836505512776,-13708.593095373286,-19200.729632464605,-6726.556328124563,-187500.02235174447,-187500.02235174447,-187500.02235174447,-187500.02235174447
$SILENCE,25309.528447333392,-13650.70207723404,-19225.562420554452,-6660.417516281309,-187500.02235174447,-187500.02235174447,-187500.02235174447,-187500.02235174447
$SILENCE,25464.023705008472,-13531.164947887059,-18888.65457637961,-6556.213683630667,-187500.02235174447,-187500.02235174447,-187500.02235174447,-187500.02235174447
$SILENCE,25498.80301938093,-13554.701334798496,-18768.178673765502,-6597.430300406254,-187500.02235174447,-187500.02235174447,-187500.02235174447,-187500.02235174447
$SILENCE,25333.24364820047,-13696.366691156232,-19139.84348056835,-6694.727444020205,-187500.02235174447,-187500.02235174447,-187500.02235174447,-187500.02235174447
$SILENCE,25300.543046062357,-13667.398830342154,-19242.14741494029,-6629.326239743977,-187500.02235174447,-187500.02235174447,-187500.02235174447,-187500.02235174447
$SILENCE,25439.392082618724,-13547.146445172602,-18936.867289169706,-6542.15443636828,-187500.02235174447,-187500.02235174447,-187500.02235174447,-187500.02235174447
$SILENCE,25517.086746345372,-13546.095913183202,-18743.5246996313,-6613.635315136352,-187500.02235174447,-187500.02235174447,-187500.02235174447,-187500.02235174447
$SILENCE,25355.8859653337,-13703.787470315394,-19090.088497410834,-6748.997479557691,-187500.02235174447,-187500.02235174447,-187500.02235174447,-187500.02235174447
$SILENCE,25273.139807360152,-13696.90313302316,-19294.025813821056,-6727.673915347328,-187500.02235174447,-187500.02235174447,-187500.02235174447,-187500.02235174447
$SILENCE,25406.46796303606,-13546.699410283496,-19011.879743561716,-6589.562486357986,-187500.02235174447,-187500.02235174447,-187500.02235174447,-187500.02235174447
$SILENCE,25529.849592429353,-13510.087252865704,-18722.581115076675,-6541.238014845612,-187500.02235174447,-187500.02235174447,-187500.02235174447,-187500.02235174447
$SILENCE,25407.093811880808,-13653.22782435749,-18982.598958325263,-6659.702260458739,-187500.02235174447,-187500.02235174447,-187500.02235174447,-187500.02235174447
$SILENCE,25286.37204007769,-13705.57560987182,-19272.858711821882,-6700.3600836229425,-187500.02235174447,-187500.02235174447,-187500.02235174447,-187500.02235174447
$SILENCE,25373.767360897942,-13584.898541557615,-19077.146837371212,-6607.645047622329,-187500.02235174447,-187500.02235174447,-187500.02235174447,-187500.02235174447
$SILENCE,25502.513408960513,-13519.452633792476,-18757.561595149233,-6547.0941718929025,-187500.02235174447,-187500.02235174447,-187500.02235174447,-187500.02235174447
$SILENCE,25419.923713198154,-13649.293917333356,-18933.201603079033,-6670.632263497385,-187500.02235174447,-187500.02235174447,-187500.02235174447,-187500.02235174447
$SILENCE,25279.130074874174,-13711.320008196833,-19268.768342586558,-6720.320191421532,-187500.02235174447,-187500.02235174447,-187500.02235174447,-187500.02235174447
$SILENCE,25352.466148432035,-13590.397070693622,-19126.231268195068,-6618.955030316714,-187500.02235174447,-187500.02235174447,-187500.02235174447,-187500.02235174447
$SILENCE,25505.597949695344,-13504.231095818413,-18781.008575082848,-6556.258387119578,-187500.02235174447,-187500.02235174447,-187500.02235174447,-187500.02235174447
$SILENCE,25461.341495673838,-13604.83629761175,-18847.415607859566,-6632.813111879005,-187500.02235174447,-187500.02235174447,-187500.02235174447,-187500.02235174447
$SILENCE,25299.224293139494,-13712.884630308705,-19227.439967088696,-6689.631246284395,-187500.02235174447,-187500.02235174447,-187500.02235174447,-187500.02235174447
$SILENCE,25332.371930166715,-13631.680742702574,-19176.433286241685,-6624.699428641728,-187500.02235174447,-187500.02235174447,-187500.02235174447,-187500.02235174447
$SILENCE,25478.597042393332,-13531.05318916478,-18840.754788011884,-6576.374957129355,-187500.02235174447,-187500.02235174447,-187500.02235174447,-187500.02235174447
$SILENCE,25468.829330066364,-13597.773146363872,-18816.614904000155,-6635.562376447007,-187500.02235174447,-187500.02235174447,-187500.02235174447,-187500.02235174447
$SILENCE,25294.463371570513,-13726.563897915352,-19200.930798164703,-6698.728406277705,-187500.02235174447,-187500.02235174447,-187500.02235174447,-187500.02235174447
$SILENCE,25313.238836912973,-13648.802178955339,-19210.94437968068,-6624.721780386184,-187500.02235174447,-187500.02235174447,-187500.02235174447,-187500.02235174447
$SILENCE,25464.38133291976,-13531.455520564978,-18882.351384443213,-6558.292395865011,-187500.02235174447,-187500.02235174447,-187500.02235174447,-187500.02235174447
$SILENCE,25502.84868512734,-13547.68288703953,-18748.129158989093,-6589.026044491058,-187500.02235174447,-187500.02235174447,-187500.02235174447,-187500.02235174447
$SILENCE,25331.500212132956,-13699.339473168788,-19135.753111333026,-6710.597182583473,-187500.02235174447,-187500.02235174447,-187500.02235174447,-187500.02235174447
$SILENCE,25295.692717515554,-13679.75934502594,-19261.124045982844,-6677.315435089521,-187500.02235174447,-187500.02235174447,-187500.02235174447,-187500.02235174447
$SILENCE,25433.960608716086,-13545.53711957182,-18958.10144640225,-6578.6771868082515,-187500.02235174447,-187500.02235174447,-187500.02235174447,-187500.02235174447
$SILENCE,25516.215028311617,-13534.96474444446,-18739.836661796173,-6566.651948291296,-187500.02235174447,-187500.02235174447,-187500.02235174447,-187500.02235174447
$SILENCE,25368.58175618431,-13691.829287031806,-19069.323726811854,-6688.044272428068,-187500.02235174447,-187500.02235174447,-187500.02235174447,-187500.02235174447
$SILENCE,25276.29140332835,-13707.564915128341,-19281.48648518163,-6679.863533957427,-187500.02235174447,-187500.02235174447,-187500.02235174447,-187500.02235174447
$SILENCE,25394.710945452567,-13581.791649078328,-19024.307313478865,-6579.280683908544,-187500.02235174447,-187500.02235174447,-187500.02235174447,-187500.02235174447
$SILENCE,25516.527952733988,-13530.404988575578,-18733.46641462641,-6543.272023591045,-187500.02235174447,-187500.02235174447,-187500.02235174447,-187500.02235174447
$SILENCE,25403.428125790135,-13657.921690693103,-18975.55815882184,-6653.466123755708,-187500.02235174447,-187500.02235174447,-187500.02235174447,-187500.02235174447
$SILENCE,25277.43134229557,-13705.597961616275,-19277.217301990666,-6718.0850169760015,-187500.02235174447,-187500.02235174447,-187500.02235174447,-187500.02235174447
$SILENCE,25375.242576031993,-13585.032652024347,-19087.853322965304,-6627.269879254089,-187500.02235174447,-187500.02235174447,-187500.02235174447,-187500.02235174447
$SILENCE,25518.830182412887,-13512.612999989153,-18760.064990528226,-6567.814239002972,-187500.02235174447,-187500.02235174447,-187500.02235174447,-187500.02235174447
$SILENCE,25441.94018148663,-13636.50871950492,-18909.017015578393,-6653.242606311155,-187500.02235174447,-187500.02235174447,-187500.02235174447,-187500.02235174447
$SILENCE,25287.221406366996,-13724.082854280812,-19263.8956622953,-6702.528202835108,-187500.02235174447,-187500.02235174447,-187500.02235174447,-187500.02235174447
$SILENCE,25332.282523188893,-13626.830414155773,-19160.876472100794,-6634.64595492434,-187500.02235174447,-187500.02235174447,-187500.02235174447,-187500.02235174447
$SILENCE,25483.179150006672,-13521.374883815633,-18802.645063715587,-6521.322610535934,-187500.02235174447,-187500.02235174447,-187500.02235174447,-187500.02235174447
$SILENCE,25461.252088696016,-13598.622512653175,-18838.989000199916,-6574.20683791719,-187500.02235174447,-187500.02235174447,-187500.02235174447,-187500.02235174447
$SILENCE,25304.834580997776,-13714.359845442754,-19227.775243255528,-6718.688514076294,-187500.02235174447,-187500.02235174447,-187500.02235174447,-187500.02235174447
$SILENCE,25351.10269202026,-13639.749722450939,-19181.976518866602,-6678.433022312287,-187500.02235174447,-187500.02235174447,-187500.02235174447,-187500.02235174447
$SILENCE,25499.048888569938,-13526.068750151248,-18837.82670948824,-6580.130050197846,-187500.02235174447,-187500.02235174447,-187500.02235174447,-187500.02235174447
$SILENCE,25498.870074614297,-13584.652672368607,-18788.652871686565,-6604.828727820961,-187500.02235174447,-187500.02235174447,-187500.02235174447,-187500.02235174447
$SILENCE,25309.304929888836,-13727.592078160296,-19193.577074238907,-6703.04229295758,-187500.02235174447,-187500.02235174447,-187500.02235174447,-187500.02235174447
$SILENCE,25288.897787201142,-13656.737048236973,-19243.890851007804,-6660.12694360339,-187500.02235174447,-187500.02235174447,-187500.02235174447,-187500.02235174447
$SILENCE,25443.303637898403,-13529.577974030732,-18904.099631798224,-6569.267102392567,-187500.02235174447,-187500.02235174447,-187500.02235174447,-187500.02235174447
$SILENCE,25515.589179466868,-13556.35536388819,-18748.509138644833,-6581.001768231603,-187500.02235174447,-187500.02235174447,-187500.02235174447,-187500.02235174447
$SILENCE,25348.576944896813,-13711.722339597029,-19121.1127187148,-6694.347464364465,-187500.02235174447,-187500.02235174447,-187500.02235174447,-187500.02235174447
$SILENCE,25295.178627393085,-13691.337548653788,-19262.71101983917,-6680.467031057719,-187500.02235174447,-187500.02235174447,-187500.02235174447,-187500.02235174447
$SILENCE,25428.484431324534,-13569.654651839097,-18969.277318629902,-6575.369128628866,-187500.02235174447,-187500.02235174447,-187500.02235174447,-187500.02235174447
$SILENCE,25525.87098191631,-13525.353494328678,-18733.444062881954,-6565.757878513084,-187500.02235174447,-187500.02235174447,-187500.02235174447,-187500.02235174447
$SILENCE,25370.772227140933,-13688.632987574696,-19059.556014484886,-6702.930534235303,-187500.02235174447,-187500.02235174447,-187500.02235174447,-187500.02235174447
$SILENCE,25309.05906069983,-13690.46583062003,-19257.57011861445,-6687.463127072231,-187500.02235174447,-187500.02235174447,-187500.02235174447,-187500.02235174447
$SILENCE,25426.070442923363,-13563.686736069529,-19009.197534227078,-6567.568369813964,-187500.02235174447,-187500.02235174447,-187500.02235174447,-187500.02235174447
$SILENCE,25541.874830946308,-13530.15911938657,-18720.502402842332,-6520.205023313168,-187500.02235174447,-187500.02235174447,-187500.02235174447,-187500.02235174447
$SILENCE,25397.348451298294,-13677.345356624766,-18986.42110662712,-6672.196885609256,-187500.02235174447,-187500.02235174447,-187500.02235174447,-187500.02235174447
$SILENCE,25269.205900336015,-13715.231563476511,-19293.33290974294,-6721.437778644297,-187500.02235174447,-187500.02235174447,-187500.02235174447,-187500.02235174447
$SILENCE,25384.518549980945,-13566.704221570995,-19077.392706560222,-6601.431262663754,-187500.02235174447,-187500.02235174447,-187500.02235174447,-187500.02235174447
$SILENCE,25520.52891499149,-13502.107680095158,-18751.347810190655,-6542.735581724118,-187500.02235174447,-187500.02235174447,-187500.02235174447,-187500.02235174447
$SILENCE,25441.94018148663,-13626.69630368904,-18905.2619225099,-6648.548739975541,-187500.02235174447,-187500.02235174447,-187500.02235174447,-187500.02235174447
$SILENCE,25276.00083065043,-13724.395778703187,-19275.652679878793,-6717.548575109074,-187500.02235174447,-187500.02235174447,-187500.02235174447,-187500.02235174447
$SILENCE,25351.14739550917,-13619.163765807602,-19138.256506712023,-6602.012408019592,-187500.02235174447,-187500.02235174447,-187500.02235174447,-187500.02235174447
$SILENCE,25520.685377202677,-13525.91228794006,-18777.946386092473,-6545.060163147469,-187500.02235174447,-187500.02235174447,-187500.02235174447,-187500.02235174447
não,25481.927452317173,-13618.3143995183,-18837.91611646606,-6641.0162020941025,-187500.02235174447,-187500.02235174447,-187500.02235174447,-187500.02235174447
não,25301.63828154067,-13731.48128169552,-19232.26794389104,-6728.1209502364345,-187500.02235174447,-187500.02235174447,-187500.02235174447,-187500.02235174447
não,25329.466203387525,-13642.02960038538,-19197.37687079631,-6650.694507443251,-187500.02235174447,-187500.02235174447,-187500.02235174447,-187500.02235174447
não,25480.765161605497,-13522.000732660383,-18852.288288150823,-6566.629596546841,-187500.02235174447,-187500.02235174447,-187500.02235174447,-187500.02235174447
não,25500.81467638191,-13569.140561716624,-18778.393420981578,-6605.2087074767005,-187500.02235174447,-187500.02235174447,-187500.02235174447,-187500.02235174447
não,25322.000720739452,-13719.76896760094,-19179.741344421072,-6706.439758114786,-187500.02235174447,-187500.02235174447,-187500.02235174447,-187500.02235174447
não,25307.986176965976,-13664.381344840687,-19233.609048558363,-6650.962728376714,-187500.02235174447,-187500.02235174447,-187500.02235174447,-187500.02235174447
não,25458.815748550387,-13538.16104390157,-18903.920817842583,-6553.330308595933,-187500.02235174447,-187500.02235174447,-187500.02235174447,-187500.02235174447
não,25517.04204285646,-13554.455465609488,-18749.023228767306,-6578.945407741715,-187500.02235174447,-187500.02235174447,-187500.02235174447,-187500.02235174447
não,25352.77907285441,-13710.984732030003,-19115.12245120078,-6697.521412077119,-187500.02235174447,-187500.02235174447,-187500.02235174447,-187500.02235174447
não,25312.233008412484,-13688.297711407866,-19250.1940429442,-6657.176513335289,-187500.02235174447,-187500.02235174447,-187500.02235174447,-187500.02235174447
não,25451.976114747064,-13547.191148661514,-18953.854614955737,-6557.979471442637,-187500.02235174447,-187500.02235174447,-187500.02235174447,-187500.02235174447
não,25542.657142002245,-13531.209651375968,-18722.491708098856,-6560.0134801880695,-187500.02235174447,-187500.02235174447,-187500.02235174447,-187500.02235174447
não,25382.082209835316,-13690.599941086763,-19047.798996901394,-6704.204583669256,-187500.02235174447,-187500.02235174447,-187500.02235174447,-187500.02235174447
não,25281.34289757525,-13706.00029301647,-19287.52145618456,-6698.840164999982,-187500.02235174447,-187500.02235174447,-187500.02235174447,-187500.02235174447
não,25402.757573456478,-13575.935492031038,-19033.985618828014,-6573.782154772539,-187500.02235174447,-187500.02235174447,-187500.02235174447,-187500.02235174447
não,25535.97397041011,-13510.53428775481,-18722.402301121034,-6521.590831469397,-187500.02235174447,-187500.02235174447,-187500.02235174447,-187500.02235174447
não,25414.738108484522,-13648.623364999696,-18959.12962664719,-6656.528312746086,-187500.02235174447,-187500.02235174447,-187500.02235174447,-187500.02235174447
não,25276.492569028447,-13716.550316399374,-19283.43108694924,-6716.475691375219,-187500.02235174447,-187500.02235174447,-187500.02235174447,-187500.02235174447
não,25371.219262030037,-13601.416480710088,-19092.837761978837,-6614.0152947920915,-187500.02235174447,-187500.02235174447,-187500.02235174447,-187500.02235174447
não,25533.6270372423,-13514.781119201318,-18742.965906019916,-6531.269136818545,-187500.02235174447,-187500.02235174447,-187500.02235174447,-187500.02235174447
não,25472.919699301685,-13620.728387919473,-18869.32031742577,-6617.569222160486,-187500.02235174447,-187500.02235174447,-187500.02235174447,-187500.02235174447
não,25312.992967723963,-13719.321932711833,-19237.05121720448,-6682.1657636363225,-187500.02235174447,-187500.02235174447,-187500.02235174447,-187500.02235174447
não,25366.16776778314,-13624.595239710241,-19138.234154967566,-6626.97930657617,-187500.02235174447,-187500.02235174447,-187500.02235174447,-187500.02235174447
não,25504.994452595052,-13529.19799437499,-18799.739336936396,-6570.496448337609,-187500.02235174447,-187500.02235174447,-187500.02235174447,-187500.02235174447
não,25479.13348426026,-13591.3581957052,-18827.880183205627,-6622.576012918475,-187500.02235174447,-187500.02235174447,-187500.02235174447,-187500.02235174447
não,25307.82971475479,-13716.416205932643,-19223.260190875553,-6704.741025536183,-187500.02235174447,-187500.02235174447,-187500.02235174447,-187500.02235174447
não,25349.35925595275,-13635.79346368235,-19190.447830015164,-6613.344742458433,-187500.02235174447,-187500.02235174447,-187500.02235174447,-187500.02235174447
não,25502.111077560316,-13521.91132568256,-18836.887936221116,-6513.901831376771,-187500.02235174447,-187500.02235174447,-187500.02235174447,-187500.02235174447
não,25522.540571992467,-13572.44861989601,-18754.454702669944,-6586.410890389788,-187500.02235174447,-187500.02235174447,-187500.02235174447,-187500.02235174447
não,25342.430215171604,-13704.994464515981,-19144.425588181686,-6686.524353805108,-187500.02235174447,-187500.02235174447,-187500.02235174447,-187500.02235174447
não,25329.376796409702,-13648.310440577323,-19219.415690829243,-6637.261109025611,-187500.02235174447,-187500.02235174447,-187500.02235174447,-187500.02235174447
não,25464.761312575498,-13529.801491475284,-18905.798364376828,-6560.169942399257,-187500.02235174447,-187500.02235174447,-187500.02235174447,-187500.02235174447
não,25525.580409238388,-13546.2970788833,-18743.390589164566,-6594.815146304983,-187500.02235174447,-187500.02235174447,-187500.02235174447,-187500.02235174447
não,25378.48357897801,-13695.00323474446,-19086.512218297987,-6682.635150269884,-187500.02235174447,-187500.02235174447,-187500.02235174447,-187500.02235174447
não,25323.051252728852,-13688.2306561745,-19244.76256904156,-6622.866585596394,-187500.02235174447,-187500.02235174447,-187500.02235174447,-187500.02235174447
não,25441.00140821951,-13552.801436519794,-18970.014926196924,-6554.91728245226,-187500.02235174447,-187500.02235174447,-187500.02235174447,-187500.02235174447
não,25535.90691517674,-13522.045436149292,-18728.303161657233,-6575.2126664176785,-187500.02235174447,-187500.02235174447,-187500.02235174447,-187500.02235174447
não,25411.675919494144,-13683.223865416512,-19018.451156431576,-6683.886847959381,-187500.02235174447,-187500.02235174447,-187500.02235174447,-187500.02235174447
não,25311.62951131219,-13693.95270275506,-19262.643964605806,-6696.51558357663,-187500.02235174447,-187500.02235174447,-187500.02235174447,-187500.02235174447
não,25422.784736488433,-13561.026878479348,-19022.42976694462,-6574.9220937397595,-187500.02235174447,-187500.02235174447,-187500.02235174447,-187500.02235174447
não,25550.97199093962,-13507.069767364237,-18711.919332971494,-6527.2905263055,-187500.02235174447,-187500.02235174447,-187500.02235174447,-187500.02235174447
não,25438.810937262886,-13635.88287066017,-18926.98781812046,-6628.07454205448,-187500.02235174447,-187500.02235174447,-187500.02235174447,-187500.02235174447
não,25306.510961831926,-13707.1849354726,-19260.699362838193,-6674.7673362216165,-187500.02235174447,-187500.02235174447,-187500.02235174447,-187500.02235174447
não,25386.68666919311,-13609.820736625283,-19099.610340548796,-6591.104756725402,-187500.02235174447,-187500.02235174447,-187500.02235174447,-187500.02235174447
não,25532.68826397518,-13509.662569721053,-18750.878423557097,-6530.486825762609,-187500.02235174447,-187500.02235174447,-187500.02235174447,-187500.02235174447
não,25480.04990578293,-13607.965541835492,-18857.473892864455,-6632.07550431198,-187500.02235174447,-187500.02235174447,-187500.02235174447,-187500.02235174447
não,25309.975482222497,-13707.766080828438,-19237.967638727147,-6710.932458750303,-187500.02235174447,-187500.02235174447,-187500.02235174447,-187500.02235174447
não,25347.235840229492,-13613.419367482587,-19163.0222395685,-6630.935565344759,-187500.02235174447,-187500.02235174447,-187500.02235174447,-187500.02235174447
não,25497.14899029124,-13516.703369224475,-18816.793717955796,-6547.2729858485445,-187500.02235174447,-187500.02235174447,-187500.02235174447,-187500.02235174447
não,25505.217970039605,-13587.089012514236,-18793.950235122473,-6569.892951237315,-187500.02235174447,-187500.02235174447,-187500.02235174447,-187500.02235174447
não,25346.45352917356,-13701.865220292239,-19172.633489684285,-6648.436981253265,-187500.02235174447,-187500.02235174447,-187500.02235174447,-187500.02235174447
não,25354.343694966283,-13633.31242004781,-19174.354574007342,-6606.482756910653,-187500.02235174447,-187500.02235174447,-187500.02235174447,-187500.02235174447
não,25497.48426645807,-13519.273819836835,-18836.3961978431,-6530.933860651715,-187500.02235174447,-187500.02235174447,-187500.02235174447,-187500.02235174447
não,25521.914723147718,-13560.758657545884,-18754.544109647766,-6588.914285768782,-187500.02235174447,-187500.02235174447,-187500.02235174447,-187500.02235174447
não,25336.886982546686,-13705.463851149541,-19159.043629055457,-6697.811984755038,-187500.02235174447,-187500.02235174447,-187500.02235174447,-187500.02235174447
não,25303.940511219564,-13654.926556936092,-19244.80727253047,-6646.31356553001,-187500.02235174447,-187500.02235174447,-187500.02235174447,-187500.02235174447
não,25455.351228159816,-13542.564337559264,-18920.729329672973,-6558.717079009662,-187500.02235174447,-187500.02235174447,-187500.02235174447,-187500.02235174447
não,25534.699920976152,-13538.652782279585,-18724.078681955183,-6559.700555765696,-187500.02235174447,-187500.02235174447,-187500.02235174447,-187500.02235174447
não,25388.340698282802,-13689.102374208258,-19064.562805242873,-6659.456391269731,-187500.02235174447,-187500.02235174447,-187500.02235174447,-187500.02235174447
não,25324.459412629538,-13677.971205469514,-19243.19794692969,-6662.339766304465,-187500.02235174447,-187500.02235174447,-187500.02235174447,-187500.02235174447
não,25433.580629060347,-13562.233872679935,-18981.771943780415,-6573.558637327986,-187500.02235174447,-187500.02235174447,-187500.02235174447,-187500.02235174447
não,25529.514316262525,-13533.422474077044,-18737.668542584008,-6545.306032336478,-187500.02235174447,-187500.02235174447,-187500.02235174447,-187500.02235174447
não,25408.099640381297,-13673.880836234193,-19005.867124303237,-6646.224158552189,-187500.02235174447,-187500.02235174447,-187500.02235174447,-187500.02235174447
não,25329.19798245406,-13686.04018521788,-19239.308743394464,-6652.147370832846,-187500.02235174447,-187500.02235174447,-187500.02235174447,-187500.02235174447
não,25423.902323711198,-13570.280500683844,-19019.1887639986,-6571.994015216114,-187500.02235174447,-187500.02235174447,-187500.02235174447,-187500.02235174447
não,25546.345179837368,-13515.362264557156,-18705.437327079457,-6523.893061148294,-187500.02235174447,-187500.02235174447,-187500.02235174447,-187500.02235174447
não,25444.756501288,-13645.874100431694,-18913.196791791535,-6622.4642541961975,-187500.02235174447,-187500.02235174447,-187500.02235174447,-187500.02235174447
não,25305.28161588688,-13711.09649075228,-19246.99774348709,-6661.512751759619,-187500.02235174447,-187500.02235174447,-187500.02235174447,-187500.02235174447
não,25383.423314502637,-13600.812983609794,-19088.702689254606,-6579.705367053195,-187500.02235174447,-187500.02235174447,-187500.02235174447,-187500.02235174447
não,25523.099365603848,-13504.611075474153,-18757.069856771213,-6527.0223053720365,-187500.02235174447,-187500.02235174447,-187500.02235174447,-187500.02235174447
não,25451.953763002606,-13615.02869308337,-18896.07535553877,-6644.83835039596,-187500.02235174447,-187500.02235174447,-187500.02235174447,-187500.02235174447
não,25304.879284486688,-13707.542563383886,-19251.915127267257,-6698.7731097666165,-187500.02235174447,-187500.02235174447,-187500.02235174447,-187500.02235174447
não,25362.032695058908,-13609.88779185865,-19147.4207219387,-6600.671303352274,-187500.02235174447,-187500.02235174447,-187500.02235174447,-187500.02235174447
não,25510.761202664522,-13506.980360386415,-18795.827781656717,-6512.3372092649,-187500.02235174447,-187500.02235174447,-187500.02235174447,-187500.02235174447
não,25500.971138593097,-13585.725556102463,-18772.71607788993,-6573.357471627888,-187500.02235174447,-187500.02235174447,-187500.02235174447,-187500.02235174447
não,25328.862706287233,-13709.353054684765,-19190.60429222635,-6672.934493176281,-187500.02235174447,-187500.02235174447,-187500.02235174447,-187500.02235174447
não,25344.754796594956,-13629.579678723774,-19227.216449644144,-6605.588687132441,-187500.02235174447,-187500.02235174447,-187500.02235174447,-187500.02235174447
não,25483.38031570677,-13508.813203431751,-18872.851893049705,-6519.042732601492,-187500.02235174447,-187500.02235174447,-187500.02235174447,-187500.02235174447
não,25525.49100226057,-13546.699410283496,-18752.107769502138,-6558.314747609466,-187500.02235174447,-187500.02235174447,-187500.02235174447,-187500.02235174447
não,25353.091997276784,-13691.024624231413,-19150.997001051546,-6688.580714294996,-187500.02235174447,-187500.02235174447,-187500.02235174447,-187500.02235174447
não,25329.5779621098,-13653.406638313132,-19237.498252093585,-6647.274690541589,-187500.02235174447,-187500.02235174447,-187500.02235174447,-187500.02235174447
não,25474.685487113657,-13517.776252958329,-18921.109309328713,-6544.05433464698,-187500.02235174447,-187500.02235174447,-187500.02235174447,-187500.02235174447
não,25555.28587761949,-13509.886087165605,-18711.069966682193,-6541.997974157092,-187500.02235174447,-187500.02235174447,-187500.02235174447,-187500.02235174447
não,25384.7420674255,-13668.89639722066,-19061.05358136339,-6658.338804046965,-187500.02235174447,-187500.02235174447,-187500.02235174447,-187500.02235174447
não,25317.999758481954,-13663.777847740395,-19235.888926492804,-6630.957917089215,-187500.02235174447,-187500.02235174447,-187500.02235174447,-187500.02235174447
não,25439.257972151994,-13541.133825914125,-18964.18112089409,-6530.419770529244,-187500.02235174447,-187500.02235174447,-187500.02235174447,-187500.02235174447
não,25539.86317394533,-13508.902610409572,-18717.104937685126,-6507.464528973643,-187500.02235174447,-187500.02235174447,-187500.02235174447,-187500.02235174447
não,25419.543733542414,-13652.423161557099,-18980.56494957983,-6613.612963391896,-187500.02235174447,-187500.02235174447,-187500.02235174447,-187500.02235174447
não,25328.795651053864,-13686.017833473425,-19240.113406194854,-6637.93166135927,-187500.02235174447,-187500.02235174447,-187500.02235174447,-187500.02235174447
não,25420.102527153795,-13565.832503537238,-19026.162508268655,-6542.981450913126,-187500.02235174447,-187500.02235174447,-187500.02235174447,-187500.02235174447
não,25543.081825146895,-13505.974531885926,-18712.746347516342,-6502.256572515556,-187500.02235174447,-187500.02235174447,-187500.02235174447,-187500.02235174447
não,25447.32695190036,-13636.039332871358,-18895.918893327584,-6608.673227867273,-187500.02235174447,-187500.02235174447,-187500.02235174447,-187500.02235174447
não,25313.797630524354,-13693.975054499515,-19225.182440898712,-6647.855835897427,-187500.02235174447,-187500.02235174447,-187500.02235174447,-187500.02235174447
não,25383.40096275818,-13590.59823639372,-19078.242072849524,-6545.574253269941,-187500.02235174447,-187500.02235174447,-187500.02235174447,-187500.02235174447
não,25529.15668835124,-13510.57899124372,-18731.18653669197,-6476.7755838365065,-187500.02235174447,-187500.02235174447,-187500.02235174447,-187500.02235174447
não,25485.101400029827,-13608.703149402518,-18826.78494772732,-6576.598474573908,-187500.02235174447,-187500.02235174447,-187500.02235174447,-187500.02235174447
não,25310.713089789522,-13710.649455863173,-19206.00464415606,-6662.339766304465,-187500.02235174447,-187500.02235174447,-187500.02235174447,-187500.02235174447
não,25347.548764651867,-13637.112216605214,-19134.970800277093,-6587.036739234536,-187500.02235174447,-187500.02235174447,-187500.02235174447,-187500.02235174447
não,25500.881731615274,-13529.600325775185,-18785.121296062625,-6493.494688689076,-187500.02235174447,-187500.02235174447,-187500.02235174447,-187500.02235174447
não,25505.374432250792,-13587.647806125618,-18754.85703407014,-6550.156360883279,-187500.02235174447,-187500.02235174447,-187500.02235174447,-187500.02235174447
não,25335.277656945906,-13726.496842681987,-19152.0698847854,-6656.282443557077,-187500.02235174447,-187500.02235174447,-187500.02235174447,-187500.02235174447
não,25343.570154138823,-13661.922652950605,-19166.26324251452,-6602.615905119885,-187500.02235174447,-187500.02235174447,-187500.02235174447,-187500.02235174447
não,25501.28406301547,-13547.325259128245,-18818.15717436757,-6506.682217917707,-187500.02235174447,-187500.02235174447,-187500.02235174447,-187500.02235174447
não,25565.433569602203,-13571.219273950968,-18673.69784995292,-6517.9251453787265,-187500.02235174447,-187500.02235174447,-187500.02235174447,-187500.02235174447
não,25386.284337792917,-13726.988581060003,-19066.44035177712,-6651.901501643837,-187500.02235174447,-187500.02235174447,-187500.02235174447,-187500.02235174447
não,25335.992912768474,-13699.115955724235,-19179.383716509787,-6648.682850442273,-187500.02235174447,-187500.02235174447,-187500.02235174447,-187500.02235174447
não,25475.42309468068,-13529.175642630535,-18864.15706445659,-6551.229244617134,-187500.02235174447,-187500.02235174447,-187500.02235174447,-187500.02235174447
não,25558.795101498974,-13513.529421511821,-18647.63571591803,-6561.7122127666735,-187500.02235174447,-187500.02235174447,-187500.02235174447,-187500.02235174447
não,25402.332890311827,-13684.430859617098,-18985.705850804552,-6693.60985679744,-187500.02235174447,-187500.02235174447,-187500.02235174447,-187500.02235174447
não,25334.137717978683,-13684.497914850464,-19179.60723395434,-6665.3125483170215,-187500.02235174447,-187500.02235174447,-187500.02235174447,-187500.02235174447
não,25459.687466584142,-13554.500169098399,-18907.87707661117,-6546.133046881324,-187500.02235174447,-187500.02235174447,-187500.02235174447,-187500.02235174447
não,25563.779540512507,-13534.741226999908,-18646.02639031725,-6532.476131019132,-187500.02235174447,-187500.02235174447,-187500.02235174447,-187500.02235174447
não,25415.140439884715,-13685.056708461847,-18928.597143721243,-6653.533178989074,-187500.02235174447,-187500.02235174447,-187500.02235174447,-187500.02235174447
não,25323.654749829144,-13694.220923688523,-19187.31858579142,-6669.358214063432,-187500.02235174447,-187500.02235174447,-187500.02235174447,-187500.02235174447
não,25439.280323896448,-13561.317451157267,-18959.978992936492,-6587.68493982374,-187500.02235174447,-187500.02235174447,-187500.02235174447,-187500.02235174447
não,25561.58906955589,-13529.309753097266,-18663.416047503477,-6559.991128443615,-187500.02235174447,-187500.02235174447,-187500.02235174447,-187500.02235174447
não,25472.539719645945,-13633.245364814446,-18825.019159915348,-6634.713010157706,-187500.02235174447,-187500.02235174447,-187500.02235174447,-187500.02235174447
não,25340.038578514886,-13681.480429348998,-19155.444998198152,-6666.497190773152,-187500.02235174447,-187500.02235174447,-187500.02235174447,-187500.02235174447
não,25400.164771099662,-13576.717803086973,-19032.62216241624,-6605.342817943432,-187500.02235174447,-187500.02235174447,-187500.02235174447,-187500.02235174447
não,25540.310208834435,-13513.171793600535,-18697.23423686436,-6555.699593508196,-187500.02235174447,-187500.02235174447,-187500.02235174447,-187500.02235174447
não,25516.3714905228,-13576.941320531527,-18745.603411865643,-6610.684884868251,-187500.02235174447,-187500.02235174447,-187500.02235174447,-187500.02235174447
não,25352.309686220848,-13670.304557121344,-19127.84059379585,-6667.100687873446,-187500.02235174447,-187500.02235174447,-187500.02235174447,-187500.02235174447
não,25362.099750292273,-13626.539841477854,-19102.96310221709,-6640.613870693907,-187500.02235174447,-187500.02235174447,-187500.02235174447,-187500.02235174447
não,25498.892426358754,-13515.63048549062,-18761.897833573563,-6588.0649194794805,-187500.02235174447,-187500.02235174447,-187500.02235174447,-187500.02235174447
não,25515.320958533404,-13568.827637294251,-18706.28669336876,-6621.0560942955135,-187500.02235174447,-187500.02235174447,-187500.02235174447,-187500.02235174447
não,25357.025904300917,-13694.489144621986,-19100.59381730483,-6715.067531474535,-187500.02235174447,-187500.02235174447,-187500.02235174447,-187500.02235174447
não,25363.73142763751,-13623.589411209752,-19123.705521071617,-6653.488475500164,-187500.02235174447,-187500.02235174447,-187500.02235174447,-187500.02235174447
não,25503.698051416643,-13480.80646762925,-18789.85986588715,-6576.240846662623,-187500.02235174447,-187500.02235174447,-187500.02235174447,-187500.02235174447
não,25558.05749393195,-13505.527496996821,-18645.087617050125,-6598.726701584662,-187500.02235174447,-187500.02235174447,-187500.02235174447,-187500.02235174447
não,25386.999593615485,-13640.263812573412,-19017.66884537564,-6712.653543073362,-187500.02235174447,-187500.02235174447,-187500.02235174447,-187500.02235174447
não,25336.43994765758,-13629.177347323579,-19143.755035848026,-6675.974330422203,-187500.02235174447,-187500.02235174447,-187500.02235174447,-187500.02235174447
não,25468.225832966073,-13499.20195331597,-18853.227061417947,-6576.956102485193,-187500.02235174447,-187500.02235174447,-187500.02235174447,-187500.02235174447
não,25544.422929814213,-13480.918226351527,-18650.429683974944,-6568.887122736826,-187500.02235174447,-187500.02235174447,-187500.02235174447,-187500.02235174447
não,25388.675974449634,-13652.199644112545,-18979.67087980162,-6680.645845013362,-187500.02235174447,-187500.02235174447,-187500.02235174447,-187500.02235174447
não,25308.20969441053,-13645.203548098034,-19180.680117688193,-6686.725519505206,-187500.02235174447,-187500.02235174447,-187500.02235174447,-187500.02235174447
não,25424.12584115575,-13507.96383714245,-18923.590352963252,-6620.027914050569,-187500.02235174447,-187500.02235174447,-187500.02235174447,-187500.02235174447
não,25543.975894925108,-13481.924054852016,-18643.567698427167,-6594.658684093796,-187500.02235174447,-187500.02235174447,-187500.02235174447,-187500.02235174447
não,25431.94895171511,-13598.331939975256,-18896.58944566124,-6724.254098445666,-187500.02235174447,-187500.02235174447,-187500.02235174447,-187500.02235174447
não,25322.291293417373,-13635.45818751552,-19185.441039257174,-6717.414464642342,-187500.02235174447,-187500.02235174447,-187500.02235174447,-187500.02235174447
não,25419.096698653306,-13522.403064060578,-18971.736010519984,-6593.786966060039,-187500.02235174447,-187500.02235174447,-187500.02235174447,-187500.02235174447
não,25532.44239478617,-13471.821066358218,-18654.36359099908,-6550.469285305654,-187500.02235174447,-187500.02235174447,-187500.02235174447,-187500.02235174447
não,25450.009161234997,-13595.761489362894,-18815.318502821745,-6652.348536532943,-187500.02235174447,-187500.02235174447,-187500.02235174447,-187500.02235174447
não,25302.465296085513,-13685.436688117587,-19160.630602911784,-6718.844976287482,-187500.02235174447,-187500.02235174447,-187500.02235174447,-187500.02235174447
não,25363.55261368187,-13587.78191659235,-19043.95449685508,-6629.102722299424,-187500.02235174447,-187500.02235174447,-187500.02235174447,-187500.02235174447
não,25516.930284134185,-13493.234037546401,-18695.691966496943,-6587.0143874900805,-187500.02235174447,-187500.02235174447,-187500.02235174447,-187500.02235174447
não,25463.017876507984,-13573.275634440855,-18781.410906483045,-6689.184211395289,-187500.02235174447,-187500.02235174447,-187500.02235174447,-187500.02235174447
não,25285.366211577206,-13682.888589249682,-19189.88903640378,-6757.044107561602,-187500.02235174447,-187500.02235174447,-187500.02235174447,-187500.02235174447
não,25323.610046340233,-13580.338785688733,-19119.88337276976,-6670.207580352733,-187500.02235174447,-187500.02235174447,-187500.02235174447,-187500.02235174447
não,25484.475551185078,-13472.536322180787,-18767.28460398729,-6592.40115790381,-187500.02235174447,-187500.02235174447,-187500.02235174447,-187500.02235174447
não,25499.898254859243,-13535.948221200493,-18717.484917340866,-6632.477835712175,-187500.02235174447,-187500.02235174447,-187500.02235174447,-187500.02235174447
não,25319.92200850511,-13683.827362516806,-19110.339177887345,-6733.038334016602,-187500.02235174447,-187500.02235174447,-187500.02235174447,-187500.02235174447
não,25312.38947062367,-13620.303704774822,-19165.995021581057,-6703.712845291239,-187500.02235174447,-187500.02235174447,-187500.02235174447,-187500.02235174447
não,25452.624315336267,-13513.283552322811,-18836.06092167627,-6591.909419525793,-187500.02235174447,-187500.02235174447,-187500.02235174447,-187500.02235174447
não,25495.696126901643,-13558.702297055996,-18698.910617698504,-6610.036684279047,-187500.02235174447,-187500.02235174447,-187500.02235174447,-187500.02235174447
não,25338.58571512529,-13691.1810864426,-19067.423828533152,-6727.740970580694,-187500.02235174447,-187500.02235174447,-187500.02235174447,-187500.02235174447
não,25312.76945027941,-13649.115103377713,-19186.491571246574,-6681.875190958404,-187500.02235174447,-187500.02235174447,-187500.02235174447,-187500.02235174447
não,25436.531059328445,-13527.879241452127,-18892.32026247028,-6622.754826874117,-187500.02235174447,-187500.02235174447,-187500.02235174447,-187500.02235174447
não,25518.606664968334,-13500.72187193893,-18671.55208248521,-6632.12020780089,-187500.02235174447,-187500.02235174447,-187500.02235174447,-187500.02235174447
não,25380.40582900117,-13653.496045290953,-18974.686440788086,-6746.449380689786,-187500.02235174447,-187500.02235174447,-187500.02235174447,-187500.02235174447
não,25288.696621501043,-13673.210283900535,-19212.15137388127,-6732.390133427398,-187500.02235174447,-187500.02235174447,-187500.02235174447,-187500.02235174447
não,25399.561273999367,-13552.220291163958,-18971.333679119787,-6630.823806622482,-187500.02235174447,-187500.02235174447,-187500.02235174447,-187500.02235174447
não,25504.413307239214,-13503.784060929307,-18691.5121902838,-6594.748091071617,-187500.02235174447,-187500.02235174447,-187500.02235174447,-187500.02235174447
não,25387.446628504593,-13642.856614930228,-18929.55826873282,-6693.788670753082,-187500.02235174447,-187500.02235174447,-187500.02235174447,-187500.02235174447
não,25278.325412073784,-13682.486257849487,-19220.95796119666,-6709.412540127342,-187500.02235174447,-187500.02235174447,-187500.02235174447,-187500.02235174447
não,25370.481654463012,-13558.054096466793,-19035.259668261966,-6622.486605940653,-187500.02235174447,-187500.02235174447,-187500.02235174447,-187500.02235174447
não,25501.172304293195,-13494.172810813525,-18704.27503636778,-6593.362282915388,-187500.02235174447,-187500.02235174447,-187500.02235174447,-187500.02235174447
não,25436.911038984184,-13606.445623212532,-18833.401064086087,-6712.027694228613,-187500.02235174447,-187500.02235174447,-187500.02235174447,-187500.02235174447
não,25288.7189732455,-13704.882705793705,-19192.928873649704,-6783.776793930148,-187500.02235174447,-187500.02235174447,-187500.02235174447,-187500.02235174447
não,25335.478822646004,-13614.045216327337,-19094.469439324075,-6676.108440888935,-187500.02235174447,-187500.02235174447,-187500.02235174447,-187500.02235174447
não,25491.024612310484,-13502.711177195451,-18747.41390316652,-6594.904553282804,-187500.02235174447,-187500.02235174447,-187500.02235174447,-187500.02235174447
não,25474.774894091475,-13578.282425198846,-18773.699554645962,-6668.665309985317,-187500.02235174447,-187500.02235174447,-187500.02235174447,-187500.02235174447
não,25299.24664488395,-13703.407490659654,-19171.18062629469,-6752.886683092915,-187500.02235174447,-187500.02235174447,-187500.02235174447,-187500.02235174447
não,25323.76650855142,-13619.990780352447,-19135.26137295501,-6659.188170336267,-187500.02235174447,-187500.02235174447,-187500.02235174447,-187500.02235174447
não,25466.32593468737,-13493.85988639115,-18790.57512170972,-6561.622805788852,-187500.02235174447,-187500.02235174447,-187500.02235174447,-187500.02235174447
não,25477.300641214926,-13560.132808701135,-18725.531545344777,-6635.0259345800805,-187500.02235174447,-187500.02235174447,-187500.02235174447,-187500.02235174447
não,25315.049328213852,-13697.864258034739,-19114.83187852286,-6758.318156995554,-187500.02235174447,-187500.02235174447,-187500.02235174447,-187500.02235174447
não,25310.511924089424,-13630.831376413273,-19152.248698741045,-6678.164801378823,-187500.02235174447,-187500.02235174447,-187500.02235174447,-187500.02235174447
não,25447.394007133724,-13526.359322829167,-18830.093005906703,-6596.603285861407,-187500.02235174447,-187500.02235174447,-187500.02235174447,-187500.02235174447
não,25503.541589205455,-13531.455520564978,-18697.591864775644,-6617.591573904941,-187500.02235174447,-187500.02235174447,-187500.02235174447,-187500.02235174447
não,25344.82185182832,-13680.139324681679,-19064.518101753965,-6751.880854592426,-187500.02235174447,-187500.02235174447,-187500.02235174447,-187500.02235174447
não,25290.90944420212,-13669.119914665212,-19206.00464415606,-6732.613650871951,-187500.02235174447,-187500.02235174447,-187500.02235174447,-187500.02235174447
não,25437.492184340023,-13529.91325019756,-18909.37464348968,-6615.825786092972,-187500.02235174447,-187500.02235174447,-187500.02235174447,-187500.02235174447
não,25528.217915084115,-13509.90843891006,-18667.439361505432,-6614.283515725555,-187500.02235174447,-187500.02235174447,-187500.02235174447,-187500.02235174447
não,25362.21150901455,-13657.295841848356,-18989.90797876215,-6743.275432977132,-187500.02235174447,-187500.02235174447,-187500.02235174447,-187500.02235174447
não,25268.892975913644,-13692.656301576651,-19232.04442644649,-6735.765246840149,-187500.02235174447,-187500.02235174447,-187500.02235174447,-187500.02235174447
não,25387.55838722687,-13565.094895970215,-18970.573719808308,-6646.872359141393,-187500.02235174447,-187500.02235174447,-187500.02235174447,-187500.02235174447
não,25540.757243723543,-13474.637386159586,-18649.31209675218,-6606.102777254913,-187500.02235174447,-187500.02235174447,-187500.02235174447,-187500.02235174447
não,25422.158887643684,-13631.70309444703,-18892.387317703644,-6722.465958889242,-187500.02235174447,-187500.02235174447,-187500.02235174447,-187500.02235174447
não,25273.944470160543,-13702.535772625897,-19226.054158932468,-6745.711773122761,-187500.02235174447,-187500.02235174447,-187500.02235174447,-187500.02235174447
não,25369.051142817872,-13572.4039164071,-19035.684351406617,-6638.378696248376,-187500.02235174447,-187500.02235174447,-187500.02235174447,-187500.02235174447
não,25506.670833429198,-13500.05131960527,-18715.339149873158,-6602.928829542259,-187500.02235174447,-187500.02235174447,-187500.02235174447,-187500.02235174447
não,25426.31631211237,-13624.103501332225,-18857.272727164356,-6714.575793096518,-187500.02235174447,-187500.02235174447,-187500.02235174447,-187500.02235174447
não,25254.85608039571,-13734.901098597182,-19236.291257892997,-6785.654340464394,-187500.02235174447,-187500.02235174447,-187500.02235174447,-187500.02235174447
não,25341.69260760458,-13612.748815148929,-19093.463610823586,-6630.354419988921,-187500.02235174447,-187500.02235174447,-187500.02235174447,-187500.02235174447
não,25520.19363882466,-13469.630595401597,-18719.742443530853,-6558.20298888719,-187500.02235174447,-187500.02235174447,-187500.02235174447,-187500.02235174447
$SILENCE,25491.672812899687,-13572.292157684822,-18744.441121153966,-6675.437888555275,-187500.02235174447,-187500.02235174447,-187500.02235174447,-187500.02235174447
$SILENCE,25306.600368809744,-13694.958531255548,-19143.2185939811,-6765.560122199074,-187500.02235174447,-187500.02235174447,-187500.02235174447,-187500.02235174447
$SILENCE,25331.81313655533,-13608.189059280046,-19124.17490770518,-6703.04229295758,-187500.02235174447,-187500.02235174447,-187500.02235174447,-187500.02235174447
$SILENCE,25489.214121009605,-13502.621770217631,-18786.66356643004,-6610.170794745779,-187500.02235174447,-187500.02235174447,-187500.02235174447,-187500.02235174447
$SILENCE,25478.6640976267,-13587.73721310344,-18746.38572292158,-6660.037536625569,-187500.02235174447,-187500.02235174447,-187500.02235174447,-187500.02235174447
$SILENCE,25288.00371742293,-13693.773888799416,-19157.858986599327,-6779.217038061266,-187500.02235174447,-187500.02235174447,-187500.02235174447,-187500.02235174447
$SILENCE,25285.925005188587,-13608.814908124794,-19195.45462077315,-6716.6768570753175,-187500.02235174447,-187500.02235174447,-187500.02235174447,-187500.02235174447
$SILENCE,25447.03637922244,-13513.708235467462,-18850.880128250137,-6604.895783054327,-187500.02235174447,-187500.02235174447,-187500.02235174447,-187500.02235174447
$SILENCE,25532.397691297258,-13526.359322829167,-18654.229480532347,-6608.002675533614,-187500.02235174447,-187500.02235174447,-187500.02235174447,-187500.02235174447
$SILENCE,25363.26204100395,-13689.32589165281,-19037.85247061878,-6758.2958052510985,-187500.02235174447,-187500.02235174447,-187500.02235174447,-187500.02235174447
$SILENCE,25270.792874192342,-13665.118952407713,-19219.393339084785,-6768.778773400638,-187500.02235174447,-187500.02235174447,-187500.02235174447,-187500.02235174447
$SILENCE,25399.538922254913,-13517.329218069222,-18927.591315220754,-6651.40976326582,-187500.02235174447,-187500.02235174447,-187500.02235174447,-187500.02235174447
$SILENCE,25497.797190880443,-13521.710159982464,-18702.97863518937,-6630.488530455653,-187500.02235174447,-187500.02235174447,-187500.02235174447,-187500.02235174447
$SILENCE,25392.542826240402,-13624.192908310046,-18952.155882377134,-6727.450397902775,-187500.02235174447,-187500.02235174447,-187500.02235174447,-187500.02235174447
$SILENCE,25308.455563599535,-13666.035373930381,-19166.12913204779,-6726.981011269214,-187500.02235174447,-187500.02235174447,-187500.02235174447,-187500.02235174447
$SILENCE,25396.812009431364,-13550.633317307631,-18964.583452294286,-6629.952088588726,-187500.02235174447,-187500.02235174447,-187500.02235174447,-187500.02235174447
$SILENCE,25497.439562969157,-13494.642197447087,-18683.420858790978,-6629.102722299424,-187500.02235174447,-187500.02235174447,-187500.02235174447,-187500.02235174447
$SILENCE,25388.251291304983,-13614.425195983076,-18899.964559073993,-6737.843959074493,-187500.02235174447,-187500.02235174447,-187500.02235174447,-187500.02235174447
$SILENCE,25239.075748810264,-13715.812708832349,-19246.170728942245,-6807.91667794188,-187500.02235174447,-187500.02235174447,-187500.02235174447,-187500.02235174447
$SILENCE,25308.366156621716,-13607.764376135396,-19082.712421740584,-6735.608784628962,-187500.02235174447,-187500.02235174447,-187500.02235174447,-187500.02235174447
$SILENCE,25476.965365048098,-13471.038755302281,-18717.84254525215,-6645.330088773977,-187500.02235174447,-187500.02235174447,-187500.02235174447,-187500.02235174447
$SILENCE,25444.242411165527,-13559.10462845619,-18784.271929773324,-6685.831449726993,-187500.02235174447,-187500.02235174447,-187500.02235174447,-187500.02235174447
$SILENCE,25290.440057568558,-13686.3307578958,-19155.0203150535,-6749.869197591448,-187500.02235174447,-187500.02235174447,-187500.02235174447,-187500.02235174447
$SILENCE,25321.263113172427,-13660.402734327643,-19137.898878800737,-6690.70413001825,-187500.02235174447,-187500.02235174447,-187500.02235174447,-187500.02235174447
$SILENCE,25481.011030794507,-13525.442901306498,-18778.169903537026,-6628.11924554339,-187500.02235174447,-187500.02235174447,-187500.02235174447,-187500.02235174447
$SILENCE,25488.252995998027,-13565.676041326053,-18747.79388282226,-6702.863479001937,-187500.02235174447,-187500.02235174447,-187500.02235174447,-187500.02235174447
$SILENCE,25292.675232014088,-13717.086758266301,-19148.001867294537,-6814.733960000749,-187500.02235174447,-187500.02235174447,-187500.02235174447,-187500.02235174447
$SILENCE,25301.884150729675,-13634.69822820404,-19146.772521349492,-6727.003363013669,-187500.02235174447,-187500.02235174447,-187500.02235174447,-187500.02235174447
$SILENCE,25458.48047238356,-13522.827747205229,-18802.332139293212,-6627.9851350766585,-187500.02235174447,-187500.02235174447,-187500.02235174447,-187500.02235174447
$SILENCE,25497.171342035694,-13548.3981428621,-18693.970882173882,-6650.850969654438,-187500.02235174447,-187500.02235174447,-187500.02235174447,-187500.02235174447
$SILENCE,25316.546895092357,-13701.261723191945,-19088.903854954704,-6746.807008601071,-187500.02235174447,-187500.02235174447,-187500.02235174447,-187500.02235174447
$SILENCE,25283.354554576228,-13667.801161742349,-19187.85502765835,-6754.294842993599,-187500.02235174447,-187500.02235174447,-187500.02235174447,-187500.02235174447
$SILENCE,25438.721530285067,-13527.879241452127,-18858.680887065042,-6670.229932097189,-187500.02235174447,-187500.02235174447,-187500.02235174447,-187500.02235174447
$SILENCE,25501.95461534913,-13518.893840181094,-18683.17498960197,-6704.003417969158,-187500.02235174447,-187500.02235174447,-187500.02235174447,-187500.02235174447
$SILENCE,25350.856822831254,-13673.18793215608,-19034.678522906128,-6824.456968838807,-187500.02235174447,-187500.02235174447,-187500.02235174447,-187500.02235174447
$SILENCE,25287.310813344815,-13670.192798399068,-19207.301045334465,-6768.935235611825,-187500.02235174447,-187500.02235174447,-187500.02235174447,-187500.02235174447
$SILENCE,25402.422297289646,-13549.739247529418,-18934.095672857246,-6660.3281093034875,-187500.02235174447,-187500.02235174447,-187500.02235174447,-187500.02235174447
$SILENCE,25499.09359205885,-13538.742189257408,-18681.520960512276,-6647.565263219508,-187500.02235174447,-187500.02235174447,-187500.02235174447,-187500.02235174447
$SILENCE,25370.526357951923,-13690.711699809039,-18957.09561790176,-6762.944968097802,-187500.02235174447,-187500.02235174447,-187500.02235174447,-187500.02235174447
$SILENCE,25281.119380130694,-13686.37546138471,-19206.697548234173,-6778.702947938794,-187500.02235174447,-187500.02235174447,-187500.02235174447,-187500.02235174447
$SILENCE,25383.512721480456,-13555.126017943147,-18991.316138662834,-6671.191057108767,-187500.02235174447,-187500.02235174447,-187500.02235174447,-187500.02235174447
$SILENCE,25497.260749013516,-13515.3399128127,-18689.925216427473,-6643.407838750821,-187500.02235174447,-187500.02235174447,-187500.02235174447,-187500.02235174447
$SILENCE,25385.45732324807,-13644.980030653482,-18892.990814803936,-6763.1684855423555,-187500.02235174447,-187500.02235174447,-187500.02235174447,-187500.02235174447
$SILENCE,25271.061095125806,-13700.322949924821,-19208.932722679703,-6794.170355101866,-187500.02235174447,-187500.02235174447,-187500.02235174447,-187500.02235174447
$SILENCE,25347.794633840876,-13594.800364351317,-19059.44425576261,-6701.969409223725,-187500.02235174447,-187500.02235174447,-187500.02235174447,-187500.02235174447
$SILENCE,25482.173321506183,-13517.619790747141,-18727.83377502367,-6631.069675811491,-187500.02235174447,-187500.02235174447,-187500.02235174447,-187500.02235174447
$SILENCE,25432.619504048766,-13609.910143603105,-18823.655703503573,-6708.362008137943,-187500.02235174447,-187500.02235174447,-187500.02235174447,-187500.02235174447
$SILENCE,25265.67432471208,-13726.876822337726,-19202.69658597667,-6820.791282748138,-187500.02235174447,-187500.02235174447,-187500.02235174447,-187500.02235174447
$SILENCE,25325.48759287448,-13607.071472057281,-19117.268218668487,-6745.756476611671,-187500.02235174447,-187500.02235174447,-187500.02235174447,-187500.02235174447
$SILENCE,25488.320051231392,-13473.922130337016,-18760.13204576159,-6650.694507443251,-187500.02235174447,-187500.02235174447,-187500.02235174447,-187500.02235174447
$SILENCE,25473.47849291307,-13554.187244676024,-18740.28369668528,-6682.858667714438,-187500.02235174447,-187500.02235174447,-187500.02235174447,-187500.02235174447
$SILENCE,25300.900673973643,-13689.482353863998,-19136.624829366785,-6777.451250249297,-187500.02235174447,-187500.02235174447,-187500.02235174447,-187500.02235174447
$SILENCE,25307.71795603251,-13627.03157985587,-19151.041704540457,-6729.596165370484,-187500.02235174447,-187500.02235174447,-187500.02235174447,-187500.02235174447
$SILENCE,25456.692332827133,-13512.612999989153,-18812.323369064736,-6654.941338889759,-187500.02235174447,-187500.02235174447,-187500.02235174447,-187500.02235174447
$SILENCE,25464.18016721966,-13561.764486046373,-18727.565554090208,-6720.320191421532,-187500.02235174447,-187500.02235174447,-187500.02235174447,-187500.02235174447
$SILENCE,25290.305947101828,-13685.548446839864,-19122.11854721529,-6827.3850473624525,-187500.02235174447,-187500.02235174447,-187500.02235174447,-187500.02235174447
$SILENCE,25269.071789869286,-13677.904150236149,-19224.534240309506,-6782.05570960709,-187500.02235174447,-187500.02235174447,-187500.02235174447,-187500.02235174447
$SILENCE,25400.634157733224,-13557.383544133132,-18911.676873168573,-6689.832411984493,-187500.02235174447,-187500.02235174447,-187500.02235174447,-187500.02235174447
$SILENCE,25505.866170628808,-13500.744223683385,-18684.247873335826,-6646.626489952385,-187500.02235174447,-187500.02235174447,-187500.02235174447,-187500.02235174447
$SILENCE,25354.321343221825,-13658.055801159837,-19027.81653735835,-6755.323023238543,-187500.02235174447,-187500.02235174447,-187500.02235174447,-187500.02235174447
$SILENCE,25285.34385983275,-13667.46588557552,-19215.392376827287,-6752.618462159451,-187500.02235174447,-187500.02235174447,-187500.02235174447,-187500.02235174447
$SILENCE,25413.84403870631,-13546.542948072309,-18935.526184502385,-6652.996737122147,-187500.02235174447,-187500.02235174447,-187500.02235174447,-187500.02235174447
$SILENCE,25529.693130218166,-13486.19323804298,-18667.26054754979,-6645.0618678405135,-187500.02235174447,-187500.02235174447,-187500.02235174447,-187500.02235174447
$SILENCE,25366.011305571952,-13654.70303949154,-18968.18208315159,-6809.838927965036,-187500.02235174447,-187500.02235174447,-187500.02235174447,-187500.02235174447
$SILENCE,25254.878432140165,-13683.179161927601,-19235.33013288142,-6833.084742198556,-187500.02235174447,-187500.02235174447,-187500.02235174447,-187500.02235174447
$SILENCE,25377.567157455345,-13545.358305616177,-19011.3880051837,-6681.070528158013,-187500.02235174447,-187500.02235174447,-187500.02235174447,-187500.02235174447
$SILENCE,25518.606664968334,-13469.541188423776,-18678.347012799622,-6592.468213137176,-187500.02235174447,-187500.02235174447,-187500.02235174447,-187500.02235174447
$SILENCE,25415.07338465135,-13609.731329647462,-18866.81692204677,-6695.532106820597,-187500.02235174447,-187500.02235174447,-187500.02235174447,-187500.02235174447
$SILENCE,25257.337124030248,-13701.932275525603,-19221.650865274773,-6758.809895373571,-187500.02235174447,-187500.02235174447,-187500.02235174447,-187500.02235174447
$SILENCE,25330.427328399102,-13584.652672368607,-19092.994224190024,-6737.776903841127,-187500.02235174447,-187500.02235174447,-187500.02235174447,-187500.02235174447
$SILENCE,25504.72623166159,-13463.193292998469,-18729.644266324554,-6674.141487376868,-187500.02235174447,-187500.02235174447,-187500.02235174447,-187500.02235174447
$SILENCE,25460.603888106813,-13581.523428144865,-18806.422508528532,-6740.034430031113,-187500.02235174447,-187500.02235174447,-187500.02235174447,-187500.02235174447
$SILENCE,25274.10093237173,-13691.203438187056,-19207.725728479116,-6816.857375724003,-187500.02235174447,-187500.02235174447,-187500.02235174447,-187500.02235174447
$SILENCE,25308.38850836617,-13637.112216605214,-19151.46638768511,-6733.440665416797,-187500.02235174447,-187500.02235174447,-187500.02235174447,-187500.02235174447
$SILENCE,25447.863393767286,-13538.362209601666,-18812.323369064736,-6667.100687873446,-187500.02235174447,-187500.02235174447,-187500.02235174447,-187500.02235174447
$SILENCE,25480.60869939431,-13523.632410005619,-18747.95034503345,-6689.251266628656,-187500.02235174447,-187500.02235174447,-187500.02235174447,-187500.02235174447
$SILENCE,25325.800517296855,-13653.451341802043,-19125.02427399448,-6794.013892890679,-187500.02235174447,-187500.02235174447,-187500.02235174447,-187500.02235174447
$SILENCE,25317.932703248585,-13599.248361497923,-19150.393503951254,-6735.3405636954985,-187500.02235174447,-187500.02235174447,-187500.02235174447,-187500.02235174447
$SILENCE,25456.915850271685,-13504.43226151851,-18822.135784880615,-6639.608042193418,-187500.02235174447,-187500.02235174447,-187500.02235174447,-187500.02235174447
$SILENCE,25493.23743501156,-13530.53909904231,-18704.945588701437,-6677.896580445359,-187500.02235174447,-187500.02235174447,-187500.02235174447,-187500.02235174447
$SILENCE,25311.741270034465,-13687.917731752126,-19106.31586388539,-6808.721340742271,-187500.02235174447,-187500.02235174447,-187500.02235174447,-187500.02235174447
$SILENCE,25289.791856979355,-13644.55534750883,-19210.385586069297,-6749.757438869172,-187500.02235174447,-187500.02235174447,-187500.02235174447,-187500.02235174447
$SILENCE,25423.298826610902,-13495.804488158761,-18890.845047336228,-6652.013260366114,-187500.02235174447,-187500.02235174447,-187500.02235174447,-187500.02235174447
$SILENCE,25485.257862241015,-13472.826894858707,-18703.64918752303,-6680.08705140198,-187500.02235174447,-187500.02235174447,-187500.02235174447,-187500.02235174447
$SILENCE,25348.129910007705,-13634.27354505939,-19023.390891956198,-6769.762250156671,-187500.02235174447,-187500.02235174447,-187500.02235174447,-187500.02235174447
$SILENCE,25297.48085707198,-13644.55534750883,-19213.537182037497,-6772.690328680316,-187500.02235174447,-187500.02235174447,-187500.02235174447,-187500.02235174447
$SILENCE,25407.473791536548,-13516.949238413483,-18955.016905667413,-6679.1706298793115,-187500.02235174447,-187500.02235174447,-187500.02235174447,-187500.02235174447
$SILENCE,25485.36962096329,-13490.127145067114,-18709.393585848044,-6672.375699564898,-187500.02235174447,-187500.02235174447,-187500.02235174447,-187500.02235174447
$SILENCE,25359.439892702092,-13638.252155572434,-18983.51537984793,-6800.652360993906,-187500.02235174447,-187500.02235174447,-187500.02235174447,-187500.02235174447
$SILENCE,25256.554812974315,-13666.951795453047,-19247.48948186511,-6804.563916273584,-187500.02235174447,-187500.02235174447,-187500.02235174447,-187500.02235174447
$SILENCE,25348.26402047444,-13553.650802809098,-19047.10609282328,-6699.577772567007,-187500.02235174447,-187500.02235174447,-187500.02235174447,-187500.02235174447
$SILENCE,25490.689336143656,-13473.788019870284,-18712.85810623862,-6660.12694360339,-187500.02235174447,-187500.02235174447,-187500.02235174447,-187500.02235174447
$SILENCE,25424.97520744505,-13552.35440163069,-18865.58757610173,-6750.2491772471885,-187500.02235174447,-187500.02235174447,-187500.02235174447,-187500.02235174447
$SILENCE,25299.91719721761,-13632.351295036233,-19203.635359243795,-6787.934218398836,-187500.02235174447,-187500.02235174447,-187500.02235174447,-187500.02235174447
$SILENCE,25352.421444943124,-13546.140616672114,-19080.946633928615,-6729.417351414842,-187500.02235174447,-187500.02235174447,-187500.02235174447,-187500.02235174447
$SILENCE,25451.819652535876,-13465.517874421821,-18767.57517666521,-6669.089993129968,-187500.02235174447,-187500.02235174447,-187500.02235174447,-187500.02235174447
$SILENCE,25429.289094124928,-13553.293174897812,-18820.906438935574,-6732.077209005023,-187500.02235174447,-187500.02235174447,-187500.02235174447,-187500.02235174447
$SILENCE,25262.32156304378,-13669.254025131944,-19207.703376734662,-6832.525948587174,-187500.02235174447,-187500.02235174447,-187500.02235174447,-187500.02235174447
$SILENCE,25302.6217582967,-13572.381564662644,-19154.081541786378,-6742.180197498822,-187500.02235174447,-187500.02235174447,-187500.02235174447,-187500.02235174447
$SILENCE,25478.75350460452,-13446.451836401444,-18778.52753144831,-6640.792684649549,-187500.02235174447,-187500.02235174447,-187500.02235174447,-187500.02235174447
$SILENCE,25475.08781851385,-13509.528459254321,-18739.769606562808,-6713.61466808494,-187500.02235174447,-187500.02235174447,-187500.02235174447,-187500.02235174447
$SILENCE,25292.80934248082,-13660.112161649724,-19150.1699865067,-6837.711553300805,-187500.02235174447,-187500.02235174447,-187500.02235174447,-187500.02235174447
$SILENCE,25290.015374423907,-13607.764376135396,-19187.2291788136,-6784.0673666080675,-187500.02235174447,-187500.02235174447,-187500.02235174447,-187500.02235174447
$SILENCE,25428.976169702553,-13486.95319735446,-18863.821788289762,-6689.832411984493,-187500.02235174447,-187500.02235174447,-187500.02235174447,-187500.02235174447
$SILENCE,25482.28508022846,-13497.011482359349,-18726.492670356354,-6699.197792911267,-187500.02235174447,-187500.02235174447,-187500.02235174447,-187500.02235174447
$SILENCE,25306.28744438737,-13644.488292275464,-19098.179828903656,-6817.68439026885,-187500.02235174447,-187500.02235174447,-187500.02235174447,-187500.02235174447
$SILENCE,25261.5616037323,-13627.568021722796,-19219.460394318154,-6775.86427639297,-187500.02235174447,-187500.02235174447,-187500.02235174447,-187500.02235174447
$SILENCE,25394.10744835227,-13502.957046384461,-18929.960600133014,-6665.379603550387,-187500.02235174447,-187500.02235174447,-187500.02235174447,-187500.02235174447
$SILENCE,25488.320051231392,-13461.762781353329,-18700.74346074384,-6662.2056558377335,-187500.02235174447,-187500.02235174447,-187500.02235174447,-187500.02235174447
$SILENCE,25349.716883864032,-13613.97816109397,-19013.33260695131,-6796.293770825121,-187500.02235174447,-187500.02235174447,-187500.02235174447,-187500.02235174447
$SILENCE,25273.542138760346,-13624.662294943608,-19221.695568763684,-6791.555201000596,-187500.02235174447,-187500.02235174447,-187500.02235174447,-187500.02235174447
$SILENCE,25384.384439514215,-13517.619790747141,-18965.03048718339,-6684.445641570765,-187500.02235174447,-187500.02235174447,-187500.02235174447,-187500.02235174447
$SILENCE,25509.688318930665,-13470.85994134664,-18684.426687291467,-6659.2105220807225,-187500.02235174447,-187500.02235174447,-187500.02235174447,-187500.02235174447
$SILENCE,25379.087076078307,-13609.999550580926,-18945.919745674106,-6794.662093479883,-187500.02235174447,-187500.02235174447,-187500.02235174447,-187500.02235174447
$SILENCE,25260.37696127617,-13663.442571573565,-19241.678028306727,-6816.075064668067,-187500.02235174447,-187500.02235174447,-187500.02235174447,-187500.02235174447
$SILENCE,25349.180441997105,-13545.090084682713,-19038.523022952442,-6707.132662192901,-187500.02235174447,-187500.02235174447,-187500.02235174447,-187500.02235174447
$SILENCE,25492.879807100275,-13459.125275507604,-18712.344016116145,-6689.94417070677,-187500.02235174447,-187500.02235174447,-187500.02235174447,-187500.02235174447
$SILENCE,25402.377593800735,-13568.827637294251,-18880.496189653422,-6792.493974267719,-187500.02235174447,-187500.02235174447,-187500.02235174447,-187500.02235174447
$SILENCE,25275.19616785004,-13643.1695393526,-19205.1329261223,-6819.427826336364,-187500.02235174447,-187500.02235174447,-187500.02235174447,-187500.02235174447
$SILENCE,25343.77131983892,-13545.671230038552,-19078.130314127244,-6734.960584039758,-187500.02235174447,-187500.02235174447,-187500.02235174447,-187500.02235174447
$SILENCE,25484.922586074186,-13459.304089463245,-18744.88815604307,-6667.525371018097,-187500.02235174447,-187500.02235174447,-187500.02235174447,-187500.02235174447
$SILENCE,25445.047073965918,-13551.661497552574,-18801.080441603714,-6736.90518580737,-187500.02235174447,-187500.02235174447,-187500.02235174447,-187500.02235174447
$SILENCE,25273.85506318272,-13673.478504833998,-19189.95609163715,-6810.084797154045,-187500.02235174447,-187500.02235174447,-187500.02235174447,-187500.02235174447
$SILENCE,25301.750040262945,-13602.914047588594,-19156.0708470429,-6753.1325522819225,-187500.02235174447,-187500.02235174447,-187500.02235174447,-187500.02235174447
$SILENCE,25455.932373515654,-13462.90272032055,-18800.63340671461,-6669.917007674815,-187500.02235174447,-187500.02235174447,-187500.02235174447,-187500.02235174447
$SILENCE,25486.17428376368,-13485.321520009224,-18722.625818565586,-6693.766319008627,-187500.02235174447,-187500.02235174447,-187500.02235174447,-187500.02235174447
$SILENCE,25334.450642401058,-13624.192908310046,-19101.621997549773,-6777.987692116224,-187500.02235174447,-187500.02235174447,-187500.02235174447,-187500.02235174447
$SILENCE,25314.132906691186,-13598.846030097728,-19165.190358780666,-6762.274415764144,-187500.02235174447,-187500.02235174447,-187500.02235174447,-187500.02235174447
$SILENCE,25446.27641991096,-13476.604339671654,-18845.82863400324,-6674.253246099144,-187500.02235174447,-187500.02235174447,-187500.02235174447,-187500.02235174447
$SILENCE,25487.157760519716,-13486.394403743077,-18698.955321187415,-6707.132662192901,-187500.02235174447,-187500.02235174447,-187500.02235174447,-187500.02235174447
$SILENCE,25328.16980220912,-13633.021847369891,-19067.222662833057,-6816.790320490637,-187500.02235174447,-187500.02235174447,-187500.02235174447,-187500.02235174447
$SILENCE,25281.23113885297,-13629.467920001498,-19200.126135364313,-6758.541674440107,-187500.02235174447,-187500.02235174447,-187500.02235174447,-187500.02235174447
$SILENCE,25388.720677938545,-13516.412796546556,-18926.40667276462,-6657.310623802022,-187500.02235174447,-187500.02235174447,-187500.02235174447,-187500.02235174447
$SILENCE,25493.304490244926,-13471.262272746835,-18697.524809542276,-6675.370833321909,-187500.02235174447,-187500.02235174447,-187500.02235174447,-187500.02235174447
$SILENCE,25345.96179079554,-13625.22108855499,-19019.926371565627,-6810.822404721071,-187500.02235174447,-187500.02235174447,-187500.02235174447,-187500.02235174447
$SILENCE,25264.914365400597,-13650.299745833845,-19229.47397583413,-6773.226770547244,-187500.02235174447,-187500.02235174447,-187500.02235174447,-187500.02235174447
$SILENCE,25387.625442460234,-13521.15136637108,-18964.069362171813,-6670.118173374913,-187500.02235174447,-187500.02235174447,-187500.02235174447,-187500.02235174447
$SILENCE,25513.15283932124,-13464.959080810439,-18678.592881988632,-6659.635205225373,-187500.02235174447,-187500.02235174447,-187500.02235174447,-187500.02235174447
$SILENCE,25389.480637250024,-13600.254189998412,-18917.868306382694,-6758.027584317635,-187500.02235174447,-187500.02235174447,-187500.02235174447,-187500.02235174447
$SILENCE,25259.52759498687,-13658.79340872686,-19229.36221711185,-6777.272436293654,-187500.02235174447,-187500.02235174447,-187500.02235174447,-187500.02235174447
$SILENCE,25351.370912953727,-13543.748980015396,-19037.45013921859,-6682.992778181169,-187500.02235174447,-187500.02235174447,-187500.02235174447,-187500.02235174447
$SILENCE,25485.637841896754,-13486.19323804298,-18723.475184854888,-6676.443717055764,-187500.02235174447,-187500.02235174447,-187500.02235174447,-187500.02235174447
$SILENCE,25409.284282837427,-13591.760527105394,-18877.88103555215,-6777.451250249297,-187500.02235174447,-187500.02235174447,-187500.02235174447,-187500.02235174447
$SILENCE,25267.70833345751,-13667.197664642057,-19220.95796119666,-6809.4813000537515,-187500.02235174447,-187500.02235174447,-187500.02235174447,-187500.02235174447
$SILENCE,25323.319473662315,-13566.100724470703,-19107.96989297508,-6714.844014029982,-187500.02235174447,-187500.02235174447,-187500.02235174447,-187500.02235174447
$SILENCE,25491.359888477313,-13443.61316485562,-18737.154452461535,-6630.466178711197,-187500.02235174447,-187500.02235174447,-187500.02235174447,-187500.02235174447
$SILENCE,25459.821577050876,-13542.63139279263,-18779.734525648895,-6688.871286972915,-187500.02235174447,-187500.02235174447,-187500.02235174447,-187500.02235174447
$SILENCE,25289.568339534802,-13676.943025224571,-19178.288481031475,-6777.607712460484,-187500.02235174447,-187500.02235174447,-187500.02235174447,-187500.02235174447
$SILENCE,25303.314662374814,-13596.946131819026,-19156.942565076657,-6724.097636234479,-187500.02235174447,-187500.02235174447,-187500.02235174447,-187500.02235174447
$SILENCE,25451.998466491517,-13503.448784762477,-18815.20674409947,-6668.575903007496,-187500.02235174447,-187500.02235174447,-187500.02235174447,-187500.02235174447
$SILENCE,25461.18503346265,-13561.96565174647,-18758.23214748289,-6716.52039486413,-187500.02235174447,-187500.02235174447,-187500.02235174447,-187500.02235174447
$SILENCE,25295.91623496011,-13693.706833566052,-19135.753111333026,-6790.504669011196,-187500.02235174447,-187500.02235174447,-187500.02235174447,-187500.02235174447
$SILENCE,25292.652880269634,-13620.50487047492,-19186.22335031311,-6741.777866098627,-187500.02235174447,-187500.02235174447,-187500.02235174447,-187500.02235174447
$SILENCE,25438.095681440318,-13492.3846712571,-18855.641049819118,-6627.761617632105,-187500.02235174447,-187500.02235174447,-187500.02235174447,-187500.02235174447
$SILENCE,25503.519237461,-13512.3894825446,-18678.391716288534,-6656.148333090346,-187500.02235174447,-187500.02235174447,-187500.02235174447,-187500.02235174447
$SILENCE,25319.229104426995,-13670.41631584362,-19081.59483451782,-6801.166451116378,-187500.02235174447,-187500.02235174447,-187500.02235174447,-187500.02235174447
$SILENCE,25273.922118416085,-13658.27931860439,-19240.158109683765,-6775.81957290406,-187500.02235174447,-187500.02235174447,-187500.02235174447,-187500.02235174447
$SILENCE,25424.17054464466,-13525.465253050954,-18923.92562913008,-6653.711992944717,-187500.02235174447,-187500.02235174447,-187500.02235174447,-187500.02235174447
$SILENCE,25506.871999129296,-13520.838441948707,-18689.969919916384,-6660.685737214772,-187500.02235174447,-187500.02235174447,-187500.02235174447,-187500.02235174447
$SILENCE,25360.64688690268,-13657.049972659348,-18999.251007944466,-6776.132497326434,-187500.02235174447,-187500.02235174447,-187500.02235174447,-187500.02235174447
$SILENCE,25279.778275463377,-13669.835170487782,-19226.09886242138,-6778.300616538599,-187500.02235174447,-187500.02235174447,-187500.02235174447,-187500.02235174447
$SILENCE,25378.796503400386,-13559.059924967281,-18999.452173644564,-6680.511734546631,-187500.02235174447,-187500.02235174447,-187500.02235174447,-187500.02235174447
$SILENCE,25483.581481406865,-13516.010465146359,-18716.769661518298,-6661.2668825706105,-187500.02235174447,-187500.02235174447,-187500.02235174447,-187500.02235174447
$SILENCE,25388.36305002726,-13652.803141212838,-18935.190908335557,-6768.085869322524,-187500.02235174447,-187500.02235174447,-187500.02235174447,-187500.02235174447
$SILENCE,25271.686943970555,-13694.71266206654,-19240.85101376188,-6793.34334055702,-187500.02235174447,-187500.02235174447,-187500.02235174447,-187500.02235174447
$SILENCE,25362.569136925835,-13583.289215956835,-19064.272232564956,-6705.0539499585575,-187500.02235174447,-187500.02235174447,-187500.02235174447,-187500.02235174447
$SILENCE,25518.964292879617,-13494.23986604689,-18711.89698122704,-6622.531309429563,-187500.02235174447,-187500.02235174447,-187500.02235174447,-187500.02235174447
$SILENCE,25441.18022217515,-13616.101576817224,-18854.478759107442,-6730.691400848795,-187500.02235174447,-187500.02235174447,-187500.02235174447,-187500.02235174447
$SILENCE,25277.788970206853,-13696.679615578607,-19216.66642626124,-6810.867108209981,-187500.02235174447,-187500.02235174447,-187500.02235174447,-187500.02235174447
$SILENCE,25360.132796780206,-13601.058852798802,-19099.029195192958,-6722.533014122608,-187500.02235174447,-187500.02235174447,-187500.02235174447,-187500.02235174447
$SILENCE,25494.24326351205,-13510.266066821345,-18758.366257949623,-6646.492379485653,-187500.02235174447,-187500.02235174447,-187500.02235174447,-187500.02235174447
$SILENCE,25465.923603287174,-13591.984044549949,-18782.32732800571,-6712.944115751281,-187500.02235174447,-187500.02235174447,-187500.02235174447,-187500.02235174447
$SILENCE,25291.401182580135,-13719.43369143411,-19188.726745692104,-6811.381198332453,-187500.02235174447,-187500.02235174447,-187500.02235174447,-187500.02235174447
$SILENCE,25339.01039826994,-13647.058742887824,-19149.45473068413,-6714.307572163055,-187500.02235174447,-187500.02235174447,-187500.02235174447,-187500.02235174447
$SILENCE,25481.86039708381,-13532.573107787743,-18811.004616141872,-6629.8626816109045,-187500.02235174447,-187500.02235174447,-187500.02235174447,-187500.02235174447
$SILENCE,25501.909911860217,-13559.372849389656,-18729.979542491383,-6684.3338828484875,-187500.02235174447,-187500.02235174447,-187500.02235174447,-187500.02235174447
$SILENCE,25330.24851444346,-13701.708758081051,-19124.063148982903,-6812.498785555218,-187500.02235174447,-187500.02235174447,-187500.02235174447,-187500.02235174447
$SILENCE,25310.19899966705,-13659.486312804976,-19196.37104229582,-6758.184046528822,-187500.02235174447,-187500.02235174447,-187500.02235174447,-187500.02235174447
$SILENCE,25452.356094402803,-13545.291250382812,-18867.487474380432,-6661.55745524853,-187500.02235174447,-187500.02235174447,-187500.02235174447,-187500.02235174447
$SILENCE,25522.294702803458,-13544.754808515885,-18693.74736472933,-6676.9354554337815,-187500.02235174447,-187500.02235174447,-187500.02235174447,-187500.02235174447
$SILENCE,25358.903450835165,-13696.992540000982,-19057.365543528264,-6787.286017809632,-187500.02235174447,-187500.02235174447,-187500.02235174447,-187500.02235174447
$SILENCE,25299.894845473154,-13685.213170673034,-19215.079452404912,-6752.394944714898,-187500.02235174447,-187500.02235174447,-187500.02235174447,-187500.02235174447
$SILENCE,25430.965474959074,-13550.521558585353,-18935.012094379916,-6653.354365033432,-187500.02235174447,-187500.02235174447,-187500.02235174447,-187500.02235174447
$SILENCE,25543.305342591448,-13525.688770495508,-18676.111838354092,-6634.824768879983,-187500.02235174447,-187500.02235174447,-187500.02235174447,-187500.02235174447
$SILENCE,25402.73522171202,-13689.772926541917,-18969.165559907622,-6766.141267554912,-187500.02235174447,-187500.02235174447,-187500.02235174447,-187500.02235174447
$SILENCE,25309.282578144383,-13704.547429626875,-19217.158164639255,-6783.955607885791,-187500.02235174447,-187500.02235174447,-187500.02235174447,-187500.02235174447
$SILENCE,25418.269684108458,-13585.859666569195,-18982.241330413977,-6680.198810124256,-187500.02235174447,-187500.02235174447,-187500.02235174447,-187500.02235174447
$SILENCE,25550.01086592804,-13529.779139730828,-18676.22359707637,-6636.702315414228,-187500.02235174447,-187500.02235174447,-187500.02235174447,-187500.02235174447
$SILENCE,25425.712815012077,-13656.602937770242,-18901.998567819424,-6749.779790613627,-187500.02235174447,-187500.02235174447,-187500.02235174447,-187500.02235174447
$SILENCE,25296.67619427159,-13703.89922903767,-19218.365158839842,-6773.29382578061,-187500.02235174447,-187500.02235174447,-187500.02235174447,-187500.02235174447
$SILENCE,25386.50785523747,-13603.651655155618,-19041.495804964998,-6662.317414560011,-187500.02235174447,-187500.02235174447,-187500.02235174447,-187500.02235174447
$SILENCE,25517.220856812106,-13529.935601942016,-18719.94360923095,-6626.97930657617,-187500.02235174447,-187500.02235174447,-187500.02235174447,-187500.02235174447
$SILENCE,25460.51448112899,-13640.621440484696,-18835.457424575976,-6745.689421378305,-187500.02235174447,-187500.02235174447,-187500.02235174447,-187500.02235174447
$SILENCE,25294.776295992888,-13731.503633439976,-19213.715995993138,-6836.97394573378,-187500.02235174447,-187500.02235174447,-187500.02235174447,-187500.02235174447
$SILENCE,25343.92778205011,-13605.082166800757,-19120.330407658865,-6731.160787482356,-187500.02235174447,-187500.02235174447,-187500.02235174447,-187500.02235174447
$SILENCE,25508.928359619185,-13501.995921372882,-18758.790941094274,-6625.749960631128,-187500.02235174447,-187500.02235174447,-187500.02235174447,-187500.02235174447
$SILENCE,25512.66110094322,-13590.330015460255,-18744.262307198325,-6677.293083345066,-187500.02235174447,-187500.02235174447,-187500.02235174447,-187500.02235174447
$SILENCE,25341.44673841557,-13709.755386084962,-19133.629695609772,-6767.2141512887665,-187500.02235174447,-187500.02235174447,-187500.02235174447,-187500.02235174447
$SILENCE,25344.888907061686,-13656.290013347867,-19137.004809022525,-6698.080205688501,-187500.02235174447,-187500.02235174447,-187500.02235174447,-187500.02235174447
$SILENCE,25485.526083174478,-13559.037573222826,-18809.90938066356,-6624.3418007304435,-187500.02235174447,-187500.02235174447,-187500.02235174447,-187500.02235174447
$SILENCE,25516.326787033893,-13586.083184013747,-18720.90473424253,-6675.9966821666585,-187500.02235174447,-187500.02235174447,-187500.02235174447,-187500.02235174447
$SILENCE,25357.562346167844,-13698.020720245924,-19093.73183175705,-6791.778718445149,-187500.02235174447,-187500.02235174447,-187500.02235174447,-187500.02235174447
$SILENCE,25334.16006972314,-13659.285147104878,-19177.662632186726,-6752.149075525889,-187500.02235174447,-187500.02235174447,-187500.02235174447,-187500.02235174447
$SILENCE,25459.978039262063,-13538.67513402404,-18870.48260813744,-6657.176513335289,-187500.02235174447,-187500.02235174447,-187500.02235174447,-187500.02235174447
$SILENCE,25529.916647662718,-13546.319430627756,-18689.902864683016,-6667.234798340178,-187500.02235174447,-187500.02235174447,-187500.02235174447,-187500.02235174447
$SILENCE,25368.738218395498,-13701.887572036692,-19041.987543343013,-6781.988654373724,-187500.02235174447,-187500.02235174447,-187500.02235174447,-187500.02235174447
$SILENCE,25302.48764782997,-13703.161621470646,-19217.024054172525,-6751.724392381238,-187500.02235174447,-187500.02235174447,-187500.02235174447,-187500.02235174447
$SILENCE,25446.32112339987,-13568.984099505436,-18923.523297729887,-6645.643013196352,-187500.02235174447,-187500.02235174447,-187500.02235174447,-187500.02235174447
$SILENCE,25556.24700263107,-13525.979343173427,-18655.436474732935,-6623.470082696686,-187500.02235174447,-187500.02235174447,-187500.02235174447,-187500.02235174447
$SILENCE,25415.609826518277,-13663.554330295841,-18946.635001496674,-6733.217147972245,-187500.02235174447,-187500.02235174447,-187500.02235174447,-187500.02235174447
não,25319.363214893725,-13700.591170858284,-19217.828716972916,-6769.0916978230125,-187500.02235174447,-187500.02235174447,-187500.02235174447,-187500.02235174447
não,25423.343530099814,-13586.217294480479,-18994.84771428677,-6671.191057108767,-187500.02235174447,-187500.02235174447,-187500.02235174447,-187500.02235174447
não,25550.97199093962,-13527.231040862924,-18678.391716288534,-6630.488530455653,-187500.02235174447,-187500.02235174447,-187500.02235174447,-187500.02235174447
não,25442.722492542565,-13652.266699345912,-18881.300852453813,-6754.3618982269645,-187500.02235174447,-187500.02235174447,-187500.02235174447,-187500.02235174447
não,25298.307871616827,-13726.966229315547,-19220.868554218836,-6795.198535346811,-187500.02235174447,-187500.02235174447,-187500.02235174447,-187500.02235174447
não,25376.114294065752,-13617.50973671791,-19064.38399128723,-6680.444679313265,-187500.02235174447,-187500.02235174447,-187500.02235174447,-187500.02235174447
não,25533.358816308835,-13512.76946220034,-18708.007777691815,-6594.21164920469,-187500.02235174447,-187500.02235174447,-187500.02235174447,-187500.02235174447
não,25487.135408775262,-13607.518506946386,-18798.174714824523,-6697.27554288811,-187500.02235174447,-187500.02235174447,-187500.02235174447,-187500.02235174447
não,25329.086223731785,-13715.589191387797,-19180.277786288,-6793.589209746028,-187500.02235174447,-187500.02235174447,-187500.02235174447,-187500.02235174447
não,25372.582718441812,-13629.64673395714,-19100.951445216113,-6694.32511262001,-187500.02235174447,-187500.02235174447,-187500.02235174447,-187500.02235174447
não,25528.374377295302,-13525.129976884125,-18746.94451653296,-6609.991980790136,-187500.02235174447,-187500.02235174447,-187500.02235174447,-187500.02235174447
não,25513.644577699255,-13595.292102729334,-18742.4741676419,-6683.37275783691,-187500.02235174447,-187500.02235174447,-187500.02235174447,-187500.02235174447
não,25332.01430225543,-13723.322894969333,-19146.034913782467,-6777.026567104646,-187500.02235174447,-187500.02235174447,-187500.02235174447,-187500.02235174447
não,25348.509889663448,-13652.646679001651,-19148.158329505724,-6708.5184703491295,-187500.02235174447,-187500.02235174447,-187500.02235174447,-187500.02235174447
não,25490.868150099297,-13540.575032302742,-18811.853982431174,-6623.73830363015,-187500.02235174447,-187500.02235174447,-187500.02235174447,-187500.02235174447
não,25532.24122908607,-13546.118264927658,-18697.390699075546,-6658.0929348579575,-187500.02235174447,-187500.02235174447,-187500.02235174447,-187500.02235174447
não,25372.78388414191,-13702.111089481246,-19074.77755245895,-6768.91288386737,-187500.02235174447,-187500.02235174447,-187500.02235174447,-187500.02235174447
não,25340.23974421498,-13674.506685078943,-19178.04261184247,-6715.559269852552,-187500.02235174447,-187500.02235174447,-187500.02235174447,-187500.02235174447
não,25474.03728652445,-13540.865604980661,-18864.693506323518,-6621.100797784424,-187500.02235174447,-187500.02235174447,-187500.02235174447,-187500.02235174447
não,25557.275182876016,-13539.122168913147,-18658.96805035687,-6630.846158366938,-187500.02235174447,-187500.02235174447,-187500.02235174447,-187500.02235174447
não,25399.248349576992,-13693.61742658823,-19003.05080450187,-6753.221959259744,-187500.02235174447,-187500.02235174447,-187500.02235174447,-187500.02235174447
não,25322.805383539842,-13696.411394645143,-19199.61204524184,-6751.880854592426,-187500.02235174447,-187500.02235174447,-187500.02235174447,-187500.02235174447
não,25434.40764360519,-13572.649785596108,-18934.430949024078,-6647.721725430695,-187500.02235174447,-187500.02235174447,-187500.02235174447,-187500.02235174447
não,25546.658104259743,-13533.578936288231,-18663.952489370407,-6618.865623338893,-187500.02235174447,-187500.02235174447,-187500.02235174447,-187500.02235174447
não,25433.915905227175,-13668.069382675814,-18936.420254280598,-6733.842996816993,-187500.02235174447,-187500.02235174447,-187500.02235174447,-187500.02235174447
não,25322.8277352843,-13690.868162020226,-19208.21746685713,-6762.0508983195905,-187500.02235174447,-187500.02235174447,-187500.02235174447,-187500.02235174447
não,25414.69340499561,-13582.283387456346,-18998.736917821996,-6667.391260551365,-187500.02235174447,-187500.02235174447,-187500.02235174447,-187500.02235174447
não,25537.33742682188,-13533.91421245506,-18689.79110596074,-6626.152292031324,-187500.02235174447,-187500.02235174447,-187500.02235174447,-187500.02235174447
não,25449.8079955349,-13633.379475281177,-18869.0520964923,-6726.176348468823,-187500.02235174447,-187500.02235174447,-187500.02235174447,-187500.02235174447
não,25317.999758481954,-13699.585342357797,-19199.2320655861,-6762.76615414216,-187500.02235174447,-187500.02235174447,-187500.02235174447,-187500.02235174447
não,25384.27268079194,-13603.428137711066,-19059.01957261796,-6669.000586152147,-187500.02235174447,-187500.02235174447,-187500.02235174447,-187500.02235174447
não,25524.462822015623,-13515.988113401905,-18716.926123729485,-6584.3098264109885,-187500.02235174447,-187500.02235174447,-187500.02235174447,-187500.02235174447
não,25481.86039708381,-13627.210393811512,-18796.274816545825,-6675.929626933293,-187500.02235174447,-187500.02235174447,-187500.02235174447,-187500.02235174447
não,25317.664482315122,-13740.645496922196,-19178.243777542564,-6768.398793744897,-187500.02235174447,-187500.02235174447,-187500.02235174447,-187500.02235174447
não,25357.338828723292,-13633.64769621464,-19112.775518032973,-6676.600179266951,-187500.02235174447,-187500.02235174447,-187500.02235174447,-187500.02235174447
não,25510.962368364617,-13506.19804933048,-18765.71998187542,-6605.521631899075,-187500.02235174447,-187500.02235174447,-187500.02235174447,-187500.02235174447
não,25513.91279863272,-13574.147352474612,-18745.983391521382,-6686.166725893823,-187500.02235174447,-187500.02235174447,-187500.02235174447,-187500.02235174447
não,25336.909334291144,-13710.940028541092,-19144.090312014858,-6784.469698008264,-187500.02235174447,-187500.02235174447,-187500.02235174447,-187500.02235174447
não,25342.474918660515,-13630.160824079612,-19154.863852842314,-6704.5845633249955,-187500.02235174447,-187500.02235174447,-187500.02235174447,-187500.02235174447
não,25487.761257620008,-13516.34574131319,-18815.273799332834,-6604.0911202539355,-187500.02235174447,-187500.02235174447,-187500.02235174447,-187500.02235174447
não,25525.781574938486,-13556.82475052175,-18700.676405510476,-6636.769370647594,-187500.02235174447,-187500.02235174447,-187500.02235174447,-187500.02235174447
não,25343.883078561197,-13709.464813407043,-19091.563712544885,-6757.446438961797,-187500.02235174447,-187500.02235174447,-187500.02235174447,-187500.02235174447
não,25296.787952993865,-13668.583472798286,-19208.776260468516,-6722.600069355974,-187500.02235174447,-187500.02235174447,-187500.02235174447,-187500.02235174447
não,25430.607847047788,-13541.022067191849,-18912.83916388025,-6632.746056645639,-187500.02235174447,-187500.02235174447,-187500.02235174447,-187500.02235174447
não,25507.833124140874,-13536.596421789698,-18710.958207959917,-6622.2854402405555,-187500.02235174447,-187500.02235174447,-187500.02235174447,-187500.02235174447
não,25350.700360620067,-13688.722394552517,-19046.68140967863,-6743.81187484406,-187500.02235174447,-187500.02235174447,-187500.02235174447,-187500.02235174447
não,25267.373057290682,-13689.348243397266,-19252.451569134184,-6739.207415486267,-187500.02235174447,-187500.02235174447,-187500.02235174447,-187500.02235174447
não,25391.335832039815,-13566.3018901708,-18989.460943873044,-6641.060905583014,-187500.02235174447,-187500.02235174447,-187500.02235174447,-187500.02235174447
não,25516.99733936755,-13513.14944185608,-18701.95045494443,-6618.8879750833485,-187500.02235174447,-187500.02235174447,-187500.02235174447,-187500.02235174447
não,25385.54673022589,-13646.99168765446,-18966.818626739816,-6730.870214804437,-187500.02235174447,-187500.02235174447,-187500.02235174447,-187500.02235174447
não,25268.647106724635,-13692.164563198634,-19253.05506623448,-6741.62140388744,-187500.02235174447,-187500.02235174447,-187500.02235174447,-187500.02235174447
não,25367.620631172733,-13578.3047769433,-19043.730979410528,-6629.482701955164,-187500.02235174447,-187500.02235174447,-187500.02235174447,-187500.02235174447
não,25490.108190787818,-13511.227191832924,-18734.718112315906,-6586.030910734047,-187500.02235174447,-187500.02235174447,-187500.02235174447,-187500.02235174447
não,25400.36593679976,-13632.753626436428,-18905.01605332089,-6686.546705549563,-187500.02235174447,-187500.02235174447,-187500.02235174447,-187500.02235174447
não,25260.399313020625,-13716.282095465911,-19250.90929876677,-6739.699153864283,-187500.02235174447,-187500.02235174447,-187500.02235174447,-187500.02235174447
não,25337.713997091534,-13610.513640703397,-19116.68707331265,-6644.815998651505,-187500.02235174447,-187500.02235174447,-187500.02235174447,-187500.02235174447
não,25488.320051231392,-13511.875392422127,-18764.04360104127,-6560.840494732916,-187500.02235174447,-187500.02235174447,-187500.02235174447,-187500.02235174447
não,25452.64666708072,-13609.619570925186,-18824.885049448618,-6645.263033540611,-187500.02235174447,-187500.02235174447,-187500.02235174447,-187500.02235174447
não,25286.506150544425,-13723.904040325171,-19211.57022852543,-6721.884813533404,-187500.02235174447,-187500.02235174447,-187500.02235174447,-187500.02235174447
não,25317.128040448195,-13643.817739941805,-19153.455692941632,-6637.3728677478875,-187500.02235174447,-187500.02235174447,-187500.02235174447,-187500.02235174447
não,25468.98579227755,-13538.496320068398,-18819.207706356967,-6564.416773845765,-187500.02235174447,-187500.02235174447,-187500.02235174447,-187500.02235174447
não,25479.960498805107,-13595.627378896163,-18779.689822159984,-6615.401102948321,-187500.02235174447,-187500.02235174447,-187500.02235174447,-187500.02235174447
não,25304.499304830948,-13733.62704916323,-19177.79674265346,-6719.80610129906,-187500.02235174447,-187500.02235174447,-187500.02235174447,-187500.02235174447
não,25307.96382522152,-13669.99163269897,-19209.60327501336,-6662.317414560011,-187500.02235174447,-187500.02235174447,-187500.02235174447,-187500.02235174447
não,25469.90221380022,-13545.738285271918,-18860.804302788296,-6557.599491786897,-187500.02235174447,-187500.02235174447,-187500.02235174447,-187500.02235174447
não,25525.759223194033,-13564.938433759027,-18718.04371095225,-6571.569332071464,-187500.02235174447,-187500.02235174447,-187500.02235174447,-187500.02235174447
não,25352.10852052075,-13714.225734976022,-19104.952407473615,-6689.720653262217,-187500.02235174447,-187500.02235174447,-187500.02235174447,-187500.02235174447
não,25297.05617392733,-13693.148039954667,-19244.449644619184,-6667.234798340178,-187500.02235174447,-187500.02235174447,-187500.02235174447,-187500.02235174447
não,25438.609771562788,-13570.459314639487,-18929.379454777176,-6566.026099446547,-187500.02235174447,-187500.02235174447,-187500.02235174447,-187500.02235174447
não,25529.849592429353,-13557.316488899767,-18723.13990868806,-6569.825896003949,-187500.02235174447,-187500.02235174447,-187500.02235174447,-187500.02235174447
não,25383.535073224914,-13704.033339504402,-19043.842738132804,-6687.306664861044,-187500.02235174447,-187500.02235174447,-187500.02235174447,-187500.02235174447
não,25296.09504891575,-13717.734958855506,-19265.39322917381,-6692.246400385667,-187500.02235174447,-187500.02235174447,-187500.02235174447,-187500.02235174447
não,25421.622445776757,-13593.436907939544,-19005.598903369773,-6584.801564789005,-187500.02235174447,-187500.02235174447,-187500.02235174447,-187500.02235174447
não,25544.802909469952,-13543.324296870745,-18719.764795275307,-6553.307956851478,-187500.02235174447,-187500.02235174447,-187500.02235174447,-187500.02235174447
não,25419.119050397763,-13686.800144529361,-18977.100429189257,-6673.739155976672,-187500.02235174447,-187500.02235174447,-187500.02235174447,-187500.02235174447
não,25291.62470002469,-13745.585232446818,-19276.457342679187,-6705.9927232256805,-187500.02235174447,-187500.02235174447,-187500.02235174447,-187500.02235174447
não,25387.871311649244,-13625.556364721819,-19075.962194915082,-6599.2184399626785,-187500.02235174447,-187500.02235174447,-187500.02235174447,-187500.02235174447
não,25533.09059537537,-13539.882128224628,-18737.109748972627,-6532.8337589304165,-187500.02235174447,-187500.02235174447,-187500.02235174447,-187500.02235174447
não,25455.55239385991,-13651.640850501162,-18887.246416478923,-6616.138710515346,-187500.02235174447,-187500.02235174447,-187500.02235174447,-187500.02235174447
não,25318.737366048976,-13729.201403761079,-19237.18532767121,-6674.141487376868,-187500.02235174447,-187500.02235174447,-187500.02235174447,-187500.02235174447
não,25390.754686683977,-13625.22108855499,-19116.709425057106,-6605.074597009969,-187500.02235174447,-187500.02235174447,-187500.02235174447,-187500.02235174447
não,25536.95744716614,-13534.24948862189,-18768.62570865461,-6544.613128258363,-187500.02235174447,-187500.02235174447,-187500.02235174447,-187500.02235174447
não,25503.09455431635,-13622.628286198174,-18817.218401100446,-6620.609059406407,-187500.02235174447,-187500.02235174447,-187500.02235174447,-187500.02235174447
não,25325.30877891884,-13734.521118941442,-19220.265057118544,-6707.959676737747,-187500.02235174447,-187500.02235174447,-187500.02235174447,-187500.02235174447
não,25355.72950312251,-13650.970298167504,-19179.584882209885,-6633.260146768111,-187500.02235174447,-187500.02235174447,-187500.02235174447,-187500.02235174447
não,25518.00316786804,-13540.664439280563,-18818.58185751222,-6539.047543888992,-187500.02235174447,-187500.02235174447,-187500.02235174447,-187500.02235174447
não,25530.967179652118,-13595.470916684977,-18761.406095195543,-6585.025082233558,-187500.02235174447,-187500.02235174447,-187500.02235174447,-187500.02235174447
não,25356.042427544886,-13730.676618895128,-19161.569376178908,-6688.021920683614,-187500.02235174447,-187500.02235174447,-187500.02235174447,-187500.02235174447
não,25348.91222106364,-13664.403696585143,-19211.838449458894,-6633.483664212664,-187500.02235174447,-187500.02235174447,-187500.02235174447,-187500.02235174447
não,25480.65340288322,-13542.743151514907,-18891.046213036327,-6541.617994501352,-187500.02235174447,-187500.02235174447,-187500.02235174447,-187500.02235174447
não,25529.402557540245,-13566.704221570995,-18736.08156872768,-6557.241863875612,-187500.02235174447,-187500.02235174447,-187500.02235174447,-187500.02235174447
não,25385.68084069262,-13717.533793155408,-19100.34794811582,-6675.370833321909,-187500.02235174447,-187500.02235174447,-187500.02235174447,-187500.02235174447
não,25348.509889663448,-13689.169429441623,-19235.777167770528,-6637.775199148083,-187500.02235174447,-187500.02235174447,-187500.02235174447,-187500.02235174447
não,25474.4619696691,-13562.569148846764,-18942.119949116703,-6540.031020645025,-187500.02235174447,-187500.02235174447,-187500.02235174447,-187500.02235174447
não,25567.914613236742,-13549.761599273874,-18710.37706260408,-6541.953270668182,-187500.02235174447,-187500.02235174447,-187500.02235174447,-187500.02235174447
não,25419.566085286868,-13697.171353956623,-19040.73584565352,-6671.03459489758,-187500.02235174447,-187500.02235174447,-187500.02235174447,-187500.02235174447
não,25329.712072576534,-13711.163545985646,-19258.218319203654,-6674.208542610234,-187500.02235174447,-187500.02235174447,-187500.02235174447,-187500.02235174447
não,25436.396948861715,-13590.397070693622,-19009.063423760348,-6568.440087847721,-187500.02235174447,-187500.02235174447,-187500.02235174447,-187500.02235174447
não,25541.517203035022,-13538.049285179291,-18720.055367953228,-6529.3692385398435,-187500.02235174447,-187500.02235174447,-187500.02235174447,-187500.02235174447
não,25437.738053529032,-13670.483371076987,-18939.61655373771,-6631.181434533767,-187500.02235174447,-187500.02235174447,-187500.02235174447,-187500.02235174447
não,25314.490534602468,-13716.080929765812,-19265.594394873904,-6670.431097797286,-187500.02235174447,-187500.02235174447,-187500.02235174447,-187500.02235174447
não,25409.440745048614,-13593.21339049499,-19069.591947745317,-6573.580989072441,-187500.02235174447,-187500.02235174447,-187500.02235174447,-187500.02235174447
não,25539.796118711965,-13522.96185767196,-18739.076702484694,-6524.317744292945,-187500.02235174447,-187500.02235174447,-187500.02235174447,-187500.02235174447
não,25461.676771840666,-13643.616574241707,-18881.16674198708,-6626.3981612203315,-187500.02235174447,-187500.02235174447,-187500.02235174447,-187500.02235174447
não,25285.589729021758,-13732.732979385017,-19253.770322057047,-6698.817813255527,-187500.02235174447,-187500.02235174447,-187500.02235174447,-187500.02235174447
não,25347.593468140778,-13628.417388012098,-19140.469329413096,-6618.686809383251,-187500.02235174447,-187500.02235174447,-187500.02235174447,-187500.02235174447
não,25504.212141539116,-13537.579898545731,-18790.463362987444,-6542.467360790653,-187500.02235174447,-187500.02235174447,-187500.02235174447,-187500.02235174447
não,25471.84681556783,-13617.576791951275,-18827.947238438992,-6611.914230813293,-187500.02235174447,-187500.02235174447,-187500.02235174447,-187500.02235174447
não,25311.696566545557,-13737.069217809347,-19209.60327501336,-6691.03940618508,-187500.02235174447,-187500.02235174447,-187500.02235174447,-187500.02235174447
não,25332.88602028919,-13658.27931860439,-19184.144638078767,-6610.461367423698,-187500.02235174447,-187500.02235174447,-187500.02235174447,-187500.02235174447
não,25485.637841896754,-13537.043456678803,-18835.63623853162,-6524.630668715319,-187500.02235174447,-187500.02235174447,-187500.02235174447,-187500.02235174447
não,25515.656234700233,-13577.522465887365,-18753.046542769258,-6566.1155064243685,-187500.02235174447,-187500.02235174447,-187500.02235174447,-187500.02235174447
não,25328.97446500951,-13714.136327998202,-19149.611192895318,-6680.511734546631,-187500.02235174447,-187500.02235174447,-187500.02235174447,-187500.02235174447
não,25305.70629903153,-13668.494065820465,-19217.739309995093,-6644.41366725131,-187500.02235174447,-187500.02235174447,-187500.02235174447,-187500.02235174447
não,25443.057768709394,-13543.525462570842,-18895.315396227288,-6556.303090608489,-187500.02235174447,-187500.02235174447,-187500.02235174447,-187500.02235174447
não,25514.38218526628,-13555.885977254628,-18727.23027792338,-6576.39730887381,-187500.02235174447,-187500.02235174447,-187500.02235174447,-187500.02235174447
não,25355.08130253331,-13702.75929007045,-19086.892197953726,-6696.336769620988,-187500.02235174447,-187500.02235174447,-187500.02235174447,-187500.02235174447
não,25309.908426989132,-13682.732127038495,-19230.926839223725,-6660.7974959370495,-187500.02235174447,-187500.02235174447,-187500.02235174447,-187500.02235174447
não,25455.17241420417,-13553.06965745326,-18929.51356524391,-6554.626709774341,-187500.02235174447,-187500.02235174447,-187500.02235174447,-187500.02235174447
não,25559.175081154717,-13528.259221107868,-18684.851370436118,-6544.143741624802,-187500.02235174447,-187500.02235174447,-187500.02235174447,-187500.02235174447
não,25406.132686869227,-13673.031469944892,-18988.611577583742,-6678.008339167636,-187500.02235174447,-187500.02235174447,-187500.02235174447,-187500.02235174447
não,25297.793781494354,-13696.701967323062,-19230.546859567985,-6696.046196943069,-187500.02235174447,-187500.02235174447,-187500.02235174447,-187500.02235174447
não,25424.014082433474,-13575.555512375298,-18988.455115372555,-6604.493451654131,-187500.02235174447,-187500.02235174447,-187500.02235174447,-187500.02235174447
não,25539.01380765603,-13512.612999989153,-18690.975748416873,-6557.577140042441,-187500.02235174447,-187500.02235174447,-187500.02235174447,-187500.02235174447
não,25429.579666802845,-13622.784748409362,-18903.3620242312,-6633.953050846226,-187500.02235174447,-187500.02235174447,-187500.02235174447,-187500.02235174447
não,25298.889016972666,-13688.476525363509,-19214.78887972699,-6688.357196850443,-187500.02235174447,-187500.02235174447,-187500.02235174447,-187500.02235174447
não,25369.63228817371,-13587.625454381163,-19056.471473750054,-6639.518635215597,-187500.02235174447,-187500.02235174447,-187500.02235174447,-187500.02235174447
não,25513.644577699255,-13514.803470945773,-18723.74340578835,-6592.892896281826,-187500.02235174447,-187500.02235174447,-187500.02235174447,-187500.02235174447
não,25451.372617646768,-13606.870306357183,-18831.85879371867,-6663.814981438516,-187500.02235174447,-187500.02235174447,-187500.02235174447,-187500.02235174447
não,25306.041575198364,-13674.931368223593,-19184.12228633431,-6691.240571885178,-187500.02235174447,-187500.02235174447,-187500.02235174447,-187500.02235174447
não,25362.725599137022,-13602.757585377407,-19087.96508168758,-6618.93267857226,-187500.02235174447,-187500.02235174447,-187500.02235174447,-187500.02235174447
