WORD,Channel_1,Channel_2,Channel_3,Channel_4,Channel_5,Channel_6,Channel_7,Channel_8
talvez,26891.22729196874,-13109.454585248779,-18621.26065746077,-5433.418504407228,-187500.02235174447,-187500.02235174447,-187500.02235174447,-187500.02235174447
talvez,27002.516627611712,-12995.28187457107,-18440.211527372783,-5322.486796675539,-187500.02235174447,-187500.02235174447,-187500.02235174447,-187500.02235174447
talvez,27156.47544341987,-12894.02847218853,-18104.510677398524,-5237.214891578543,-187500.02235174447,-187500.02235174447,-187500.02235174447,-187500.02235174447
talvez,27074.153968590974,-13003.350854319437,-18232.541469638523,-5337.037782315944,-187500.02235174447,-187500.02235174447,-187500.02235174447,-187500.02235174447
talvez,26898.424553683348,-13108.716977681754,-18603.401613640977,-5435.251347452563,-187500.02235174447,-187500.02235174447,-187500.02235174447,-187500.02235174447
talvez,26979.181406400374,-13017.186584137271,-18489.22890296327,-5349.353593510818,-187500.02235174447,-187500.02235174447,-187500.02235174447,-187500.02235174447
talvez,27162.443359189438,-12903.103280437384,-18132.852689367854,-5248.524874272928,-187500.02235174447,-187500.02235174447,-187500.02235174447,-187500.02235174447
talvez,27122.74666103681,-12975.053545839019,-18161.954660648666,-5314.7754448384585,-187500.02235174447,-187500.02235174447,-187500.02235174447,-187500.02235174447
talvez,26920.686891160836,-13104.134870068416,-18562.81084571014,-5439.609937621348,-187500.02235174447,-187500.02235174447,-187500.02235174447,-187500.02235174447
talvez,26949.542993252635,-13040.588860581978,-18544.370656534513,-5376.8238874463905,-187500.02235174447,-187500.02235174447,-187500.02235174447,-187500.02235174447
talvez,27128.46870761737,-12922.906926024787,-18194.856428486877,-5266.942711704101,-187500.02235174447,-187500.02235174447,-187500.02235174447,-187500.02235174447
talvez,27140.18102171195,-12957.887406097343,-18121.095671784362,-5305.343008678318,-187500.02235174447,-187500.02235174447,-187500.02235174447,-187500.02235174447
talvez,26932.80153665561,-13110.348655026992,-18525.595191192057,-5431.518606128527,-187500.02235174447,-187500.02235174447,-187500.02235174447,-187500.02235174447
talvez,26925.09018481853,-13067.030974272606,-18595.220875170337,-5392.78303298748,-187500.02235174447,-187500.02235174447,-187500.02235174447,-187500.02235174447
talvez,27111.950768464896,-12932.205251718195,-18253.015667559586,-5268.954368705078,-187500.02235174447,-187500.02235174447,-187500.02235174447,-187500.02235174447
talvez,27175.586184929158,-12924.873879536854,-18082.181284687675,-5267.099173915288,-187500.02235174447,-187500.02235174447,-187500.02235174447,-187500.02235174447
talvez,26972.72175225279,-13085.87349484843,-18455.813045002586,-5416.2076611766415,-187500.02235174447,-187500.02235174447,-187500.02235174447,-187500.02235174447
talvez,26924.17376329586,-13085.02412855913,-18608.20723869887,-5407.982219217089,-187500.02235174447,-187500.02235174447,-187500.02235174447,-187500.02235174447
talvez,27087.877939686532,-12957.216853763683,-18312.180735132784,-5283.594761323305,-187500.02235174447,-187500.02235174447,-187500.02235174447,-187500.02235174447
talvez,27189.936004869465,-12913.899173009298,-18065.37277285728,-5242.646365481182,-187500.02235174447,-187500.02235174447,-187500.02235174447,-187500.02235174447
talvez,27018.073441752607,-13065.309889949547,-18368.373020693423,-5380.556628770427,-187500.02235174447,-187500.02235174447,-187500.02235174447,-187500.02235174447
talvez,26913.13200153494,-13099.508058966168,-18615.806831813676,-5414.307762897941,-187500.02235174447,-187500.02235174447,-187500.02235174447,-187500.02235174447
talvez,27044.962590332343,-12983.636615709856,-18383.885131345407,-5301.654970843193,-187500.02235174447,-187500.02235174447,-187500.02235174447,-187500.02235174447
talvez,27182.604632688122,-12921.923449268754,-18083.880017266278,-5256.616205765749,-187500.02235174447,-187500.02235174447,-187500.02235174447,-187500.02235174447
talvez,27061.25701204026,-13041.77350303811,-18301.988339661162,-5383.797631716447,-187500.02235174447,-187500.02235174447,-187500.02235174447,-187500.02235174447
talvez,26915.32247249156,-13106.750024169687,-18623.048797017193,-5437.3971149202725,-187500.02235174447,-187500.02235174447,-187500.02235174447,-187500.02235174447
talvez,27017.984034774785,-12999.863982184408,-18450.090998422027,-5331.762770624491,-187500.02235174447,-187500.02235174447,-187500.02235174447,-187500.02235174447
talvez,27186.873815879087,-12910.948742741197,-18106.09765125485,-5244.4568567820625,-187500.02235174447,-187500.02235174447,-187500.02235174447,-187500.02235174447
talvez,27104.50763756128,-13012.112738145917,-18222.550239867003,-5339.7870468839465,-187500.02235174447,-187500.02235174447,-187500.02235174447,-187500.02235174447
talvez,26915.36717598047,-13118.775262686642,-18600.67470081743,-5431.228033450608,-187500.02235174447,-187500.02235174447,-187500.02235174447,-187500.02235174447
talvez,26981.126008167987,-13027.647200542355,-18509.837211351063,-5349.130076066265,-187500.02235174447,-187500.02235174447,-187500.02235174447,-187500.02235174447
talvez,27157.347161453625,-12917.654266077789,-18159.048933869475,-5246.647327738682,-187500.02235174447,-187500.02235174447,-187500.02235174447,-187500.02235174447
talvez,27139.488117633835,-12982.027290109074,-18159.92065190323,-5308.069921501866,-187500.02235174447,-187500.02235174447,-187500.02235174447,-187500.02235174447
talvez,26932.578019211058,-13118.104710352984,-18569.449313813366,-5427.137664215286,-187500.02235174447,-187500.02235174447,-187500.02235174447,-187500.02235174447
talvez,26959.556574768612,-13057.263261945638,-18562.922604432417,-5371.414765288207,-187500.02235174447,-187500.02235174447,-187500.02235174447,-187500.02235174447
talvez,27122.009053469785,-12933.881632552342,-18224.830117801444,-5276.1516304196875,-187500.02235174447,-187500.02235174447,-187500.02235174447,-187500.02235174447
talvez,27138.906972277997,-12959.496731698124,-18132.20448877865,-5299.7550725644915,-187500.02235174447,-187500.02235174447,-187500.02235174447,-187500.02235174447
talvez,26956.628496244968,-13108.44875674829,-18508.071423539095,-5426.064780481432,-187500.02235174447,-187500.02235174447,-187500.02235174447,-187500.02235174447
talvez,26963.04344690364,-13073.512980164645,-18573.204406881858,-5376.019224645999,-187500.02235174447,-187500.02235174447,-187500.02235174447,-187500.02235174447
talvez,27121.584370325134,-12941.36946694487,-18261.598737430424,-5260.550112789883,-187500.02235174447,-187500.02235174447,-187500.02235174447,-187500.02235174447
talvez,27192.349993270636,-12932.182899973739,-18078.403839874725,-5259.767801733948,-187500.02235174447,-187500.02235174447,-187500.02235174447,-187500.02235174447
talvez,26998.135685698475,-13089.092146049994,-18435.74117848172,-5413.994838475566,-187500.02235174447,-187500.02235174447,-187500.02235174447,-187500.02235174447
talvez,26919.189324282328,-13091.327320495526,-18623.227610972837,-5403.109538925832,-187500.02235174447,-187500.02235174447,-187500.02235174447,-187500.02235174447
talvez,27071.337648789606,-12969.80088589202,-18348.479968128202,-5289.003883481489,-187500.02235174447,-187500.02235174447,-187500.02235174447,-187500.02235174447
talvez,27187.47731297938,-12928.51721388307,-18088.529180112982,-5252.637595252704,-187500.02235174447,-187500.02235174447,-187500.02235174447,-187500.02235174447
talvez,27022.38732843248,-13071.25545397466,-18371.725782361722,-5372.845276933346,-187500.02235174447,-187500.02235174447,-187500.02235174447,-187500.02235174447
talvez,26900.525617662148,-13114.908410895874,-18638.717369880364,-5417.951097244156,-187500.02235174447,-187500.02235174447,-187500.02235174447,-187500.02235174447
talvez,27028.668168624423,-12997.584104249967,-18419.245591073704,-5319.245793729519,-187500.02235174447,-187500.02235174447,-187500.02235174447,-187500.02235174447
talvez,27183.99044084435,-12920.247068434604,-18098.11807848431,-5249.888330684702,-187500.02235174447,-187500.02235174447,-187500.02235174447,-187500.02235174447
talvez,27076.769122692243,-13037.973706480707,-18283.928130141274,-5360.10478259382,-187500.02235174447,-187500.02235174447,-187500.02235174447,-187500.02235174447
talvez,26921.8044783836,-13119.177594086837,-18619.71838709335,-5426.154187459253,-187500.02235174447,-187500.02235174447,-187500.02235174447,-187500.02235174447
talvez,27018.20755221934,-13021.00873243913,-18463.300879395116,-5324.945488565622,-187500.02235174447,-187500.02235174447,-187500.02235174447,-187500.02235174447
talvez,27172.85927210561,-12926.930240026742,-18128.53880268798,-5249.307185328864,-187500.02235174447,-187500.02235174447,-187500.02235174447,-187500.02235174447
talvez,27104.03825092772,-13012.269200357105,-18214.525963607546,-5329.907575834701,-187500.02235174447,-187500.02235174447,-187500.02235174447,-187500.02235174447
talvez,26917.065908559074,-13119.579925487033,-18595.24322691479,-5416.654696065748,-187500.02235174447,-187500.02235174447,-187500.02235174447,-187500.02235174447
talvez,26975.314554609606,-13032.363418622426,-18525.81870863661,-5345.196169042131,-187500.02235174447,-187500.02235174447,-187500.02235174447,-187500.02235174447
talvez,27153.636771874044,-12926.550260371001,-18174.382230565814,-5252.279967341419,-187500.02235174447,-187500.02235174447,-187500.02235174447,-187500.02235174447
talvez,27134.257809431292,-12986.922322144786,-18166.626175239824,-5316.474177417062,-187500.02235174447,-187500.02235174447,-187500.02235174447,-187500.02235174447
talvez,26941.47401350427,-13124.184384844826,-18567.929395190407,-5439.9228620437225,-187500.02235174447,-187500.02235174447,-187500.02235174447,-187500.02235174447
talvez,26966.48561554976,-13070.897826063374,-18579.19467439588,-5380.891904937256,-187500.02235174447,-187500.02235174447,-187500.02235174447,-187500.02235174447
talvez,27123.864248259575,-12956.300432241016,-18246.22073724517,-5275.078746685833,-187500.02235174447,-187500.02235174447,-187500.02235174447,-187500.02235174447
talvez,27161.593992900132,-12973.511275471601,-18125.744834631067,-5291.0602439713775,-187500.02235174447,-187500.02235174447,-187500.02235174447,-187500.02235174447
talvez,26964.630420759968,-13114.461376006768,-18508.741975872752,-5416.632344321292,-187500.02235174447,-187500.02235174447,-187500.02235174447,-187500.02235174447
talvez,26944.983237383753,-13086.521695437634,-18602.596950840587,-5383.015320660511,-187500.02235174447,-187500.02235174447,-187500.02235174447,-187500.02235174447
talvez,27117.382242367537,-12959.94376658723,-18284.732792941668,-5273.782345507425,-187500.02235174447,-187500.02235174447,-187500.02235174447,-187500.02235174447
talvez,27196.730935183878,-12937.837891320933,-18080.14727594224,-5260.728926745525,-187500.02235174447,-187500.02235174447,-187500.02235174447,-187500.02235174447
talvez,26994.29118565216,-13083.995948314185,-18426.30874232158,-5388.223277118597,-187500.02235174447,-187500.02235174447,-187500.02235174447,-187500.02235174447
talvez,26913.355518979493,-13099.105727565971,-18631.229535487837,-5399.980294702089,-187500.02235174447,-187500.02235174447,-187500.02235174447,-187500.02235174447
talvez,27073.058733112663,-12979.27802554107,-18358.06886649953,-5290.412043382174,-187500.02235174447,-187500.02235174447,-187500.02235174447,-187500.02235174447
talvez,27201.022470119296,-12936.094455253418,-18079.789648030957,-5252.458781297062,-187500.02235174447,-187500.02235174447,-187500.02235174447,-187500.02235174447
talvez,27036.02189255022,-13071.054288274561,-18350.24575594017,-5368.464335020106,-187500.02235174447,-187500.02235174447,-187500.02235174447,-187500.02235174447
talvez,26916.820039370068,-13117.143585341406,-18631.609515143577,-5399.220335390608,-187500.02235174447,-187500.02235174447,-187500.02235174447,-187500.02235174447
talvez,27044.962590332343,-13008.514107288613,-18419.446756773803,-5302.459633643584,-187500.02235174447,-187500.02235174447,-187500.02235174447,-187500.02235174447
talvez,27201.42480151949,-12927.824309804953,-18090.607892347325,-5234.979717133012,-187500.02235174447,-187500.02235174447,-187500.02235174447,-187500.02235174447
talvez,27086.40272455248,-13033.123377933905,-18259.18474902925,-5327.493587433528,-187500.02235174447,-187500.02235174447,-187500.02235174447,-187500.02235174447
talvez,26902.47021942976,-13126.285448823626,-18630.916611065462,-5409.256268651041,-187500.02235174447,-187500.02235174447,-187500.02235174447,-187500.02235174447
talvez,26984.791694258656,-13034.442130856769,-18509.099603784038,-5334.802607870413,-187500.02235174447,-187500.02235174447,-187500.02235174447,-187500.02235174447
talvez,27165.28203073526,-12931.914679040276,-18147.180157563707,-5238.265423567942,-187500.02235174447,-187500.02235174447,-187500.02235174447,-187500.02235174447
talvez,27121.293797647217,-13004.75901422012,-18198.58916981091,-5306.90763079019,-187500.02235174447,-187500.02235174447,-187500.02235174447,-187500.02235174447
talvez,26925.760737152188,-13116.651846963388,-18580.5357790632,-5410.798539018458,-187500.02235174447,-187500.02235174447,-187500.02235174447,-187500.02235174447
talvez,26960.987086413752,-13044.6792298173,-18532.5242319732,-5345.10676206431,-187500.02235174447,-187500.02235174447,-187500.02235174447,-187500.02235174447
talvez,27145.433681658946,-12937.793187832021,-18155.360896034348,-5237.304298556363,-187500.02235174447,-187500.02235174447,-187500.02235174447,-187500.02235174447
talvez,27162.59982140062,-12987.458764011713,-18110.858572823832,-5273.38001410723,-187500.02235174447,-187500.02235174447,-187500.02235174447,-187500.02235174447
talvez,26951.66640897589,-13116.607143474477,-18544.258897812237,-5384.021149160999,-187500.02235174447,-187500.02235174447,-187500.02235174447,-187500.02235174447
talvez,26939.75292918121,-13078.720936622733,-18560.128636375506,-5339.563529439393,-187500.02235174447,-187500.02235174447,-187500.02235174447,-187500.02235174447
talvez,27124.713614548877,-12952.143007772329,-18219.622161343355,-5230.084685097299,-187500.02235174447,-187500.02235174447,-187500.02235174447,-187500.02235174447
talvez,27184.146903055538,-12953.573519417469,-18094.742965071557,-5258.940787189101,-187500.02235174447,-187500.02235174447,-187500.02235174447,-187500.02235174447
talvez,26953.76747295469,-13111.399187016392,-18527.606848193034,-5406.015265705021,-187500.02235174447,-187500.02235174447,-187500.02235174447,-187500.02235174447
talvez,26933.963827367286,-13078.720936622733,-18595.891427503997,-5353.600424957326,-187500.02235174447,-187500.02235174447,-187500.02235174447,-187500.02235174447
talvez,27084.12284661804,-12966.537531201546,-18327.983418462685,-5263.65700526917,-187500.02235174447,-187500.02235174447,-187500.02235174447,-187500.02235174447
talvez,27221.161391873527,-12953.417057206281,-18030.392292784727,-5194.925391069101,-187500.02235174447,-187500.02235174447,-187500.02235174447,-187500.02235174447
talvez,27055.222041037327,-13085.493515192691,-18355.856043798452,-5316.049494272411,-187500.02235174447,-187500.02235174447,-187500.02235174447,-187500.02235174447
talvez,26930.029920343153,-13096.35646299797,-18669.003983617305,-5374.1193263672985,-187500.02235174447,-187500.02235174447,-187500.02235174447,-187500.02235174447
talvez,27100.88665495952,-12971.544321959534,-18342.400293636358,-5251.363545818752,-187500.02235174447,-187500.02235174447,-187500.02235174447,-187500.02235174447
talvez,27255.35956089015,-12913.943876498208,-18054.778045985466,-5190.9244288116015,-187500.02235174447,-187500.02235174447,-187500.02235174447,-187500.02235174447
talvez,27124.020710470762,-13035.425607612802,-18291.23715057816,-5293.80950853938,-187500.02235174447,-187500.02235174447,-187500.02235174447,-187500.02235174447
talvez,26985.551653570135,-13088.82392511653,-18572.28798535919,-5330.0416863014325,-187500.02235174447,-187500.02235174447,-187500.02235174447,-187500.02235174447
talvez,27107.07808817364,-12982.362566275904,-18357.353610676957,-5211.957420344045,-187500.02235174447,-187500.02235174447,-187500.02235174447,-187500.02235174447
talvez,27269.217642452437,-12905.6960827942,-18006.542981450915,-5134.285108361853,-187500.02235174447,-187500.02235174447,-187500.02235174447,-187500.02235174447
talvez,27165.70671387991,-13017.320694604005,-18148.476558742113,-5225.0331908504,-187500.02235174447,-187500.02235174447,-187500.02235174447,-187500.02235174447
talvez,26994.33588914107,-13116.182460329826,-18509.099603784038,-5296.737587063025,-187500.02235174447,-187500.02235174447,-187500.02235174447,-187500.02235174447
talvez,27079.83131168262,-13025.00969469663,-18384.533331934614,-5216.763045401936,-187500.02235174447,-187500.02235174447,-187500.02235174447,-187500.02235174447
talvez,27256.745369046377,-12921.811690546476,-18017.808260656388,-5123.332753578753,-187500.02235174447,-187500.02235174447,-187500.02235174447,-187500.02235174447
talvez,27226.458755309435,-13001.160383362816,-18037.120167865774,-5179.7709083284035,-187500.02235174447,-187500.02235174447,-187500.02235174447,-187500.02235174447
talvez,27052.718645658333,-13123.491480766712,-18402.370024009946,-5269.557865805372,-187500.02235174447,-187500.02235174447,-187500.02235174447,-187500.02235174447
talvez,27107.56982655166,-13055.095142733473,-18336.790005778075,-5190.298579966853,-187500.02235174447,-187500.02235174447,-187500.02235174447,-187500.02235174447
talvez,27270.894023286586,-12932.406417418291,-17987.298129474893,-5099.461090500485,-187500.02235174447,-187500.02235174447,-187500.02235174447,-187500.02235174447
talvez,27268.34592441868,-12978.47336274068,-17926.568439789826,-5159.140248196155,-187500.02235174447,-187500.02235174447,-187500.02235174447,-187500.02235174447
talvez,27065.503843486767,-13161.243577151727,-18328.25163939615,-5270.943673961601,-187500.02235174447,-187500.02235174447,-187500.02235174447,-187500.02235174447
talvez,27060.362942262047,-13131.06872213706,-18370.317622461036,-5213.566745944828,-187500.02235174447,-187500.02235174447,-187500.02235174447,-187500.02235174447
talvez,27248.96696197593,-12992.264389069604,-18016.377749011248,-5099.394035267119,-187500.02235174447,-187500.02235174447,-187500.02235174447,-187500.02235174447
talvez,27345.526498022857,-12944.386952446337,-17825.113871707188,-5118.527128520862,-187500.02235174447,-187500.02235174447,-187500.02235174447,-187500.02235174447
talvez,27143.980818269352,-13098.636340932411,-18202.210152412674,-5246.356755060763,-187500.02235174447,-187500.02235174447,-187500.02235174447,-187500.02235174447
talvez,27061.50288122927,-13113.634361461922,-18356.079561243005,-5224.988487361489,-187500.02235174447,-187500.02235174447,-187500.02235174447,-187500.02235174447
talvez,27186.24796703434,-13036.140863435372,-18079.789648030957,-5140.0295066868675,-187500.02235174447,-187500.02235174447,-187500.02235174447,-187500.02235174447
talvez,27290.161227007062,-12957.060391552495,-17852.38299994266,-5131.692306005038,-187500.02235174447,-187500.02235174447,-187500.02235174447,-187500.02235174447
talvez,27139.46576588938,-13037.86194775843,-18152.812797166443,-5274.363490863263,-187500.02235174447,-187500.02235174447,-187500.02235174447,-187500.02235174447
talvez,27048.49416595628,-13073.982366798207,-18381.717012133242,-5290.3002846598965,-187500.02235174447,-187500.02235174447,-187500.02235174447,-187500.02235174447
talvez,27160.588164399644,-12978.898045885331,-18168.77194270753,-5221.591022204283,-187500.02235174447,-187500.02235174447,-187500.02235174447,-187500.02235174447
talvez,27276.034924511307,-12905.941951983208,-17881.082639823275,-5195.685350380582,-187500.02235174447,-187500.02235174447,-187500.02235174447,-187500.02235174447
talvez,27169.41710345949,-12975.94761561723,-18081.756601543024,-5260.28189185642,-187500.02235174447,-187500.02235174447,-187500.02235174447,-187500.02235174447
talvez,27058.21717479434,-13058.023221257117,-18366.897805559376,-5268.954368705078,-187500.02235174447,-187500.02235174447,-187500.02235174447,-187500.02235174447
talvez,27159.448225432425,-12966.85045562392,-18186.89920746079,-5184.084795008278,-187500.02235174447,-187500.02235174447,-187500.02235174447,-187500.02235174447
talvez,27300.443029456503,-12879.83511445941,-17862.44128494755,-5135.022715928879,-187500.02235174447,-187500.02235174447,-187500.02235174447,-187500.02235174447
talvez,27196.32860378368,-12969.286795769549,-18007.504106462493,-5209.006990075945,-187500.02235174447,-187500.02235174447,-187500.02235174447,-187500.02235174447
talvez,26994.179426929884,-13088.265131505148,-18423.961809153774,-5308.427549413151,-187500.02235174447,-187500.02235174447,-187500.02235174447,-187500.02235174447
talvez,27047.376578733514,-12999.081671128473,-18340.858023268942,-5271.9271507176345,-187500.02235174447,-187500.02235174447,-187500.02235174447,-187500.02235174447
talvez,27222.994234918864,-12869.352146309871,-17981.196103238595,-5202.636742906183,-187500.02235174447,-187500.02235174447,-187500.02235174447,-187500.02235174447
talvez,27191.031240347773,-12931.735865084633,-18002.13968779322,-5273.536476318416,-187500.02235174447,-187500.02235174447,-187500.02235174447,-187500.02235174447
talvez,26998.225092676294,-13049.529558364102,-18396.245646029194,-5366.877361163779,-187500.02235174447,-187500.02235174447,-187500.02235174447,-187500.02235174447
talvez,27041.16279377494,-12983.48015349867,-18368.842407326985,-5296.290552173919,-187500.02235174447,-187500.02235174447,-187500.02235174447,-187500.02235174447
talvez,27214.18764760347,-12871.520265522036,-18021.56335372488,-5185.604713631238,-187500.02235174447,-187500.02235174447,-187500.02235174447,-187500.02235174447
talvez,27223.03893840777,-12904.444385104704,-17953.79286453639,-5215.220775034521,-187500.02235174447,-187500.02235174447,-187500.02235174447,-187500.02235174447
talvez,27022.07440401011,-13046.355610651448,-18360.058171756053,-5338.647107916726,-187500.02235174447,-187500.02235174447,-187500.02235174447,-187500.02235174447
talvez,27009.378613159493,-13009.29641834455,-18438.713960494275,-5319.849290829813,-187500.02235174447,-187500.02235174447,-187500.02235174447,-187500.02235174447
talvez,27160.632867888555,-12898.632931546323,-18114.144279258762,-5217.590059946783,-187500.02235174447,-187500.02235174447,-187500.02235174447,-187500.02235174447
talvez,27242.619066550622,-12890.273379120039,-17940.538280074394,-5207.263554008431,-187500.02235174447,-187500.02235174447,-187500.02235174447,-187500.02235174447
talvez,27056.809014893654,-13030.418816854813,-18322.931924215787,-5341.999869585022,-187500.02235174447,-187500.02235174447,-187500.02235174447,-187500.02235174447
talvez,26995.16290368592,-13033.77157852311,-18472.17452194387,-5336.434285215651,-187500.02235174447,-187500.02235174447,-187500.02235174447,-187500.02235174447
talvez,27135.665969331978,-12912.155736941784,-18169.084867129906,-5212.896193611168,-187500.02235174447,-187500.02235174447,-187500.02235174447,-187500.02235174447
talvez,27246.30710438575,-12881.936178438209,-17924.132099644197,-5188.97982704399,-187500.02235174447,-187500.02235174447,-187500.02235174447,-187500.02235174447
talvez,27083.564053006656,-13020.919325461307,-18252.009839059097,-5318.754055351503,-187500.02235174447,-187500.02235174447,-187500.02235174447,-187500.02235174447
talvez,26986.177502414885,-13045.640354828878,-18487.150190728928,-5333.237985758542,-187500.02235174447,-187500.02235174447,-187500.02235174447,-187500.02235174447
talvez,27111.50373357579,-12934.641591863823,-18251.13812102534,-5230.330554286308,-187500.02235174447,-187500.02235174447,-187500.02235174447,-187500.02235174447
talvez,27247.87172649762,-12874.046012645485,-17936.44791083907,-5175.479373392985,-187500.02235174447,-187500.02235174447,-187500.02235174447,-187500.02235174447
talvez,27128.736928550832,-12999.595761250945,-18175.723335233135,-5294.9494475066,-187500.02235174447,-187500.02235174447,-187500.02235174447,-187500.02235174447
talvez,26989.642022805456,-13069.422610929325,-18504.65160663743,-5352.751058668025,-187500.02235174447,-187500.02235174447,-187500.02235174447,-187500.02235174447
talvez,27089.375506565037,-12969.62207193638,-18322.48488932668,-5254.0234034089335,-187500.02235174447,-187500.02235174447,-187500.02235174447,-187500.02235174447
talvez,27251.984447477396,-12880.572722026434,-17958.8890622722,-5170.986672757468,-187500.02235174447,-187500.02235174447,-187500.02235174447,-187500.02235174447
talvez,27179.810664631208,-12970.069106825484,-18085.399935889236,-5271.8153919953575,-187500.02235174447,-187500.02235174447,-187500.02235174447,-187500.02235174447
talvez,27017.201723718852,-13082.744250624688,-18422.620704486457,-5354.315680779896,-187500.02235174447,-187500.02235174447,-187500.02235174447,-187500.02235174447
talvez,27070.10830284456,-13004.490793286657,-18388.757811636664,-5271.055432683877,-187500.02235174447,-187500.02235174447,-187500.02235174447,-187500.02235174447
talvez,27245.591848563177,-12883.903131950276,-18019.685807190635,-5174.026510003389,-187500.02235174447,-187500.02235174447,-187500.02235174447,-187500.02235174447
talvez,27234.7289007579,-12943.001144290107,-18007.83938262932,-5224.586155961294,-187500.02235174447,-187500.02235174447,-187500.02235174447,-187500.02235174447
talvez,27038.368825718026,-13076.642224388388,-18411.377777025435,-5327.493587433528,-187500.02235174447,-187500.02235174447,-187500.02235174447,-187500.02235174447
talvez,27075.673887213932,-13020.561697550023,-18386.612044168956,-5259.432525567117,-187500.02235174447,-187500.02235174447,-187500.02235174447,-187500.02235174447
talvez,27248.050540453263,-12911.351074141392,-18038.95301091111,-5167.365690155708,-187500.02235174447,-187500.02235174447,-187500.02235174447,-187500.02235174447
talvez,27279.700610601976,-12936.98852503163,-17931.150547403162,-5191.952609056546,-187500.02235174447,-187500.02235174447,-187500.02235174447,-187500.02235174447
talvez,27082.82644543963,-13079.279730234115,-18319.690921269765,-5315.401293683207,-187500.02235174447,-187500.02235174447,-187500.02235174447,-187500.02235174447
talvez,27049.678808412413,-13051.943546765275,-18416.429271272336,-5282.700691545092,-187500.02235174447,-187500.02235174447,-187500.02235174447,-187500.02235174447
talvez,27189.57837695818,-12937.65907736529,-18116.066529281918,-5180.8884955511685,-187500.02235174447,-187500.02235174447,-187500.02235174447,-187500.02235174447
talvez,27275.811407066754,-12927.734902827133,-17920.332303086794,-5181.156716484633,-187500.02235174447,-187500.02235174447,-187500.02235174447,-187500.02235174447
talvez,27114.342405121613,-13071.68013711931,-18267.09726656643,-5302.817261554869,-187500.02235174447,-187500.02235174447,-187500.02235174447,-187500.02235174447
talvez,27053.411549736447,-13065.734573094198,-18441.664390762377,-5296.469366129561,-187500.02235174447,-187500.02235174447,-187500.02235174447,-187500.02235174447
talvez,27180.19064428695,-12951.964193816686,-18169.82247469693,-5189.717434611015,-187500.02235174447,-187500.02235174447,-187500.02235174447,-187500.02235174447
talvez,27313.6976139185,-12916.380216643836,-17885.240064291964,-5152.658242304116,-187500.02235174447,-187500.02235174447,-187500.02235174447,-187500.02235174447
talvez,27162.08573127815,-13057.10679973445,-18173.912843932252,-5276.553961819883,-187500.02235174447,-187500.02235174447,-187500.02235174447,-187500.02235174447
talvez,27037.407700706448,-13103.844297390497,-18457.712943281287,-5307.756997079492,-187500.02235174447,-187500.02235174447,-187500.02235174447,-187500.02235174447
talvez,27117.739870278823,-12998.52287751709,-18271.90289162432,-5240.075914868822,-187500.02235174447,-187500.02235174447,-187500.02235174447,-187500.02235174447
talvez,27259.20406093646,-12926.170280715261,-17943.578117320314,-5174.138268725666,-187500.02235174447,-187500.02235174447,-187500.02235174447,-187500.02235174447
talvez,27198.966109629408,-13010.86104045642,-18091.077278980887,-5230.218795564031,-187500.02235174447,-187500.02235174447,-187500.02235174447,-187500.02235174447
talvez,27056.40668349346,-13096.177649042327,-18423.358312053482,-5286.52283984695,-187500.02235174447,-187500.02235174447,-187500.02235174447,-187500.02235174447
talvez,27122.94782673691,-13012.224496868193,-18291.70653721172,-5213.231469777998,-187500.02235174447,-187500.02235174447,-187500.02235174447,-187500.02235174447
talvez,27277.018401267338,-12923.46571963617,-17957.32444016033,-5132.228747871965,-187500.02235174447,-187500.02235174447,-187500.02235174447,-187500.02235174447
talvez,27204.017603876306,-13018.751206249144,-18056.72264775308,-5235.963193889045,-187500.02235174447,-187500.02235174447,-187500.02235174447,-187500.02235174447
talvez,27039.30759898515,-13102.816117145554,-18425.369969054456,-5322.19622399762,-187500.02235174447,-187500.02235174447,-187500.02235174447,-187500.02235174447
talvez,27085.97804140783,-13040.991191982173,-18367.12132300393,-5266.13804890371,-187500.02235174447,-187500.02235174447,-187500.02235174447,-187500.02235174447
talvez,27241.546182816768,-12934.7533505861,-18021.831574658343,-5189.40451018864,-187500.02235174447,-187500.02235174447,-187500.02235174447,-187500.02235174447
talvez,27213.76296445882,-13007.083595643473,-18018.76938566797,-5250.603586507272,-187500.02235174447,-187500.02235174447,-187500.02235174447,-187500.02235174447
talvez,27014.6759765954,-13136.07551289505,-18421.346655052505,-5346.067887075888,-187500.02235174447,-187500.02235174447,-187500.02235174447,-187500.02235174447
talvez,27052.20455553586,-13040.72297104871,-18411.26601830316,-5276.486906586517,-187500.02235174447,-187500.02235174447,-187500.02235174447,-187500.02235174447
talvez,27239.378063604603,-12942.08472276744,-18066.736229269056,-5172.305425680331,-187500.02235174447,-187500.02235174447,-187500.02235174447,-187500.02235174447
talvez,27282.002840280875,-12960.99429857663,-17943.756931275955,-5186.8117078318255,-187500.02235174447,-187500.02235174447,-187500.02235174447,-187500.02235174447
talvez,27068.54368073269,-13097.339939754003,-18344.322543659513,-5327.225366500064,-187500.02235174447,-187500.02235174447,-187500.02235174447,-187500.02235174447
talvez,27026.812973834632,-13075.524637165623,-18463.50204509521,-5305.566526122871,-187500.02235174447,-187500.02235174447,-187500.02235174447,-187500.02235174447
talvez,27163.583298156656,-12968.504484713612,-18169.286032830005,-5209.319914498319,-187500.02235174447,-187500.02235174447,-187500.02235174447,-187500.02235174447
talvez,27236.96407520343,-12959.18380727575,-17991.16498126566,-5220.898118126169,-187500.02235174447,-187500.02235174447,-187500.02235174447,-187500.02235174447
talvez,27088.950823420386,-13082.185457013305,-18291.818295933997,-5340.144674795231,-187500.02235174447,-187500.02235174447,-187500.02235174447,-187500.02235174447
talvez,26993.30770889613,-13107.331169525525,-18513.23467650827,-5354.785067413458,-187500.02235174447,-187500.02235174447,-187500.02235174447,-187500.02235174447
talvez,27147.512393893292,-12986.452935511224,-18226.238277702127,-5237.840740423291,-187500.02235174447,-187500.02235174447,-187500.02235174447,-187500.02235174447
talvez,27267.898889529573,-12935.043923264018,-17946.93087898861,-5193.070196279311,-187500.02235174447,-187500.02235174447,-187500.02235174447,-187500.02235174447
talvez,27125.83120177164,-13066.494532405679,-18214.41420488527,-5305.007732511489,-187500.02235174447,-187500.02235174447,-187500.02235174447,-187500.02235174447
talvez,26998.917996754408,-13101.78793690061,-18508.227885750282,-5354.069811590888,-187500.02235174447,-187500.02235174447,-187500.02235174447,-187500.02235174447
talvez,27101.914835204465,-12998.679339728278,-18308.13506938637,-5265.512200058961,-187500.02235174447,-187500.02235174447,-187500.02235174447,-187500.02235174447
talvez,27244.831889251698,-12943.582289645945,-17989.399193453693,-5201.0274173054,-187500.02235174447,-187500.02235174447,-187500.02235174447,-187500.02235174447
talvez,27131.709710563387,-13065.131075993906,-18181.51243704706,-5317.412950684185,-187500.02235174447,-187500.02235174447,-187500.02235174447,-187500.02235174447
talvez,26973.70522900882,-13133.572117516056,-18527.204516792837,-5385.563419528416,-187500.02235174447,-187500.02235174447,-187500.02235174447,-187500.02235174447
talvez,27074.489244757802,-13017.208935881727,-18366.137846247893,-5280.197296166098,-187500.02235174447,-187500.02235174447,-187500.02235174447,-187500.02235174447
talvez,27247.223525908415,-12922.191670202217,-18013.62848444325,-5209.677542409604,-187500.02235174447,-187500.02235174447,-187500.02235174447,-187500.02235174447
talvez,27178.313097752703,-13013.252677113138,-18092.977177259585,-5287.171040436154,-187500.02235174447,-187500.02235174447,-187500.02235174447,-187500.02235174447
talvez,26980.254290134228,-13125.972524401252,-18495.75561234422,-5379.1708206141975,-187500.02235174447,-187500.02235174447,-187500.02235174447,-187500.02235174447
talvez,27023.147287743963,-13039.471273359213,-18445.307725108592,-5319.1787384961535,-187500.02235174447,-187500.02235174447,-187500.02235174447,-187500.02235174447
talvez,27190.98653685886,-12931.08766449543,-18090.138505713763,-5239.338307301797,-187500.02235174447,-187500.02235174447,-187500.02235174447,-187500.02235174447
talvez,27193.91461538251,-12980.082688341463,-18048.34074358234,-5278.900894987691,-187500.02235174447,-187500.02235174447,-187500.02235174447,-187500.02235174447
talvez,26984.992859958755,-13123.6479429779,-18457.779998514652,-5393.677102765692,-187500.02235174447,-187500.02235174447,-187500.02235174447,-187500.02235174447
talvez,26996.504008353237,-13070.271977218626,-18489.40771691891,-5350.985270856056,-187500.02235174447,-187500.02235174447,-187500.02235174447,-187500.02235174447
talvez,27156.766016097787,-12969.130333558362,-18155.249137312072,-5240.008859635456,-187500.02235174447,-187500.02235174447,-187500.02235174447,-187500.02235174447
talvez,27228.313950099226,-12954.445237451226,-17998.116373791265,-5237.840740423291,-187500.02235174447,-187500.02235174447,-187500.02235174447,-187500.02235174447
talvez,27036.848907095067,-13082.96776806924,-18370.652898627868,-5369.805439687424,-187500.02235174447,-187500.02235174447,-187500.02235174447,-187500.02235174447
talvez,26973.32524935308,-13069.310852207049,-18525.170508047406,-5388.424442818695,-187500.02235174447,-187500.02235174447,-187500.02235174447,-187500.02235174447
$SILENCE,27117.98573946783,-12940.341286699926,-18228.205231214193,-5284.488831101517,-187500.02235174447,-187500.02235174447,-187500.02235174447,-187500.02235174447
$SILENCE,27209.314967312213,-12918.436577133725,-17991.23203649903,-5253.174037119632,-187500.02235174447,-187500.02235174447,-187500.02235174447,-187500.02235174447
$SILENCE,27037.4300524509,-13085.87349484843,-18307.129240885883,-5356.707317436614,-187500.02235174447,-187500.02235174447,-187500.02235174447,-187500.02235174447
$SILENCE,26945.631437972956,-13105.274809035636,-18537.66513319792,-5361.423535516684,-187500.02235174447,-187500.02235174447,-187500.02235174447,-187500.02235174447
$SILENCE,27083.78757045121,-12994.320749559492,-18287.057374365017,-5279.079708943333,-187500.02235174447,-187500.02235174447,-187500.02235174447,-187500.02235174447
$SILENCE,27213.785316203277,-12933.144024985317,-17994.02600455594,-5244.903891671168,-187500.02235174447,-187500.02235174447,-187500.02235174447,-187500.02235174447
$SILENCE,27075.986811636307,-13024.428549340792,-18249.238222746637,-5349.688869677648,-187500.02235174447,-187500.02235174447,-187500.02235174447,-187500.02235174447
$SILENCE,26940.08820534804,-13086.007605315162,-18558.54166251918,-5407.155204672242,-187500.02235174447,-187500.02235174447,-187500.02235174447,-187500.02235174447
$SILENCE,27045.320218243625,-12985.38005177737,-18356.973631021217,-5318.418779184673,-187500.02235174447,-187500.02235174447,-187500.02235174447,-187500.02235174447
$SILENCE,27207.727993455886,-12909.518231096057,-18017.76355716748,-5231.22462406452,-187500.02235174447,-187500.02235174447,-187500.02235174447,-187500.02235174447
$SILENCE,27103.747678249798,-13019.980552194185,-18171.87883518682,-5320.475139674561,-187500.02235174447,-187500.02235174447,-187500.02235174447,-187500.02235174447
$SILENCE,26921.692719661325,-13102.16791655635,-18547.63401122499,-5403.668332537214,-187500.02235174447,-187500.02235174447,-187500.02235174447,-187500.02235174447
$SILENCE,26988.01034546022,-13018.259467871127,-18443.966620441275,-5335.741381137536,-187500.02235174447,-187500.02235174447,-187500.02235174447,-187500.02235174447
$SILENCE,27145.880716548054,-12931.646458106812,-18098.185133717674,-5248.323708572831,-187500.02235174447,-187500.02235174447,-187500.02235174447,-187500.02235174447
$SILENCE,27127.529934350245,-12939.581327388445,-18113.183154247185,-5288.959179992578,-187500.02235174447,-187500.02235174447,-187500.02235174447,-187500.02235174447
$SILENCE,26930.968693610277,-13067.500360906168,-18516.498031198746,-5397.20867838963,-187500.02235174447,-187500.02235174447,-187500.02235174447,-187500.02235174447
$SILENCE,26973.213490630806,-13041.549985593556,-18475.32611791207,-5334.713200892592,-187500.02235174447,-187500.02235174447,-187500.02235174447,-187500.02235174447
$SILENCE,27155.51431840829,-12912.200440430695,-18118.033482793988,-5248.70368822857,-187500.02235174447,-187500.02235174447,-187500.02235174447,-187500.02235174447
$SILENCE,27156.676609119968,-12971.298452770527,-18069.23962464805,-5289.026235225944,-187500.02235174447,-187500.02235174447,-187500.02235174447,-187500.02235174447
$SILENCE,26958.34958056803,-13095.484744964213,-18464.597280573522,-5404.0036087040435,-187500.02235174447,-187500.02235174447,-187500.02235174447,-187500.02235174447
$SILENCE,26940.62464721497,-13037.86194775843,-18525.3716737475,-5370.878323421279,-187500.02235174447,-187500.02235174447,-187500.02235174447,-187500.02235174447
$SILENCE,27085.75452396328,-12924.583306858935,-18211.419071128257,-5276.486906586517,-187500.02235174447,-187500.02235174447,-187500.02235174447,-187500.02235174447
$SILENCE,27155.961353297396,-12914.703835809689,-18046.150272625717,-5277.2692176424525,-187500.02235174447,-187500.02235174447,-187500.02235174447,-187500.02235174447
$SILENCE,26978.980240700275,-13051.161235709338,-18393.719898905743,-5356.439096503151,-187500.02235174447,-187500.02235174447,-187500.02235174447,-187500.02235174447
$SILENCE,26927.437117986337,-13059.610195113444,-18551.791435693674,-5340.412895728695,-187500.02235174447,-187500.02235174447,-187500.02235174447,-187500.02235174447
$SILENCE,27086.78270420822,-12922.12461496885,-18266.42671423277,-5268.350871604785,-187500.02235174447,-187500.02235174447,-187500.02235174447,-187500.02235174447
$SILENCE,27176.90493785202,-12883.925483694731,-18022.43507175864,-5270.273121627942,-187500.02235174447,-187500.02235174447,-187500.02235174447,-187500.02235174447
$SILENCE,26983.852920991532,-13046.087389717984,-18357.711238588243,-5407.73635002808,-187500.02235174447,-187500.02235174447,-187500.02235174447,-187500.02235174447
$SILENCE,26897.7987048386,-13095.21652403075,-18588.20242741137,-5404.897678482256,-187500.02235174447,-187500.02235174447,-187500.02235174447,-187500.02235174447
$SILENCE,27044.560258932146,-12956.345135729925,-18321.948447459752,-5288.467441614562,-187500.02235174447,-187500.02235174447,-187500.02235174447,-187500.02235174447
$SILENCE,27177.6648971635,-12867.11697186434,-18025.89959214921,-5242.467551525539,-187500.02235174447,-187500.02235174447,-187500.02235174447,-187500.02235174447
$SILENCE,27037.54181117318,-12999.416947295304,-18261.196406030227,-5355.612081958304,-187500.02235174447,-187500.02235174447,-187500.02235174447,-187500.02235174447
$SILENCE,26915.344824236017,-13065.354593438458,-18554.406589794944,-5397.789823745468,-187500.02235174447,-187500.02235174447,-187500.02235174447,-187500.02235174447
$SILENCE,27023.68372961089,-12949.438446693237,-18375.570282408033,-5305.834747056335,-187500.02235174447,-187500.02235174447,-187500.02235174447,-187500.02235174447
$SILENCE,27170.22176625988,-12864.904149163265,-18041.94814466812,-5241.774647447425,-187500.02235174447,-187500.02235174447,-187500.02235174447,-187500.02235174447
$SILENCE,27073.192843579396,-12976.081726083961,-18180.663070757757,-5348.303061521418,-187500.02235174447,-187500.02235174447,-187500.02235174447,-187500.02235174447
$SILENCE,26888.008640767177,-13081.984291313207,-18563.14612187697,-5431.719771828624,-187500.02235174447,-187500.02235174447,-187500.02235174447,-187500.02235174447
$SILENCE,26976.096865665542,-12976.327595272971,-18438.535146538634,-5325.414875199184,-187500.02235174447,-187500.02235174447,-187500.02235174447,-187500.02235174447
$SILENCE,27169.126530781574,-12859.897358405276,-18066.37860135777,-5229.771760674926,-187500.02235174447,-187500.02235174447,-187500.02235174447,-187500.02235174447
$SILENCE,27125.093594204616,-12928.18193771624,-18098.47570639559,-5290.568505593361,-187500.02235174447,-187500.02235174447,-187500.02235174447,-187500.02235174447
$SILENCE,26898.26809147216,-13075.569340654534,-18523.33766500207,-5418.711056555636,-187500.02235174447,-187500.02235174447,-187500.02235174447,-187500.02235174447
$SILENCE,26913.109649790487,-13019.980552194185,-18521.415414978914,-5370.25247457653,-187500.02235174447,-187500.02235174447,-187500.02235174447,-187500.02235174447
$SILENCE,27109.8497044861,-12857.081038603907,-18148.096579086374,-5258.85138021128,-187500.02235174447,-187500.02235174447,-187500.02235174447,-187500.02235174447
$SILENCE,27153.36855094058,-12897.940027468208,-18035.443787031625,-5258.650214511182,-187500.02235174447,-187500.02235174447,-187500.02235174447,-187500.02235174447
$SILENCE,26967.111464394507,-13047.361439151937,-18423.73829170922,-5392.939495198667,-187500.02235174447,-187500.02235174447,-187500.02235174447,-187500.02235174447
$SILENCE,26950.593525242035,-12997.181772849772,-18498.817801334597,-5376.198038601642,-187500.02235174447,-187500.02235174447,-187500.02235174447,-187500.02235174447
$SILENCE,27092.862378700065,-12894.36374835536,-18191.146038907296,-5264.260502369464,-187500.02235174447,-187500.02235174447,-187500.02235174447,-187500.02235174447
$SILENCE,27146.305399692705,-12906.277228150038,-18033.834461430844,-5296.71523531857,-187500.02235174447,-187500.02235174447,-187500.02235174447,-187500.02235174447
$SILENCE,26949.85591767501,-13037.929002991797,-18409.32141653555,-5430.423370650216,-187500.02235174447,-187500.02235174447,-187500.02235174447,-187500.02235174447
$SILENCE,26918.27290275966,-13009.654046255833,-18533.99944710725,-5379.148468869743,-187500.02235174447,-187500.02235174447,-187500.02235174447,-187500.02235174447
$SILENCE,27073.148140090485,-12904.131460682329,-18241.437463931736,-5266.808601237369,-187500.02235174447,-187500.02235174447,-187500.02235174447,-187500.02235174447
$SILENCE,27174.267432006294,-12870.223864343629,-17998.675167402645,-5243.741600959493,-187500.02235174447,-187500.02235174447,-187500.02235174447,-187500.02235174447
$SILENCE,27008.708060825833,-12979.210970307706,-18307.28570309707,-5359.031898859966,-187500.02235174447,-187500.02235174447,-187500.02235174447,-187500.02235174447
$SILENCE,26905.13007701994,-13028.6753807873,-18554.8312729396,-5402.327227869896,-187500.02235174447,-187500.02235174447,-187500.02235174447,-187500.02235174447
$SILENCE,27025.29305521167,-12936.429731420247,-18323.53542131608,-5312.6073256262935,-187500.02235174447,-187500.02235174447,-187500.02235174447,-187500.02235174447
$SILENCE,27149.054664260708,-12863.54069275149,-18033.99092364203,-5273.938807718612,-187500.02235174447,-187500.02235174447,-187500.02235174447,-187500.02235174447
$SILENCE,27032.512668670737,-13000.33336881797,-18243.22560348816,-5378.410861302717,-187500.02235174447,-187500.02235174447,-187500.02235174447,-187500.02235174447
$SILENCE,26912.41674571237,-13041.505282104647,-18535.876993641497,-5381.607160759826,-187500.02235174447,-187500.02235174447,-187500.02235174447,-187500.02235174447
$SILENCE,27020.82270632061,-12949.505501926602,-18361.57809037901,-5276.732775775526,-187500.02235174447,-187500.02235174447,-187500.02235174447,-187500.02235174447
$SILENCE,27163.940926067942,-12870.11210562135,-18039.1094731223,-5235.784379933403,-187500.02235174447,-187500.02235174447,-187500.02235174447,-187500.02235174447
$SILENCE,27083.675811728936,-12949.617260648878,-18156.657297212758,-5332.545081680427,-187500.02235174447,-187500.02235174447,-187500.02235174447,-187500.02235174447
$SILENCE,26913.534332935138,-13040.43239837079,-18532.56893546211,-5438.26883295403,-187500.02235174447,-187500.02235174447,-187500.02235174447,-187500.02235174447
$SILENCE,26979.67314477839,-12958.647365408822,-18432.41076855788,-5342.491607963038,-187500.02235174447,-187500.02235174447,-187500.02235174447,-187500.02235174447
$SILENCE,27139.108137978095,-12865.462942774648,-18088.23860743506,-5240.366487546741,-187500.02235174447,-187500.02235174447,-187500.02235174447,-187500.02235174447
$SILENCE,27121.830239514144,-12932.138196484828,-18091.144334214252,-5299.464499886572,-187500.02235174447,-187500.02235174447,-187500.02235174447,-187500.02235174447
$SILENCE,26929.292312776128,-13073.11064876445,-18488.98303377426,-5422.443797879672,-187500.02235174447,-187500.02235174447,-187500.02235174447,-187500.02235174447
$SILENCE,26967.58085102807,-12968.70565041371,-18461.825664261065,-5336.523692193472,-187500.02235174447,-187500.02235174447,-187500.02235174447,-187500.02235174447
$SILENCE,27136.001245498806,-12864.613576485346,-18112.66906412471,-5220.65224893716,-187500.02235174447,-187500.02235174447,-187500.02235174447,-187500.02235174447
$SILENCE,27173.775693628275,-12896.777736756532,-17996.663510401668,-5246.17794110512,-187500.02235174447,-187500.02235174447,-187500.02235174447,-187500.02235174447
$SILENCE,26972.252365619228,-13039.560680337034,-18409.477878746733,-5406.372893616306,-187500.02235174447,-187500.02235174447,-187500.02235174447,-187500.02235174447
$SILENCE,26941.250496059718,-13003.552020019535,-18516.788603876663,-5375.8851141792675,-187500.02235174447,-187500.02235174447,-187500.02235174447,-187500.02235174447
$SILENCE,27092.7953234667,-12886.942969196198,-18197.091602932407,-5247.340231816796,-187500.02235174447,-187500.02235174447,-187500.02235174447,-187500.02235174447
$SILENCE,27184.549234455735,-12876.616463257846,-17993.064879544363,-5225.0331908504,-187500.02235174447,-187500.02235174447,-187500.02235174447,-187500.02235174447
$SILENCE,27002.71779331181,-13025.479081330192,-18348.122340216916,-5369.268997820496,-187500.02235174447,-187500.02235174447,-187500.02235174447,-187500.02235174447
$SILENCE,26938.098900091518,-13028.38480810938,-18517.280342254682,-5370.3642332988065,-187500.02235174447,-187500.02235174447,-187500.02235174447,-187500.02235174447
$SILENCE,27065.101512086574,-12906.143117683307,-18259.6094321739,-5292.490755616517,-187500.02235174447,-187500.02235174447,-187500.02235174447,-187500.02235174447
$SILENCE,27176.726123896377,-12865.239425330094,-17997.93755983562,-5265.713365759059,-187500.02235174447,-187500.02235174447,-187500.02235174447,-187500.02235174447
$SILENCE,27028.891686068975,-13009.877563700387,-18269.9135863678,-5361.289425049952,-187500.02235174447,-187500.02235174447,-187500.02235174447,-187500.02235174447
$SILENCE,26895.98821353772,-13028.183642409283,-18552.70785721634,-5393.185364387675,-187500.02235174447,-187500.02235174447,-187500.02235174447,-187500.02235174447
$SILENCE,27017.022909763207,-12930.953554028698,-18319.892086969863,-5258.381993577718,-187500.02235174447,-187500.02235174447,-187500.02235174447,-187500.02235174447
$SILENCE,27185.33154551167,-12859.047992115975,-17981.50902766097,-5195.662998636127,-187500.02235174447,-187500.02235174447,-187500.02235174447,-187500.02235174447
$SILENCE,27076.210329080863,-12962.357754988403,-18170.113047374853,-5324.811378098891,-187500.02235174447,-187500.02235174447,-187500.02235174447,-187500.02235174447
$SILENCE,26919.748117893712,-13031.692866288766,-18521.191897534358,-5380.891904937256,-187500.02235174447,-187500.02235174447,-187500.02235174447,-187500.02235174447
$SILENCE,27018.72164234181,-12948.544376915024,-18356.8842240434,-5277.068051942355,-187500.02235174447,-187500.02235174447,-187500.02235174447,-187500.02235174447
$SILENCE,27178.67072566399,-12861.797256683978,-18007.817030884868,-5214.259650022942,-187500.02235174447,-187500.02235174447,-187500.02235174447,-187500.02235174447
$SILENCE,27106.51929456226,-12970.09145856994,-18117.318226971416,-5301.565563865372,-187500.02235174447,-187500.02235174447,-187500.02235174447,-187500.02235174447
$SILENCE,26909.086335788532,-13065.801628327565,-18511.334778229568,-5412.184347174686,-187500.02235174447,-187500.02235174447,-187500.02235174447,-187500.02235174447
$SILENCE,26975.24749937624,-12964.458818967203,-18416.295160805603,-5295.105909717788,-187500.02235174447,-187500.02235174447,-187500.02235174447,-187500.02235174447
$SILENCE,27159.358818454602,-12866.714640464144,-18047.983115671053,-5181.156716484633,-187500.02235174447,-187500.02235174447,-187500.02235174447,-187500.02235174447
$SILENCE,27138.057605988695,-12918.861260278376,-18052.364057584295,-5266.205104137076,-187500.02235174447,-187500.02235174447,-187500.02235174447,-187500.02235174447
$SILENCE,26936.9589611243,-13062.068887003528,-18450.761550755687,-5407.982219217089,-187500.02235174447,-187500.02235174447,-187500.02235174447,-187500.02235174447
$SILENCE,26959.400112557425,-13022.618058039912,-18446.581774542545,-5332.76859912498,-187500.02235174447,-187500.02235174447,-187500.02235174447,-187500.02235174447
$SILENCE,27129.76510879578,-12895.190762900205,-18119.285180483483,-5183.280132207887,-187500.02235174447,-187500.02235174447,-187500.02235174447,-187500.02235174447
$SILENCE,27155.89429806403,-12891.994463443098,-18004.441917472115,-5224.474397239018,-187500.02235174447,-187500.02235174447,-187500.02235174447,-187500.02235174447
$SILENCE,26939.976446625766,-13047.875529274408,-18406.281579289625,-5370.990082143555,-187500.02235174447,-187500.02235174447,-187500.02235174447,-187500.02235174447
$SILENCE,26920.597484183014,-13005.898953187341,-18502.528190914178,-5334.847311359324,-187500.02235174447,-187500.02235174447,-187500.02235174447,-187500.02235174447
$SILENCE,27086.715648974856,-12861.6854979617,-18177.310309089462,-5231.202272320065,-187500.02235174447,-187500.02235174447,-187500.02235174447,-187500.02235174447
$SILENCE,27177.217862274392,-12846.173387309718,-17966.08632398681,-5212.31504825533,-187500.02235174447,-187500.02235174447,-187500.02235174447,-187500.02235174447
$SILENCE,27009.423316648405,-13021.679284772788,-18295.43927853576,-5316.854157072801,-187500.02235174447,-187500.02235174447,-187500.02235174447,-187500.02235174447
$SILENCE,26926.565399952582,-13036.409084368835,-18502.550542658635,-5335.137884037243,-187500.02235174447,-187500.02235174447,-187500.02235174447,-187500.02235174447
$SILENCE,27049.991732834787,-12908.199478173194,-18245.997219800618,-5241.126446858221,-187500.02235174447,-187500.02235174447,-187500.02235174447,-187500.02235174447
$SILENCE,27154.46378641889,-12845.59224195388,-17984.928844562633,-5232.252804309464,-187500.02235174447,-187500.02235174447,-187500.02235174447,-187500.02235174447
$SILENCE,27021.515610398725,-12979.032156352063,-18251.741618125634,-5360.3283000383735,-187500.02235174447,-187500.02235174447,-187500.02235174447,-187500.02235174447
$SILENCE,26909.66748114437,-13043.002848983151,-18520.253124267238,-5372.8899804222565,-187500.02235174447,-187500.02235174447,-187500.02235174447,-187500.02235174447
$SILENCE,27032.91500007093,-12952.254766494605,-18298.85909543742,-5259.387822078207,-187500.02235174447,-187500.02235174447,-187500.02235174447,-187500.02235174447
$SILENCE,27183.05166757723,-12857.237500815094,-17975.451704913583,-5182.989559529968,-187500.02235174447,-187500.02235174447,-187500.02235174447,-187500.02235174447
$SILENCE,27073.17049183494,-12948.186749003738,-18148.58831746439,-5289.80854628188,-187500.02235174447,-187500.02235174447,-187500.02235174447,-187500.02235174447
$SILENCE,26908.080507288043,-13029.77061626561,-18495.286225710657,-5358.24958780403,-187500.02235174447,-187500.02235174447,-187500.02235174447,-187500.02235174447
$SILENCE,26996.660470564424,-12938.46374016568,-18355.34195367598,-5280.465517099562,-187500.02235174447,-187500.02235174447,-187500.02235174447,-187500.02235174447
$SILENCE,27155.447263174923,-12833.097616803363,-18008.264065773972,-5207.375312730707,-187500.02235174447,-187500.02235174447,-187500.02235174447,-187500.02235174447
$SILENCE,27090.828369954634,-12912.021626475052,-18088.328014412884,-5267.747374504492,-187500.02235174447,-187500.02235174447,-187500.02235174447,-187500.02235174447
$SILENCE,26922.98912083973,-13057.218558456727,-18454.673106035367,-5341.776352140469,-187500.02235174447,-187500.02235174447,-187500.02235174447,-187500.02235174447
$SILENCE,26986.333964626072,-12990.47624951318,-18397.5420472076,-5297.408139396684,-187500.02235174447,-187500.02235174447,-187500.02235174447,-187500.02235174447
$SILENCE,27155.737835852844,-12864.345355551883,-18054.018086673987,-5213.186766289087,-187500.02235174447,-187500.02235174447,-187500.02235174447,-187500.02235174447
$SILENCE,27135.531858865244,-12909.406472373781,-18026.212516571584,-5269.803734994381,-187500.02235174447,-187500.02235174447,-187500.02235174447,-187500.02235174447
$SILENCE,26921.536257450138,-13045.975630995707,-18428.141585366917,-5379.483745036572,-187500.02235174447,-187500.02235174447,-187500.02235174447,-187500.02235174447
$SILENCE,26944.7597199392,-12960.144932287329,-18448.32521061006,-5314.462520416084,-187500.02235174447,-187500.02235174447,-187500.02235174447,-187500.02235174447
$SILENCE,27106.02755618424,-12864.121838107329,-18115.39597694826,-5217.277135524409,-187500.02235174447,-187500.02235174447,-187500.02235174447,-187500.02235174447
$SILENCE,27145.99247527033,-12920.917620768265,-17992.03669929942,-5248.949557417579,-187500.02235174447,-187500.02235174447,-187500.02235174447,-187500.02235174447
$SILENCE,26962.082321892063,-13032.184604666783,-18373.178645751315,-5367.771430941991,-187500.02235174447,-187500.02235174447,-187500.02235174447,-187500.02235174447
$SILENCE,26957.120234622984,-12976.729926673166,-18464.731391040255,-5322.889128075734,-187500.02235174447,-187500.02235174447,-187500.02235174447,-187500.02235174447
$SILENCE,27105.60287303959,-12878.046974902985,-18162.804026937967,-5233.482150254506,-187500.02235174447,-187500.02235174447,-187500.02235174447,-187500.02235174447
$SILENCE,27187.633775190567,-12867.407544542259,-17942.818158008835,-5209.677542409604,-187500.02235174447,-187500.02235174447,-187500.02235174447,-187500.02235174447
$SILENCE,26999.409735132427,-12997.919380416797,-18288.510237754614,-5346.58197719836,-187500.02235174447,-187500.02235174447,-187500.02235174447,-187500.02235174447
$SILENCE,26912.796725368113,-13018.61709578241,-18511.62535090749,-5366.095050107843,-187500.02235174447,-187500.02235174447,-187500.02235174447,-187500.02235174447
$SILENCE,27049.991732834787,-12918.615391089368,-18246.22073724517,-5260.192484878598,-187500.02235174447,-187500.02235174447,-187500.02235174447,-187500.02235174447
$SILENCE,27180.28005126477,-12854.39882926927,-17942.415826608638,-5202.659094650638,-187500.02235174447,-187500.02235174447,-187500.02235174447,-187500.02235174447
$SILENCE,27040.246372252273,-12983.591912220945,-18203.908884991277,-5303.867793544268,-187500.02235174447,-187500.02235174447,-187500.02235174447,-187500.02235174447
$SILENCE,26902.023184540652,-13050.624793842411,-18529.216173793815,-5370.3642332988065,-187500.02235174447,-187500.02235174447,-187500.02235174447,-187500.02235174447
$SILENCE,27017.514648141227,-12936.250917464606,-18316.38286309038,-5283.058319456377,-187500.02235174447,-187500.02235174447,-187500.02235174447,-187500.02235174447
$SILENCE,27183.208129788418,-12839.02082908402,-17971.83072231182,-5226.441350751084,-187500.02235174447,-187500.02235174447,-187500.02235174447,-187500.02235174447
$SILENCE,27092.72826823333,-12956.94863283022,-18126.34833173136,-5313.09906400431,-187500.02235174447,-187500.02235174447,-187500.02235174447,-187500.02235174447
$SILENCE,26917.04355681462,-13050.244814186672,-18485.69732733933,-5362.429364017173,-187500.02235174447,-187500.02235174447,-187500.02235174447,-187500.02235174447
$SILENCE,26995.274662408196,-12952.187711261238,-18359.812302567043,-5274.587008307816,-187500.02235174447,-187500.02235174447,-187500.02235174447,-187500.02235174447
$SILENCE,27150.865155561587,-12858.109218848851,-18021.295132791416,-5207.218850519521,-187500.02235174447,-187500.02235174447,-187500.02235174447,-187500.02235174447
$SILENCE,27115.08001268864,-12924.024513247552,-18060.634203032758,-5260.617168023249,-187500.02235174447,-187500.02235174447,-187500.02235174447,-187500.02235174447
$SILENCE,26925.693681918823,-13045.930927506797,-18466.65364106341,-5356.573206969882,-187500.02235174447,-187500.02235174447,-187500.02235174447,-187500.02235174447
$SILENCE,26959.243650346238,-12986.184714577761,-18430.17559411235,-5295.396482395707,-187500.02235174447,-187500.02235174447,-187500.02235174447,-187500.02235174447
$SILENCE,27133.743719308823,-12864.010079385052,-18067.518540324993,-5221.546318715372,-187500.02235174447,-187500.02235174447,-187500.02235174447,-187500.02235174447
$SILENCE,27150.216954972384,-12891.055690175974,-18006.498277962004,-5268.552037304883,-187500.02235174447,-187500.02235174447,-187500.02235174447,-187500.02235174447
$SILENCE,26961.56823176959,-13035.112683190428,-18402.68294843232,-5365.133925096265,-187500.02235174447,-187500.02235174447,-187500.02235174447,-187500.02235174447
$SILENCE,26946.860783918,-13013.856174213432,-18463.434989861846,-5312.71908434857,-187500.02235174447,-187500.02235174447,-187500.02235174447,-187500.02235174447
$SILENCE,27107.189846895915,-12898.185896657216,-18127.845898609867,-5219.1546820586545,-187500.02235174447,-187500.02235174447,-187500.02235174447,-187500.02235174447
$SILENCE,27167.226632502872,-12876.191780113195,-17966.443951898094,-5240.254728824464,-187500.02235174447,-187500.02235174447,-187500.02235174447,-187500.02235174447
$SILENCE,26963.132853881463,-13023.601534795946,-18356.750113576665,-5369.067832120399,-187500.02235174447,-187500.02235174447,-187500.02235174447,-187500.02235174447
$SILENCE,26901.486742673726,-13017.588915537468,-18503.936350814864,-5337.842445116335,-187500.02235174447,-187500.02235174447,-187500.02235174447,-187500.02235174447
$SILENCE,27052.62923868051,-12887.390004085304,-18211.530829850537,-5238.086609612299,-187500.02235174447,-187500.02235174447,-187500.02235174447,-187500.02235174447
$SILENCE,27153.56971664068,-12868.458076531659,-17977.66452761466,-5220.942821615079,-187500.02235174447,-187500.02235174447,-187500.02235174447,-187500.02235174447
$SILENCE,27001.466095622316,-13010.414005567314,-18279.301319039027,-5339.205901528108,-187500.02235174447,-187500.02235174447,-187500.02235174447,-187500.02235174447
$SILENCE,26921.51390570568,-13041.952316993753,-18507.669092138898,-5348.079544076865,-187500.02235174447,-187500.02235174447,-187500.02235174447,-187500.02235174447
$SILENCE,27037.653569895458,-12936.541490142525,-18270.673545679278,-5241.1711503471315,-187500.02235174447,-187500.02235174447,-187500.02235174447,-187500.02235174447
$SILENCE,27159.80585334371,-12864.859445674354,-17983.7442021065,-5202.681446395093,-187500.02235174447,-187500.02235174447,-187500.02235174447,-187500.02235174447
$SILENCE,27029.629293636,-12990.14097334635,-18213.251914173594,-5311.713255848081,-187500.02235174447,-187500.02235174447,-187500.02235174447,-187500.02235174447
$SILENCE,26888.187454722818,-13055.072790989017,-18522.063615568117,-5338.088314305343,-187500.02235174447,-187500.02235174447,-187500.02235174447,-187500.02235174447
$SILENCE,26989.99965071674,-12945.7057053692,-18341.997962236164,-5263.411136080163,-187500.02235174447,-187500.02235174447,-187500.02235174447,-187500.02235174447
$SILENCE,27149.90403055001,-12863.719506707133,-18006.721795406556,-5210.169280787621,-187500.02235174447,-187500.02235174447,-187500.02235174447,-187500.02235174447
$SILENCE,27077.59613723709,-12954.668754895778,-18129.54463118847,-5267.009766937467,-187500.02235174447,-187500.02235174447,-187500.02235174447,-187500.02235174447
$SILENCE,26908.41578345487,-13048.300212419059,-18504.80806884862,-5362.317605294897,-187500.02235174447,-187500.02235174447,-187500.02235174447,-187500.02235174447
$SILENCE,26942.748062938223,-12961.128409043362,-18431.673160990853,-5321.838596086335,-187500.02235174447,-187500.02235174447,-187500.02235174447,-187500.02235174447
$SILENCE,27104.060602672173,-12879.343376081393,-18083.72355505509,-5233.280984554409,-187500.02235174447,-187500.02235174447,-187500.02235174447,-187500.02235174447
$SILENCE,27090.850721699087,-12949.572557159969,-18086.182246945173,-5273.268255384953,-187500.02235174447,-187500.02235174447,-187500.02235174447,-187500.02235174447
$SILENCE,26922.60914118399,-13061.86772130343,-18456.662411291887,-5349.733573166558,-187500.02235174447,-187500.02235174447,-187500.02235174447,-187500.02235174447
$SILENCE,26945.98906588424,-12984.888313399353,-18445.799463486608,-5294.9494475066,-187500.02235174447,-187500.02235174447,-187500.02235174447,-187500.02235174447
$SILENCE,27119.66212030198,-12867.139323608795,-18097.00049126154,-5200.781548116392,-187500.02235174447,-187500.02235174447,-187500.02235174447,-187500.02235174447
$SILENCE,27137.36470191058,-12898.655283290778,-18018.76938566797,-5236.9466706450785,-187500.02235174447,-187500.02235174447,-187500.02235174447,-187500.02235174447
$SILENCE,26927.99591159772,-13052.6811543323,-18424.006512642685,-5364.373965784785,-187500.02235174447,-187500.02235174447,-187500.02235174447,-187500.02235174447
$SILENCE,26884.789989565612,-13033.905688989842,-18539.14034833197,-5364.642186718248,-187500.02235174447,-187500.02235174447,-187500.02235174447,-187500.02235174447
$SILENCE,27047.220116522327,-12894.162582655263,-18206.79226002601,-5247.9213771726345,-187500.02235174447,-187500.02235174447,-187500.02235174447,-187500.02235174447
$SILENCE,27143.33261768015,-12880.21509411515,-18010.163964052674,-5226.351943773263,-187500.02235174447,-187500.02235174447,-187500.02235174447,-187500.02235174447
$SILENCE,26939.32824603656,-13037.660782058334,-18390.30008200408,-5356.752020925524,-187500.02235174447,-187500.02235174447,-187500.02235174447,-187500.02235174447
$SILENCE,26883.06890524255,-13027.334276119982,-18547.119921102516,-5352.8181139013905,-187500.02235174447,-187500.02235174447,-187500.02235174447,-187500.02235174447
$SILENCE,27049.20942177885,-12912.6474753198,-18234.150795239308,-5247.653156239171,-187500.02235174447,-187500.02235174447,-187500.02235174447,-187500.02235174447
$SILENCE,27143.08674849114,-12879.231617359117,-17996.305882490386,-5197.048806792356,-187500.02235174447,-187500.02235174447,-187500.02235174447,-187500.02235174447
$SILENCE,26981.751857012732,-13002.18856360776,-18305.9222466853,-5297.162270207676,-187500.02235174447,-187500.02235174447,-187500.02235174447,-187500.02235174447
$SILENCE,26869.300230658082,-13035.000924468151,-18568.801113224163,-5365.0221663739885,-187500.02235174447,-187500.02235174447,-187500.02235174447,-187500.02235174447
$SILENCE,26981.640098290456,-12935.55801338649,-18334.66659005482,-5278.722081032048,-187500.02235174447,-187500.02235174447,-187500.02235174447,-187500.02235174447
$SILENCE,27135.241286187327,-12861.171407839229,-18011.66153093118,-5205.430710963096,-187500.02235174447,-187500.02235174447,-187500.02235174447,-187500.02235174447
$SILENCE,27015.86061905153,-13006.725967732189,-18230.64157135982,-5293.340121905819,-187500.02235174447,-187500.02235174447,-187500.02235174447,-187500.02235174447
$SILENCE,26867.668553312848,-13076.597520899479,-18566.163607378436,-5346.20199754262,-187500.02235174447,-187500.02235174447,-187500.02235174447,-187500.02235174447
$SILENCE,26968.787845228657,-12944.029324535051,-18400.559532709067,-5263.545246546894,-187500.02235174447,-187500.02235174447,-187500.02235174447,-187500.02235174447
$SILENCE,27123.03723371473,-12852.700096690667,-18059.29309836544,-5190.656207878138,-187500.02235174447,-187500.02235174447,-187500.02235174447,-187500.02235174447
$SILENCE,27032.95970355984,-12973.80184814952,-18173.711678232157,-5294.457709128584,-187500.02235174447,-187500.02235174447,-187500.02235174447,-187500.02235174447
$SILENCE,26877.36921040645,-13079.212675000748,-18527.919772615405,-5367.771430941991,-187500.02235174447,-187500.02235174447,-187500.02235174447,-187500.02235174447
$SILENCE,26950.928801408863,-12987.503467500625,-18442.245536118215,-5252.972871419534,-187500.02235174447,-187500.02235174447,-187500.02235174447,-187500.02235174447
$SILENCE,27110.542608564214,-12884.774849984033,-18116.44650893766,-5192.354940456741,-187500.02235174447,-187500.02235174447,-187500.02235174447,-187500.02235174447
$SILENCE,27074.958631391364,-12958.46855145318,-18132.271544012016,-5271.077784428333,-187500.02235174447,-187500.02235174447,-187500.02235174447,-187500.02235174447
$SILENCE,26885.41583841036,-13074.831733087509,-18517.481507954777,-5348.9959655995335,-187500.02235174447,-187500.02235174447,-187500.02235174447,-187500.02235174447
$SILENCE,26924.889019118433,-13003.820240952999,-18491.95581578682,-5279.817316510358,-187500.02235174447,-187500.02235174447,-187500.02235174447,-187500.02235174447
$SILENCE,27085.016916396253,-12900.108146680373,-18159.473617014126,-5200.513327182928,-187500.02235174447,-187500.02235174447,-187500.02235174447,-187500.02235174447
$SILENCE,27118.07514644565,-12925.611487103879,-18058.779008242967,-5242.065220125344,-187500.02235174447,-187500.02235174447,-187500.02235174447,-187500.02235174447
$SILENCE,26919.52460044916,-13066.181607983304,-18462.630327061455,-5354.807419157913,-187500.02235174447,-187500.02235174447,-187500.02235174447,-187500.02235174447
$SILENCE,26900.36915545096,-13045.260375173137,-18547.544604247167,-5299.643313842215,-187500.02235174447,-187500.02235174447,-187500.02235174447,-187500.02235174447
$SILENCE,27062.620468452034,-12921.789338802022,-18224.830117801444,-5195.417129447118,-187500.02235174447,-187500.02235174447,-187500.02235174447,-187500.02235174447
$SILENCE,27151.13337649505,-12902.566838570458,-18022.85975490329,-5191.215001489521,-187500.02235174447,-187500.02235174447,-187500.02235174447,-187500.02235174447
$SILENCE,26991.363107128516,-13041.728799549199,-18361.44397991228,-5316.965915795078,-187500.02235174447,-187500.02235174447,-187500.02235174447,-187500.02235174447
$SILENCE,26915.52363819166,-13042.779331538599,-18549.645668225967,-5303.1525377216985,-187500.02235174447,-187500.02235174447,-187500.02235174447,-187500.02235174447
talvez,27053.277439269717,-12937.100283753907,-18274.450990492223,-5216.27130702392,-187500.02235174447,-187500.02235174447,-187500.02235174447,-187500.02235174447
talvez,27140.67276008997,-12911.239315419116,-18036.00258064301,-5201.452100450051,-187500.02235174447,-187500.02235174447,-187500.02235174447,-187500.02235174447
talvez,26986.57983381508,-13037.973706480707,-18322.52959281559,-5313.993133782522,-187500.02235174447,-187500.02235174447,-187500.02235174447,-187500.02235174447
talvez,26892.858969313977,-13077.82686684452,-18573.606738282055,-5322.419741442173,-187500.02235174447,-187500.02235174447,-187500.02235174447,-187500.02235174447
talvez,27006.741107313766,-12984.441278510247,-18361.309869445548,-5234.2421095659865,-187500.02235174447,-187500.02235174447,-187500.02235174447,-187500.02235174447
talvez,27162.488062678345,-12899.348187368892,-18042.596345257323,-5195.014798046923,-187500.02235174447,-187500.02235174447,-187500.02235174447,-187500.02235174447
talvez,27054.35032300357,-12988.352833789926,-18225.925353279752,-5286.656950313682,-187500.02235174447,-187500.02235174447,-187500.02235174447,-187500.02235174447
talvez,26910.785068367135,-13077.513942422145,-18558.51931077472,-5331.449846202117,-187500.02235174447,-187500.02235174447,-187500.02235174447,-187500.02235174447
talvez,27007.031679991687,-13000.556886262524,-18408.941436879806,-5247.429638794618,-187500.02235174447,-187500.02235174447,-187500.02235174447,-187500.02235174447
talvez,27145.61249561459,-12905.427861860737,-18077.35330788533,-5186.901114809646,-187500.02235174447,-187500.02235174447,-187500.02235174447,-187500.02235174447
talvez,27079.764256449256,-13002.90381943033,-18175.34335557739,-5281.76191827797,-187500.02235174447,-187500.02235174447,-187500.02235174447,-187500.02235174447
talvez,26911.65678640089,-13117.098881852495,-18558.92164217492,-5349.845331888835,-187500.02235174447,-187500.02235174447,-187500.02235174447,-187500.02235174447
talvez,27001.756668300233,-13004.446089797746,-18451.320344367068,-5259.968967434045,-187500.02235174447,-187500.02235174447,-187500.02235174447,-187500.02235174447
talvez,27158.554155654212,-12898.767042013054,-18097.91691278421,-5186.297617709353,-187500.02235174447,-187500.02235174447,-187500.02235174447,-187500.02235174447
talvez,27146.55126888171,-12958.334440986448,-18077.465066607605,-5253.37520281973,-187500.02235174447,-187500.02235174447,-187500.02235174447,-187500.02235174447
talvez,26951.15231885342,-13096.35646299797,-18490.07826925257,-5360.395355271739,-187500.02235174447,-187500.02235174447,-187500.02235174447,-187500.02235174447
talvez,26959.75774046871,-13046.86970077392,-18523.00238883524,-5302.52668887695,-187500.02235174447,-187500.02235174447,-187500.02235174447,-187500.02235174447
talvez,27126.680568060943,-12921.498766124103,-18184.954605693176,-5214.483167467495,-187500.02235174447,-187500.02235174447,-187500.02235174447,-187500.02235174447
talvez,27171.317001738193,-12944.029324535051,-18054.08514190735,-5227.89421414068,-187500.02235174447,-187500.02235174447,-187500.02235174447,-187500.02235174447
talvez,26982.19889190184,-13099.105727565971,-18440.7032657508,-5344.43620973065,-187500.02235174447,-187500.02235174447,-187500.02235174447,-187500.02235174447
talvez,26957.679028234368,-13070.651956874366,-18541.19670882186,-5325.146654265721,-187500.02235174447,-187500.02235174447,-187500.02235174447,-187500.02235174447
talvez,27082.848797184088,-12956.591004918935,-18252.70274313721,-5236.477284011517,-187500.02235174447,-187500.02235174447,-187500.02235174447,-187500.02235174447
talvez,27139.5551728672,-12952.366525216881,-18072.99471771654,-5249.351888817774,-187500.02235174447,-187500.02235174447,-187500.02235174447,-187500.02235174447
talvez,26982.556519813126,-13096.490573464702,-18410.662521202867,-5375.2369135900635,-187500.02235174447,-187500.02235174447,-187500.02235174447,-187500.02235174447
talvez,26942.971580382775,-13088.533352438611,-18577.898273217474,-5330.1534450237095,-187500.02235174447,-187500.02235174447,-187500.02235174447,-187500.02235174447
talvez,27075.472721513837,-12980.149743574828,-18300.37901406038,-5225.882557139702,-187500.02235174447,-187500.02235174447,-187500.02235174447,-187500.02235174447
talvez,27189.80189440273,-12938.88842331033,-18031.219307329575,-5212.739731399981,-187500.02235174447,-187500.02235174447,-187500.02235174447,-187500.02235174447
talvez,27071.471759256336,-13065.91338704984,-18287.37029878739,-5332.455674702606,-187500.02235174447,-187500.02235174447,-187500.02235174447,-187500.02235174447
talvez,26942.32337979357,-13109.87926839343,-18577.071258672626,-5360.708279694114,-187500.02235174447,-187500.02235174447,-187500.02235174447,-187500.02235174447
talvez,27055.289096270695,-12989.984511135162,-18368.753000349167,-5260.840685467802,-187500.02235174447,-187500.02235174447,-187500.02235174447,-187500.02235174447
talvez,27194.33929852716,-12919.285943423027,-18051.134711639254,-5207.576478430806,-187500.02235174447,-187500.02235174447,-187500.02235174447,-187500.02235174447
talvez,27085.642765241002,-13037.191395424772,-18231.89326904932,-5310.260392458486,-187500.02235174447,-187500.02235174447,-187500.02235174447,-187500.02235174447
talvez,26917.334129492538,-13119.490518509212,-18598.908913005464,-5383.3953003162505,-187500.02235174447,-187500.02235174447,-187500.02235174447,-187500.02235174447
talvez,27018.475773152804,-13026.663723786321,-18451.633268789443,-5296.312903918374,-187500.02235174447,-187500.02235174447,-187500.02235174447,-187500.02235174447
talvez,27188.080810079675,-12946.80094084751,-18094.25122669354,-5201.161527772132,-187500.02235174447,-187500.02235174447,-187500.02235174447,-187500.02235174447
talvez,27131.59795184111,-13026.082578430483,-18166.514416517548,-5284.37707237924,-187500.02235174447,-187500.02235174447,-187500.02235174447,-187500.02235174447
talvez,26931.549838966115,-13144.010382176684,-18568.555244035157,-5385.630474761781,-187500.02235174447,-187500.02235174447,-187500.02235174447,-187500.02235174447
talvez,26978.086170922063,-13063.946433537774,-18515.782775376174,-5323.157349009198,-187500.02235174447,-187500.02235174447,-187500.02235174447,-187500.02235174447
talvez,27158.867080076587,-12935.692123853223,-18164.368649049837,-5243.965118404045,-187500.02235174447,-187500.02235174447,-187500.02235174447,-187500.02235174447
talvez,27150.239306716838,-12966.939862601741,-18138.574735948412,-5292.602514338793,-187500.02235174447,-187500.02235174447,-187500.02235174447,-187500.02235174447
talvez,26976.923880210386,-13130.107597125483,-18500.203609490825,-5383.171782871697,-187500.02235174447,-187500.02235174447,-187500.02235174447,-187500.02235174447
talvez,26991.519569339704,-13093.227218774227,-18542.515461744722,-5331.203977013109,-187500.02235174447,-187500.02235174447,-187500.02235174447,-187500.02235174447
talvez,27166.600783658123,-12947.247975736616,-18175.209245110662,-5222.440388493585,-187500.02235174447,-187500.02235174447,-187500.02235174447,-187500.02235174447
talvez,27212.086583624674,-12972.572502204479,-18044.160967369196,-5238.8242171793245,-187500.02235174447,-187500.02235174447,-187500.02235174447,-187500.02235174447
talvez,27012.21728470532,-13115.243687062704,-18446.64882977591,-5362.608177972816,-187500.02235174447,-187500.02235174447,-187500.02235174447,-187500.02235174447
talvez,26965.77035972719,-13098.144602554394,-18588.515351833743,-5360.641224460748,-187500.02235174447,-187500.02235174447,-187500.02235174447,-187500.02235174447
talvez,27105.759335250776,-12988.978682634674,-18289.136086599363,-5263.858170969269,-187500.02235174447,-187500.02235174447,-187500.02235174447,-187500.02235174447
talvez,27206.409240533027,-12963.162417788795,-18056.56618554189,-5243.0486968813775,-187500.02235174447,-187500.02235174447,-187500.02235174447,-187500.02235174447
talvez,27047.30952350015,-13089.5391809391,-18382.633433655912,-5373.851105433835,-187500.02235174447,-187500.02235174447,-187500.02235174447,-187500.02235174447
talvez,26960.20477535782,-13129.92878316984,-18604.608607841565,-5386.368082328807,-187500.02235174447,-187500.02235174447,-187500.02235174447,-187500.02235174447
talvez,27102.138352649017,-13027.267220886615,-18342.15442444735,-5281.158421177676,-187500.02235174447,-187500.02235174447,-187500.02235174447,-187500.02235174447
talvez,27235.600618791657,-12947.22562399216,-18040.115301622787,-5235.8290834223135,-187500.02235174447,-187500.02235174447,-187500.02235174447,-187500.02235174447
talvez,27103.054774171684,-13053.508168877146,-18288.33142379897,-5346.514921964994,-187500.02235174447,-187500.02235174447,-187500.02235174447,-187500.02235174447
talvez,26945.98906588424,-13126.196041845804,-18613.459898645866,-5399.197983646153,-187500.02235174447,-187500.02235174447,-187500.02235174447,-187500.02235174447
talvez,27055.17733754842,-13033.659819800832,-18418.64209397341,-5299.956238264589,-187500.02235174447,-187500.02235174447,-187500.02235174447,-187500.02235174447
talvez,27200.754249185833,-12935.423902919758,-18089.736174313566,-5237.371353789729,-187500.02235174447,-187500.02235174447,-187500.02235174447,-187500.02235174447
talvez,27121.584370325134,-13042.801683283054,-18225.970056768663,-5327.068904288877,-187500.02235174447,-187500.02235174447,-187500.02235174447,-187500.02235174447
talvez,26973.258194119717,-13154.202777648305,-18576.981851694807,-5393.230067876586,-187500.02235174447,-187500.02235174447,-187500.02235174447,-187500.02235174447
talvez,27045.633142666,-13053.284651432592,-18464.910204995896,-5317.85998557329,-187500.02235174447,-187500.02235174447,-187500.02235174447,-187500.02235174447
talvez,27193.601690960135,-12951.874786838865,-18127.756491632044,-5238.220720079032,-187500.02235174447,-187500.02235174447,-187500.02235174447,-187500.02235174447
talvez,27161.504585922314,-13013.833822468976,-18163.40752403826,-5304.2701249444635,-187500.02235174447,-187500.02235174447,-187500.02235174447,-187500.02235174447
talvez,26979.024944189186,-13132.454530293291,-18552.90902291644,-5397.946285956656,-187500.02235174447,-187500.02235174447,-187500.02235174447,-187500.02235174447
talvez,26996.52636009769,-13066.025145772117,-18527.405682492936,-5334.109703792299,-187500.02235174447,-187500.02235174447,-187500.02235174447,-187500.02235174447
talvez,27145.6571991035,-12957.239205508138,-18191.45896332967,-5247.139066116699,-187500.02235174447,-187500.02235174447,-187500.02235174447,-187500.02235174447
talvez,27169.8641383486,-12998.85815368392,-18121.833279351387,-5282.767746778459,-187500.02235174447,-187500.02235174447,-187500.02235174447,-187500.02235174447
talvez,27001.331985155583,-13131.515757026167,-18498.191952489848,-5387.418614318206,-187500.02235174447,-187500.02235174447,-187500.02235174447,-187500.02235174447
talvez,26997.263967664716,-13083.839486102997,-18548.215156580827,-5337.685982905148,-187500.02235174447,-187500.02235174447,-187500.02235174447,-187500.02235174447
talvez,27137.074129232664,-12968.124505057873,-18238.487033663634,-5247.116714372243,-187500.02235174447,-187500.02235174447,-187500.02235174447,-187500.02235174447
talvez,27200.933063141474,-12975.23235979466,-18066.400953102228,-5257.398516821685,-187500.02235174447,-187500.02235174447,-187500.02235174447,-187500.02235174447
talvez,27035.127822772007,-13129.951134914296,-18420.050253874095,-5378.20969560262,-187500.02235174447,-187500.02235174447,-187500.02235174447,-187500.02235174447
talvez,26972.34177259705,-13114.506079495679,-18583.15093316447,-5364.172800084687,-187500.02235174447,-187500.02235174447,-187500.02235174447,-187500.02235174447
talvez,27105.51346606177,-12983.234284309661,-18296.489810525156,-5254.47043829804,-187500.02235174447,-187500.02235174447,-187500.02235174447,-187500.02235174447
talvez,27197.937929384465,-12967.923339357774,-18085.757563800522,-5236.432580522607,-187500.02235174447,-187500.02235174447,-187500.02235174447,-187500.02235174447
talvez,27049.321180501127,-13101.49736422269,-18375.570282408033,-5341.9551660961115,-187500.02235174447,-187500.02235174447,-187500.02235174447,-187500.02235174447
talvez,26958.14841486793,-13135.382608816935,-18595.466744359346,-5364.7315936960695,-187500.02235174447,-187500.02235174447,-187500.02235174447,-187500.02235174447
talvez,27081.6418029835,-13023.445072584758,-18368.417724182334,-5267.412098337662,-187500.02235174447,-187500.02235174447,-187500.02235174447,-187500.02235174447
talvez,27214.61233074812,-12959.742600887133,-18045.144444125228,-5205.475414452007,-187500.02235174447,-187500.02235174447,-187500.02235174447,-187500.02235174447
talvez,27090.403686809983,-13077.804515100064,-18331.135014430885,-5332.925061336167,-187500.02235174447,-187500.02235174447,-187500.02235174447,-187500.02235174447
talvez,26956.159109611406,-13141.46228330878,-18630.938962809916,-5369.581922242871,-187500.02235174447,-187500.02235174447,-187500.02235174447,-187500.02235174447
talvez,27077.26086107026,-13036.118511690916,-18410.72957643623,-5254.403383064674,-187500.02235174447,-187500.02235174447,-187500.02235174447,-187500.02235174447
talvez,27244.38485436259,-12943.492882668124,-18047.37961857076,-5184.21890547501,-187500.02235174447,-187500.02235174447,-187500.02235174447,-187500.02235174447
talvez,27165.438492946447,-13038.219575669717,-18180.841884713398,-5287.886296258724,-187500.02235174447,-187500.02235174447,-187500.02235174447,-187500.02235174447
talvez,27013.089002739074,-13137.394265817913,-18590.996395468283,-5360.551817482927,-187500.02235174447,-187500.02235174447,-187500.02235174447,-187500.02235174447
talvez,27081.731209961323,-13035.58206982399,-18467.972393986274,-5257.532627288417,-187500.02235174447,-187500.02235174447,-187500.02235174447,-187500.02235174447
talvez,27240.24978163836,-12927.600792360401,-18110.076261767896,-5167.92448376709,-187500.02235174447,-187500.02235174447,-187500.02235174447,-187500.02235174447
talvez,27232.739595501378,-13002.792060708054,-18111.23855247957,-5220.786359403892,-187500.02235174447,-187500.02235174447,-187500.02235174447,-187500.02235174447
talvez,27069.25893655526,-13125.234916834226,-18476.64487083493,-5300.224459198053,-187500.02235174447,-187500.02235174447,-187500.02235174447,-187500.02235174447
talvez,27078.825483182132,-13055.139846222382,-18458.003515959208,-5230.0176298639335,-187500.02235174447,-187500.02235174447,-187500.02235174447,-187500.02235174447
talvez,27217.29454008276,-12957.350964230414,-18145.280259285006,-5148.21024515751,-187500.02235174447,-187500.02235174447,-187500.02235174447,-187500.02235174447
talvez,27246.977656719406,-13002.970874663697,-18051.939374439644,-5186.74465259846,-187500.02235174447,-187500.02235174447,-187500.02235174447,-187500.02235174447
talvez,27046.12488104402,-13144.12214089896,-18423.246553331202,-5293.027197483444,-187500.02235174447,-187500.02235174447,-187500.02235174447,-187500.02235174447
talvez,26990.469037350304,-13116.249515563193,-18525.528135958688,-5249.37424056223,-187500.02235174447,-187500.02235174447,-187500.02235174447,-187500.02235174447
talvez,27145.411329914492,-13003.820240952999,-18213.006044984584,-5138.196663641532,-187500.02235174447,-187500.02235174447,-187500.02235174447,-187500.02235174447
talvez,27197.75911542882,-13017.47715681519,-18046.373790070273,-5156.1674661836,-187500.02235174447,-187500.02235174447,-187500.02235174447,-187500.02235174447
talvez,27036.64774139497,-13146.491425811224,-18377.850160342474,-5278.14093567621,-187500.02235174447,-187500.02235174447,-187500.02235174447,-187500.02235174447
talvez,27031.05980528114,-13118.149413841893,-18492.872237309486,-5262.338252346308,-187500.02235174447,-187500.02235174447,-187500.02235174447,-187500.02235174447
talvez,27150.41812067248,-13032.676343044799,-18226.037112002028,-5188.21986773251,-187500.02235174447,-187500.02235174447,-187500.02235174447,-187500.02235174447
talvez,27238.90867697104,-13006.547153776546,-17974.825856068834,-5168.684443078571,-187500.02235174447,-187500.02235174447,-187500.02235174447,-187500.02235174447
talvez,27102.071297415652,-13112.181498072327,-18264.415057231792,-5274.13997341871,-187500.02235174447,-187500.02235174447,-187500.02235174447,-187500.02235174447
talvez,27033.071462282118,-13155.052143937606,-18481.159923214906,-5269.647272783193,-187500.02235174447,-187500.02235174447,-187500.02235174447,-187500.02235174447
talvez,27140.359835667594,-13054.893977033375,-18252.635687903847,-5203.419053962119,-187500.02235174447,-187500.02235174447,-187500.02235174447,-187500.02235174447
talvez,27254.376084134114,-12969.80088589202,-17937.96782946203,-5192.131423012188,-187500.02235174447,-187500.02235174447,-187500.02235174447,-187500.02235174447
talvez,27132.98375999734,-13102.525544467635,-18137.34539000337,-5286.276970657942,-187500.02235174447,-187500.02235174447,-187500.02235174447,-187500.02235174447
talvez,27015.279473695693,-13143.965678687773,-18440.211527372783,-5295.776462051447,-187500.02235174447,-187500.02235174447,-187500.02235174447,-187500.02235174447
talvez,27101.534855548725,-13022.394540595358,-18284.48692375266,-5213.879670367202,-187500.02235174447,-187500.02235174447,-187500.02235174447,-187500.02235174447
talvez,27246.06123519674,-12933.903984296798,-17954.865748270244,-5170.494934379451,-187500.02235174447,-187500.02235174447,-187500.02235174447,-187500.02235174447
talvez,27171.04878080473,-13033.86098550093,-18064.501054823526,-5279.213819410064,-187500.02235174447,-187500.02235174447,-187500.02235174447,-187500.02235174447
talvez,26999.700307810344,-13127.648905235399,-18422.352483552993,-5365.15627684072,-187500.02235174447,-187500.02235174447,-187500.02235174447,-187500.02235174447
talvez,27039.374654218514,-13056.525654378613,-18355.274898442614,-5283.684168301126,-187500.02235174447,-187500.02235174447,-187500.02235174447,-187500.02235174447
talvez,27184.392772244548,-12960.36844973188,-18029.207650328597,-5171.277245435387,-187500.02235174447,-187500.02235174447,-187500.02235174447,-187500.02235174447
talvez,27161.012847544298,-13022.930982462285,-18037.589554499336,-5249.173074862132,-187500.02235174447,-187500.02235174447,-187500.02235174447,-187500.02235174447
talvez,26983.607051802523,-13146.044390922118,-18425.83935568802,-5384.401128816739,-187500.02235174447,-187500.02235174447,-187500.02235174447,-187500.02235174447
talvez,26996.59341533106,-13051.451808387257,-18415.736367194222,-5321.592726897326,-187500.02235174447,-187500.02235174447,-187500.02235174447,-187500.02235174447
talvez,27166.7125423804,-12923.152795213795,-18060.164816399196,-5205.453062707551,-187500.02235174447,-187500.02235174447,-187500.02235174447,-187500.02235174447
talvez,27204.33052829868,-12958.334440986448,-17953.904623258666,-5241.729943958515,-187500.02235174447,-187500.02235174447,-187500.02235174447,-187500.02235174447
talvez,27020.7780028317,-13091.573189684534,-18341.05918896904,-5370.744212954547,-187500.02235174447,-187500.02235174447,-187500.02235174447,-187500.02235174447
talvez,27007.590473603068,-13047.763770552132,-18421.59252424151,-5322.375037953262,-187500.02235174447,-187500.02235174447,-187500.02235174447,-187500.02235174447
talvez,27143.80200431371,-12929.41128366128,-18120.022788050508,-5204.98367607399,-187500.02235174447,-187500.02235174447,-187500.02235174447,-187500.02235174447
talvez,27208.800877189744,-12930.79709181751,-17944.06985569833,-5215.55605120135,-187500.02235174447,-187500.02235174447,-187500.02235174447,-187500.02235174447
talvez,27034.457270438346,-13078.87739883392,-18305.877543196388,-5349.6441661887375,-187500.02235174447,-187500.02235174447,-187500.02235174447,-187500.02235174447
talvez,26958.617801501492,-13076.150486010372,-18493.81101057661,-5376.130983368276,-187500.02235174447,-187500.02235174447,-187500.02235174447,-187500.02235174447
talvez,27092.147122877494,-12961.553092188013,-18220.829155543943,-5292.37899689424,-187500.02235174447,-187500.02235174447,-187500.02235174447,-187500.02235174447
talvez,27200.19545557445,-12929.74655982811,-17958.21850993854,-5240.232377080009,-187500.02235174447,-187500.02235174447,-187500.02235174447,-187500.02235174447
talvez,27068.946012132885,-13053.463465388235,-18228.764024825578,-5326.308944977396,-187500.02235174447,-187500.02235174447,-187500.02235174447,-187500.02235174447
talvez,26954.37097005498,-13087.840448360497,-18497.99078678975,-5351.097029578332,-187500.02235174447,-187500.02235174447,-187500.02235174447,-187500.02235174447
talvez,27058.284230027704,-12982.004938364618,-18295.774554702588,-5261.578293034827,-187500.02235174447,-187500.02235174447,-187500.02235174447,-187500.02235174447
talvez,27214.63468249258,-12910.50170785209,-17970.55667287787,-5194.388949202174,-187500.02235174447,-187500.02235174447,-187500.02235174447,-187500.02235174447
talvez,27102.60773928258,-13015.130223647384,-18164.659221727758,-5299.5762586088495,-187500.02235174447,-187500.02235174447,-187500.02235174447,-187500.02235174447
talvez,26938.054196602607,-13089.382718727913,-18516.3192172431,-5361.043555860943,-187500.02235174447,-187500.02235174447,-187500.02235174447,-187500.02235174447
talvez,27026.92473255691,-12991.549133247034,-18355.34195367598,-5277.850362998291,-187500.02235174447,-187500.02235174447,-187500.02235174447,-187500.02235174447
talvez,27184.839807133652,-12901.561010069969,-18017.584743211835,-5213.119711055721,-187500.02235174447,-187500.02235174447,-187500.02235174447,-187500.02235174447
talvez,27155.60372538611,-12996.131240860372,-18069.977232215075,-5262.628825024227,-187500.02235174447,-187500.02235174447,-187500.02235174447,-187500.02235174447
talvez,26976.43214183237,-13114.908410895874,-18463.032658461652,-5363.278730306474,-187500.02235174447,-187500.02235174447,-187500.02235174447,-187500.02235174447
talvez,27015.279473695693,-13022.551002806546,-18413.948227637797,-5304.068959244366,-187500.02235174447,-187500.02235174447,-187500.02235174447,-187500.02235174447
talvez,27176.01086807381,-12917.654266077789,-18094.653558093734,-5208.403492975652,-187500.02235174447,-187500.02235174447,-187500.02235174447,-187500.02235174447
talvez,27187.432609490468,-12971.276101026071,-18049.972420927577,-5249.597758006783,-187500.02235174447,-187500.02235174447,-187500.02235174447,-187500.02235174447
talvez,26994.6711653079,-13119.401111531392,-18424.677064976342,-5356.193227314142,-187500.02235174447,-187500.02235174447,-187500.02235174447,-187500.02235174447
talvez,27006.20466544684,-13068.282671962104,-18436.299972093104,-5292.155479449687,-187500.02235174447,-187500.02235174447,-187500.02235174447,-187500.02235174447
talvez,27170.512338937802,-12940.408341933293,-18131.15395678925,-5194.12072826871,-187500.02235174447,-187500.02235174447,-187500.02235174447,-187500.02235174447
talvez,27215.998138904353,-12959.116752042384,-18008.599341940804,-5231.336382786797,-187500.02235174447,-187500.02235174447,-187500.02235174447,-187500.02235174447
talvez,27028.35524420205,-13097.362291498459,-18400.559532709067,-5325.750151366014,-187500.02235174447,-187500.02235174447,-187500.02235174447,-187500.02235174447
talvez,27026.500049412258,-13071.434267930303,-18472.398039388423,-5281.314883388864,-187500.02235174447,-187500.02235174447,-187500.02235174447,-187500.02235174447
talvez,27202.631795720077,-12952.254766494605,-18113.987817047575,-5183.861277563725,-187500.02235174447,-187500.02235174447,-187500.02235174447,-187500.02235174447
talvez,27271.072837242227,-12935.736827342133,-17950.70832380156,-5199.753367871448,-187500.02235174447,-187500.02235174447,-187500.02235174447,-187500.02235174447
talvez,27104.26176837227,-13080.620834901434,-18280.396554517338,-5311.62384887026,-187500.02235174447,-187500.02235174447,-187500.02235174447,-187500.02235174447
talvez,27030.366901203026,-13100.715053166754,-18469.626423075966,-5300.447976642607,-187500.02235174447,-187500.02235174447,-187500.02235174447,-187500.02235174447
talvez,27181.28587976526,-12986.721156444688,-18188.32971910593,-5195.1489085136545,-187500.02235174447,-187500.02235174447,-187500.02235174447,-187500.02235174447
talvez,27301.292395745804,-12939.581327388445,-17923.707416499547,-5167.298634922342,-187500.02235174447,-187500.02235174447,-187500.02235174447,-187500.02235174447
talvez,27158.911783565498,-13061.331279436503,-18180.037221913008,-5255.453915054073,-187500.02235174447,-187500.02235174447,-187500.02235174447,-187500.02235174447
talvez,27030.702177369854,-13110.885096893919,-18459.143454926427,-5276.7998310088915,-187500.02235174447,-187500.02235174447,-187500.02235174447,-187500.02235174447
talvez,27143.37732116906,-13012.939752690763,-18245.79605410052,-5178.139230983166,-187500.02235174447,-187500.02235174447,-187500.02235174447,-187500.02235174447
talvez,27296.151494521084,-12937.949650043209,-17914.07381463931,-5124.629154757161,-187500.02235174447,-187500.02235174447,-187500.02235174447,-187500.02235174447
talvez,27203.48116200938,-13037.459616358236,-18099.079203495887,-5235.22558632202,-187500.02235174447,-187500.02235174447,-187500.02235174447,-187500.02235174447
talvez,27068.767198177244,-13128.453568035791,-18418.575038740044,-5278.252694398487,-187500.02235174447,-187500.02235174447,-187500.02235174447,-187500.02235174447
talvez,27158.352989954114,-13027.356627864436,-18273.60162420292,-5181.760213584926,-187500.02235174447,-187500.02235174447,-187500.02235174447,-187500.02235174447
talvez,27309.78605863882,-12925.007990003585,-17930.54705030287,-5107.328904548754,-187500.02235174447,-187500.02235174447,-187500.02235174447,-187500.02235174447
talvez,27268.457683140958,-13003.216743852705,-17993.690728389112,-5177.982768771979,-187500.02235174447,-187500.02235174447,-187500.02235174447,-187500.02235174447
talvez,27109.447373085903,-13110.281599793625,-18367.21072998175,-5242.735772459004,-187500.02235174447,-187500.02235174447,-187500.02235174447,-187500.02235174447
talvez,27145.14310898103,-13042.377000138404,-18323.11073817143,-5179.145059483655,-187500.02235174447,-187500.02235174447,-187500.02235174447,-187500.02235174447
talvez,27284.796808337785,-12954.914624084786,-18002.184391282128,-5130.77588448237,-187500.02235174447,-187500.02235174447,-187500.02235174447,-187500.02235174447
talvez,27293.849264842185,-12995.505392015624,-17946.260326654952,-5179.54739088385,-187500.02235174447,-187500.02235174447,-187500.02235174447,-187500.02235174447
talvez,27102.22775962684,-13117.322399297047,-18335.448901110758,-5269.915493716657,-187500.02235174447,-187500.02235174447,-187500.02235174447,-187500.02235174447
talvez,27112.375451609547,-13081.716070379744,-18373.044535284585,-5216.874804124213,-187500.02235174447,-187500.02235174447,-187500.02235174447,-187500.02235174447
talvez,27268.278869185317,-12945.616298391378,-18046.396141814726,-5123.44451230103,-187500.02235174447,-187500.02235174447,-187500.02235174447,-187500.02235174447
talvez,27317.005672097883,-12961.039002065541,-17906.004834890944,-5142.532902065862,-187500.02235174447,-187500.02235174447,-187500.02235174447,-187500.02235174447
talvez,27111.28021613124,-13123.603239488988,-18293.5170285126,-5261.198313379087,-187500.02235174447,-187500.02235174447,-187500.02235174447,-187500.02235174447
talvez,27086.201558852383,-13116.316570796558,-18418.195059084304,-5236.589042733794,-187500.02235174447,-187500.02235174447,-187500.02235174447,-187500.02235174447
talvez,27231.979636189895,-12999.484002528668,-18127.68943639868,-5148.92550098008,-187500.02235174447,-187500.02235174447,-187500.02235174447,-187500.02235174447
talvez,27309.78605863882,-12968.348022502425,-17914.833773950788,-5134.910957206602,-187500.02235174447,-187500.02235174447,-187500.02235174447,-187500.02235174447
talvez,27155.17904224146,-13096.289407764603,-18230.23923995963,-5264.0593366693665,-187500.02235174447,-187500.02235174447,-187500.02235174447,-187500.02235174447
talvez,27077.93141340392,-13111.01920736065,-18446.358257097992,-5280.018482210456,-187500.02235174447,-187500.02235174447,-187500.02235174447,-187500.02235174447
talvez,27194.652222949535,-12992.107926858418,-18199.617350055858,-5168.751498311937,-187500.02235174447,-187500.02235174447,-187500.02235174447,-187500.02235174447
talvez,27303.795791124798,-12944.297545468515,-17917.58303851879,-5133.167521139088,-187500.02235174447,-187500.02235174447,-187500.02235174447,-187500.02235174447
talvez,27165.818472602186,-13091.863762362453,-18171.342393319894,-5256.236226110009,-187500.02235174447,-187500.02235174447,-187500.02235174447,-187500.02235174447
talvez,27046.706026399857,-13143.78686473213,-18463.74791428422,-5286.500488102494,-187500.02235174447,-187500.02235174447,-187500.02235174447,-187500.02235174447
talvez,27144.427853158457,-13029.10006393195,-18281.581196973468,-5207.755292386448,-187500.02235174447,-187500.02235174447,-187500.02235174447,-187500.02235174447
talvez,27289.73654386241,-12941.347115200415,-17957.570309349336,-5147.539692823851,-187500.02235174447,-187500.02235174447,-187500.02235174447,-187500.02235174447
talvez,27203.81643817621,-13051.183587453794,-18107.036424521975,-5234.823254921825,-187500.02235174447,-187500.02235174447,-187500.02235174447,-187500.02235174447
talvez,27045.610790921546,-13152.928728214352,-18467.771228286176,-5312.942601793123,-187500.02235174447,-187500.02235174447,-187500.02235174447,-187500.02235174447
talvez,27119.349195879604,-13056.905634034352,-18338.91342150133,-5235.694972955582,-187500.02235174447,-187500.02235174447,-187500.02235174447,-187500.02235174447
talvez,27289.557729906766,-12953.059429294995,-17985.6441003852,-5158.82732377378,-187500.02235174447,-187500.02235174447,-187500.02235174447,-187500.02235174447
talvez,27238.90867697104,-13038.174872180805,-18038.885955677742,-5216.204251790554,-187500.02235174447,-187500.02235174447,-187500.02235174447,-187500.02235174447
talvez,27042.325084486616,-13158.494312583724,-18451.74502751172,-5301.2749911874525,-187500.02235174447,-187500.02235174447,-187500.02235174447,-187500.02235174447
talvez,27062.285192285206,-13077.91627382234,-18432.857803446987,-5260.527761045428,-187500.02235174447,-187500.02235174447,-187500.02235174447,-187500.02235174447
talvez,27209.404374290036,-12990.923284402286,-18087.21042719012,-5200.26745799392,-187500.02235174447,-187500.02235174447,-187500.02235174447,-187500.02235174447
talvez,27215.037013892772,-13039.359514636937,-18030.079368362352,-5233.3033362988635,-187500.02235174447,-187500.02235174447,-187500.02235174447,-187500.02235174447
talvez,27036.5806861616,-13116.942419641307,-18426.912239421876,-5346.023183586977,-187500.02235174447,-187500.02235174447,-187500.02235174447,-187500.02235174447
talvez,27044.850831610067,-13073.155352253361,-18457.288260136636,-5280.9125519886675,-187500.02235174447,-187500.02235174447,-187500.02235174447,-187500.02235174447
talvez,27193.199359559938,-12967.073973068473,-18136.11604405833,-5191.729091611993,-187500.02235174447,-187500.02235174447,-187500.02235174447,-187500.02235174447
talvez,27241.479127583403,-12984.821258165986,-17992.75195512199,-5187.88459156568,-187500.02235174447,-187500.02235174447,-187500.02235174447,-187500.02235174447
talvez,27060.005314350765,-13150.961774702284,-18355.38665716489,-5288.199220681098,-187500.02235174447,-187500.02235174447,-187500.02235174447,-187500.02235174447
talvez,27009.624482348503,-13142.021076920162,-18505.165696759905,-5316.8318053283465,-187500.02235174447,-187500.02235174447,-187500.02235174447,-187500.02235174447
talvez,27157.213050986895,-12994.208990837216,-18222.974923011654,-5238.555996245861,-187500.02235174447,-187500.02235174447,-187500.02235174447,-187500.02235174447
talvez,27271.497520386878,-12937.547318643014,-17970.26610019995,-5205.430710963096,-187500.02235174447,-187500.02235174447,-187500.02235174447,-187500.02235174447
talvez,27112.978948709842,-13080.73259362371,-18274.272176536582,-5313.635505871237,-187500.02235174447,-187500.02235174447,-187500.02235174447,-187500.02235174447
$SILENCE,26996.39224963096,-13131.336943070524,-18528.14329005996,-5333.237985758542,-187500.02235174447,-187500.02235174447,-187500.02235174447,-187500.02235174447
$SILENCE,27109.067393430163,-13020.561697550023,-18290.52189475559,-5244.747429459981,-187500.02235174447,-187500.02235174447,-187500.02235174447,-187500.02235174447
$SILENCE,27239.936857215984,-12946.063333280485,-17984.101830017786,-5186.565838642817,-187500.02235174447,-187500.02235174447,-187500.02235174447,-187500.02235174447
$SILENCE,27133.69901581991,-13093.316625752048,-18199.55029482249,-5271.94950246209,-187500.02235174447,-187500.02235174447,-187500.02235174447,-187500.02235174447
$SILENCE,27003.276586923195,-13139.852957707997,-18512.65353115243,-5332.813302613891,-187500.02235174447,-187500.02235174447,-187500.02235174447,-187500.02235174447
$SILENCE,27072.388180779002,-13053.038782243584,-18365.802570081065,-5282.47717410054,-187500.02235174447,-187500.02235174447,-187500.02235174447,-187500.02235174447
$SILENCE,27215.998138904353,-12963.274176511071,-18045.211499358596,-5228.27419379642,-187500.02235174447,-187500.02235174447,-187500.02235174447,-187500.02235174447
$SILENCE,27150.95456253941,-13041.460578615735,-18164.189835094196,-5279.705557788081,-187500.02235174447,-187500.02235174447,-187500.02235174447,-187500.02235174447
$SILENCE,26982.556519813126,-13144.144492643416,-18524.701121413844,-5347.073715576376,-187500.02235174447,-187500.02235174447,-187500.02235174447,-187500.02235174447
$SILENCE,27051.109320057552,-13074.496456920679,-18415.423442771847,-5274.721118774548,-187500.02235174447,-187500.02235174447,-187500.02235174447,-187500.02235174447
$SILENCE,27213.606502247632,-12956.56865317448,-18055.493301808037,-5176.97694027149,-187500.02235174447,-187500.02235174447,-187500.02235174447,-187500.02235174447
$SILENCE,27185.33154551167,-13016.180755636782,-18071.854778749323,-5243.741600959493,-187500.02235174447,-187500.02235174447,-187500.02235174447,-187500.02235174447
$SILENCE,26995.565235086113,-13119.624628975944,-18478.27654818017,-5363.725765195581,-187500.02235174447,-187500.02235174447,-187500.02235174447,-187500.02235174447
$SILENCE,27015.167714973417,-13054.335183421992,-18472.107466710506,-5323.202052498109,-187500.02235174447,-187500.02235174447,-187500.02235174447,-187500.02235174447
$SILENCE,27168.32186798118,-12938.508443654591,-18128.717616643622,-5235.94084214459,-187500.02235174447,-187500.02235174447,-187500.02235174447,-187500.02235174447
$SILENCE,27199.14492358505,-12978.7639354186,-18043.535118524447,-5247.384935305708,-187500.02235174447,-187500.02235174447,-187500.02235174447,-187500.02235174447
$SILENCE,27015.212418462328,-13139.003591418696,-18434.780053470142,-5352.259320290008,-187500.02235174447,-187500.02235174447,-187500.02235174447,-187500.02235174447
$SILENCE,27013.8266103061,-13110.505117238179,-18491.75465008672,-5305.611229611782,-187500.02235174447,-187500.02235174447,-187500.02235174447,-187500.02235174447
$SILENCE,27158.95648705441,-12952.768856617076,-18167.96727990714,-5216.874804124213,-187500.02235174447,-187500.02235174447,-187500.02235174447,-187500.02235174447
$SILENCE,27205.738688199366,-12941.525929156058,-18011.9521036091,-5230.576423475316,-187500.02235174447,-187500.02235174447,-187500.02235174447,-187500.02235174447
$SILENCE,27020.308616198137,-13108.426405003835,-18385.02507031263,-5358.651919204226,-187500.02235174447,-187500.02235174447,-187500.02235174447,-187500.02235174447
$SILENCE,26976.34273485455,-13095.976483342229,-18529.95378136084,-5337.350706738318,-187500.02235174447,-187500.02235174447,-187500.02235174447,-187500.02235174447
$SILENCE,27110.006166697287,-12980.686185441755,-18250.668734391777,-5237.371353789729,-187500.02235174447,-187500.02235174447,-187500.02235174447,-187500.02235174447
$SILENCE,27212.24304583586,-12959.94376658723,-18005.22422852805,-5205.318952240819,-187500.02235174447,-187500.02235174447,-187500.02235174447,-187500.02235174447
$SILENCE,27054.663247425946,-13084.800611114575,-18309.297360098048,-5312.428511670651,-187500.02235174447,-187500.02235174447,-187500.02235174447,-187500.02235174447
$SILENCE,26953.8121764436,-13093.406032729868,-18559.90511893095,-5354.5168464799945,-187500.02235174447,-187500.02235174447,-187500.02235174447,-187500.02235174447
$SILENCE,27068.521328988234,-12995.706557715721,-18316.516973557114,-5262.807638979869,-187500.02235174447,-187500.02235174447,-187500.02235174447,-187500.02235174447
$SILENCE,27203.548217242747,-12928.561917371979,-18013.8520018878,-5226.933089129101,-187500.02235174447,-187500.02235174447,-187500.02235174447,-187500.02235174447
$SILENCE,27108.240378885315,-13038.48779660318,-18213.497783362604,-5326.554814166405,-187500.02235174447,-187500.02235174447,-187500.02235174447,-187500.02235174447
$SILENCE,26962.328191081073,-13124.296143567104,-18544.840043168075,-5363.278730306474,-187500.02235174447,-187500.02235174447,-187500.02235174447,-187500.02235174447
$SILENCE,27031.97622680381,-13015.66666551431,-18404.471087988746,-5281.650159555693,-187500.02235174447,-187500.02235174447,-187500.02235174447,-187500.02235174447
$SILENCE,27177.37432448558,-12928.003123760596,-18068.390258358748,-5246.244996338487,-187500.02235174447,-187500.02235174447,-187500.02235174447,-187500.02235174447
$SILENCE,27134.794251298223,-13001.830935696476,-18135.40078823576,-5301.207935954087,-187500.02235174447,-187500.02235174447,-187500.02235174447,-187500.02235174447
$SILENCE,26961.52352828068,-13121.792748188109,-18504.00340604823,-5358.137829081754,-187500.02235174447,-187500.02235174447,-187500.02235174447,-187500.02235174447
$SILENCE,27015.7265085848,-13035.470311101713,-18432.36606506897,-5302.280819687941,-187500.02235174447,-187500.02235174447,-187500.02235174447,-187500.02235174447
$SILENCE,27167.405446458513,-12900.577533313935,-18087.791572545957,-5216.427769235107,-187500.02235174447,-187500.02235174447,-187500.02235174447,-187500.02235174447
$SILENCE,27133.073166975162,-12975.880560383865,-18097.559284872925,-5286.209915424575,-187500.02235174447,-187500.02235174447,-187500.02235174447,-187500.02235174447
$SILENCE,26958.14841486793,-13104.045463090595,-18486.926673284375,-5382.702396238136,-187500.02235174447,-187500.02235174447,-187500.02235174447,-187500.02235174447
$SILENCE,26988.52443558269,-13045.48389261769,-18484.490333138747,-5322.9338315646455,-187500.02235174447,-187500.02235174447,-187500.02235174447,-187500.02235174447
$SILENCE,27142.349140924114,-12936.27326920906,-18144.74381741808,-5233.1245223432215,-187500.02235174447,-187500.02235174447,-187500.02235174447,-187500.02235174447
$SILENCE,27171.629926160567,-12962.51421719959,-18033.655647475203,-5258.381993577718,-187500.02235174447,-187500.02235174447,-187500.02235174447,-187500.02235174447
$SILENCE,26982.668278535402,-13102.123213067438,-18427.94041966682,-5377.092108379854,-187500.02235174447,-187500.02235174447,-187500.02235174447,-187500.02235174447
$SILENCE,26979.762551756212,-13059.140808479884,-18513.52524918619,-5357.132000581265,-187500.02235174447,-187500.02235174447,-187500.02235174447,-187500.02235174447
$SILENCE,27123.640730815023,-12933.546356385514,-18210.32383564995,-5268.216761138054,-187500.02235174447,-187500.02235174447,-187500.02235174447,-187500.02235174447
$SILENCE,27193.780504915776,-12931.914679040276,-18018.94819962361,-5239.60652823526,-187500.02235174447,-187500.02235174447,-187500.02235174447,-187500.02235174447
$SILENCE,27030.63512213649,-13068.036802773095,-18346.289497171583,-5346.447866731628,-187500.02235174447,-187500.02235174447,-187500.02235174447,-187500.02235174447
$SILENCE,26949.29712406363,-13090.96969258424,-18539.408569265433,-5360.641224460748,-187500.02235174447,-187500.02235174447,-187500.02235174447,-187500.02235174447
$SILENCE,27079.563090749158,-12964.034135822552,-18268.4607229782,-5253.062278397355,-187500.02235174447,-187500.02235174447,-187500.02235174447,-187500.02235174447
$SILENCE,27190.360688014116,-12912.60277183089,-18005.93948435062,-5218.618240191727,-187500.02235174447,-187500.02235174447,-187500.02235174447,-187500.02235174447
$SILENCE,27034.97136056082,-13062.068887003528,-18293.069993623496,-5362.228198317075,-187500.02235174447,-187500.02235174447,-187500.02235174447,-187500.02235174447
$SILENCE,26942.993932127232,-13099.508058966168,-18547.499900758256,-5385.898695695245,-187500.02235174447,-187500.02235174447,-187500.02235174447,-187500.02235174447
$SILENCE,27065.25797429776,-12984.32951978797,-18322.753110260142,-5286.053453213389,-187500.02235174447,-187500.02235174447,-187500.02235174447,-187500.02235174447
$SILENCE,27193.646394449046,-12901.940989725708,-18013.650836187702,-5224.183824561099,-187500.02235174447,-187500.02235174447,-187500.02235174447,-187500.02235174447
$SILENCE,27083.720515217843,-13010.570467778502,-18205.36174838087,-5333.059171802899,-187500.02235174447,-187500.02235174447,-187500.02235174447,-187500.02235174447
$SILENCE,26941.585772226546,-13100.223314788738,-18540.95083963285,-5374.566361256405,-187500.02235174447,-187500.02235174447,-187500.02235174447,-187500.02235174447
$SILENCE,27011.747898071757,-13027.401331353347,-18409.343768280003,-5296.514069618473,-187500.02235174447,-187500.02235174447,-187500.02235174447,-187500.02235174447
$SILENCE,27153.99439978533,-12927.712551082677,-18076.72745904058,-5220.0934553257775,-187500.02235174447,-187500.02235174447,-187500.02235174447,-187500.02235174447
$SILENCE,27117.78457376773,-12977.176961562272,-18141.8827941278,-5298.056339985888,-187500.02235174447,-187500.02235174447,-187500.02235174447,-187500.02235174447
$SILENCE,26958.438987545847,-13096.311759509059,-18508.56316191711,-5388.647960263248,-187500.02235174447,-187500.02235174447,-187500.02235174447,-187500.02235174447
$SILENCE,27002.33781365607,-13035.783235524088,-18441.396169828913,-5317.0106192839885,-187500.02235174447,-187500.02235174447,-187500.02235174447,-187500.02235174447
$SILENCE,27158.352989954114,-12929.098359238908,-18100.91204654122,-5242.5793102478165,-187500.02235174447,-187500.02235174447,-187500.02235174447,-187500.02235174447
$SILENCE,27143.287914191238,-12973.33246151596,-18086.405764389725,-5291.61903758276,-187500.02235174447,-187500.02235174447,-187500.02235174447,-187500.02235174447
$SILENCE,26954.929763666365,-13098.122250809938,-18481.249330192724,-5391.821907975902,-187500.02235174447,-187500.02235174447,-187500.02235174447,-187500.02235174447
$SILENCE,26963.602240515025,-13043.6286978279,-18496.448516422333,-5330.131093279254,-187500.02235174447,-187500.02235174447,-187500.02235174447,-187500.02235174447
$SILENCE,27110.520256819756,-12915.866126521365,-18177.533826534014,-5236.253766566964,-187500.02235174447,-187500.02235174447,-187500.02235174447,-187500.02235174447
$SILENCE,27152.653295118012,-12949.639612393334,-18056.09679890833,-5249.240130095498,-187500.02235174447,-187500.02235174447,-187500.02235174447,-187500.02235174447
$SILENCE,26987.004516959732,-13102.033806089617,-18416.965713139263,-5349.040669088444,-187500.02235174447,-187500.02235174447,-187500.02235174447,-187500.02235174447
$SILENCE,26970.19600512934,-13060.884244547397,-18515.112223042517,-5327.225366500064,-187500.02235174447,-187500.02235174447,-187500.02235174447,-187500.02235174447
$SILENCE,27110.296739375204,-12950.623089149367,-18221.879687533343,-5257.443220310595,-187500.02235174447,-187500.02235174447,-187500.02235174447,-187500.02235174447
$SILENCE,27190.472446736392,-12933.792225574522,-18011.393309997715,-5257.733792988514,-187500.02235174447,-187500.02235174447,-187500.02235174447,-187500.02235174447
$SILENCE,27009.132743970484,-13088.555704183067,-18352.6820960858,-5373.493477522549,-187500.02235174447,-187500.02235174447,-187500.02235174447,-187500.02235174447
$SILENCE,26942.770414682676,-13070.54019815209,-18549.735075203786,-5358.473105248583,-187500.02235174447,-187500.02235174447,-187500.02235174447,-187500.02235174447
$SILENCE,27075.36096279156,-12942.129426256352,-18293.13704885686,-5266.830952981824,-187500.02235174447,-187500.02235174447,-187500.02235174447,-187500.02235174447
$SILENCE,27173.775693628275,-12924.091568480919,-18030.593458484826,-5251.0282696519225,-187500.02235174447,-187500.02235174447,-187500.02235174447,-187500.02235174447
$SILENCE,27036.06659603913,-13050.401276397859,-18283.19052257425,-5356.886131392256,-187500.02235174447,-187500.02235174447,-187500.02235174447,-187500.02235174447
$SILENCE,26919.52460044916,-13082.744250624688,-18566.185959122893,-5383.082375893877,-187500.02235174447,-187500.02235174447,-187500.02235174447,-187500.02235174447
$SILENCE,27027.036491279185,-12987.481115756169,-18363.88032005791,-5274.207028652076,-187500.02235174447,-187500.02235174447,-187500.02235174447,-187500.02235174447
$SILENCE,27187.05262983473,-12919.800033545498,-18026.436034016137,-5207.822347619814,-187500.02235174447,-187500.02235174447,-187500.02235174447,-187500.02235174447
$SILENCE,27089.129637376027,-13026.328447619493,-18192.285977874515,-5316.898860561712,-187500.02235174447,-187500.02235174447,-187500.02235174447,-187500.02235174447
$SILENCE,26917.55764693709,-13118.171765586349,-18553.62427873901,-5392.939495198667,-187500.02235174447,-187500.02235174447,-187500.02235174447,-187500.02235174447
$SILENCE,26989.86554025001,-13018.080653915484,-18428.320399322558,-5293.541287605916,-187500.02235174447,-187500.02235174447,-187500.02235174447,-187500.02235174447
$SILENCE,27163.22567024537,-12910.211135174171,-18072.592386316348,-5214.885498867691,-187500.02235174447,-187500.02235174447,-187500.02235174447,-187500.02235174447
$SILENCE,27128.915742506477,-12988.486944256658,-18123.15203227425,-5301.342046420818,-187500.02235174447,-187500.02235174447,-187500.02235174447,-187500.02235174447
$SILENCE,26929.918161620877,-13110.460413749268,-18534.66999944091,-5421.795597290468,-187500.02235174447,-187500.02235174447,-187500.02235174447,-187500.02235174447
$SILENCE,26965.993877171742,-13040.879433259897,-18477.69540282433,-5349.890035377745,-187500.02235174447,-187500.02235174447,-187500.02235174447,-187500.02235174447
$SILENCE,27125.719443049366,-12924.873879536854,-18134.01498007953,-5242.17697884762,-187500.02235174447,-187500.02235174447,-187500.02235174447,-187500.02235174447
$SILENCE,27139.17519321146,-12946.443312936224,-18073.37469737228,-5247.966080661546,-187500.02235174447,-187500.02235174447,-187500.02235174447,-187500.02235174447
$SILENCE,26948.00072288522,-13093.003701329673,-18467.547710841623,-5373.001739144533,-187500.02235174447,-187500.02235174447,-187500.02235174447,-187500.02235174447
$SILENCE,26953.320438065584,-13046.91440426283,-18508.294940983647,-5337.685982905148,-187500.02235174447,-187500.02235174447,-187500.02235174447,-187500.02235174447
$SILENCE,27115.482344088836,-12933.054618007496,-18174.672803243735,-5235.449103766573,-187500.02235174447,-187500.02235174447,-187500.02235174447,-187500.02235174447
$SILENCE,27153.18973698494,-12968.728002158166,-18040.85290918981,-5276.553961819883,-187500.02235174447,-187500.02235174447,-187500.02235174447,-187500.02235174447
$SILENCE,26972.252365619228,-13079.659709889855,-18415.6469602164,-5402.193117403164,-187500.02235174447,-187500.02235174447,-187500.02235174447,-187500.02235174447
$SILENCE,26942.6586559604,-13059.900767791363,-18533.41830175141,-5343.117456807788,-187500.02235174447,-187500.02235174447,-187500.02235174447,-187500.02235174447
$SILENCE,27089.755486220776,-12949.259632737594,-18229.903963792796,-5224.474397239018,-187500.02235174447,-187500.02235174447,-187500.02235174447,-187500.02235174447
$SILENCE,27179.184815786462,-12926.818481304465,-18014.03081584344,-5220.629897192704,-187500.02235174447,-187500.02235174447,-187500.02235174447,-187500.02235174447
$SILENCE,26999.34267989906,-13070.428439429814,-18349.82107279552,-5366.072698363388,-187500.02235174447,-187500.02235174447,-187500.02235174447,-187500.02235174447
$SILENCE,26916.32830099205,-13096.870553120441,-18562.833197454598,-5375.371024056795,-187500.02235174447,-187500.02235174447,-187500.02235174447,-187500.02235174447
$SILENCE,27052.092796813584,-12990.073918112985,-18309.297360098048,-5270.675453028137,-187500.02235174447,-187500.02235174447,-187500.02235174447,-187500.02235174447
$SILENCE,27190.830074647674,-12907.21600141716,-18014.924885621655,-5222.596850704772,-187500.02235174447,-187500.02235174447,-187500.02235174447,-187500.02235174447
$SILENCE,27049.34353224558,-13023.310962118027,-18256.61429841689,-5345.2408725310415,-187500.02235174447,-187500.02235174447,-187500.02235174447,-187500.02235174447
$SILENCE,26916.484763203236,-13080.710241879255,-18557.088799129582,-5377.1144601243095,-187500.02235174447,-187500.02235174447,-187500.02235174447,-187500.02235174447
$SILENCE,27014.608921362036,-13002.747357219143,-18382.096991788985,-5292.557810849883,-187500.02235174447,-187500.02235174447,-187500.02235174447,-187500.02235174447
$SILENCE,27164.432664445958,-12917.497803866603,-18051.402932572717,-5230.285850797397,-187500.02235174447,-187500.02235174447,-187500.02235174447,-187500.02235174447
$SILENCE,27081.485340772313,-13016.136052147873,-18189.26849237305,-5310.483909903039,-187500.02235174447,-187500.02235174447,-187500.02235174447,-187500.02235174447
$SILENCE,26904.973614808754,-13115.534259740623,-18561.648554998465,-5381.003663659533,-187500.02235174447,-187500.02235174447,-187500.02235174447,-187500.02235174447
$SILENCE,26989.642022805456,-13020.271124872104,-18436.389379070926,-5280.420813610651,-187500.02235174447,-187500.02235174447,-187500.02235174447,-187500.02235174447
$SILENCE,27171.071132549183,-12902.276265892539,-18058.354325098317,-5202.41322546163,-187500.02235174447,-187500.02235174447,-187500.02235174447,-187500.02235174447
$SILENCE,27132.313207663683,-12976.886388884353,-18107.416404177715,-5289.294456159408,-187500.02235174447,-187500.02235174447,-187500.02235174447,-187500.02235174447
$SILENCE,26941.138737337442,-13100.178611299827,-18507.356167716523,-5397.633361534281,-187500.02235174447,-187500.02235174447,-187500.02235174447,-187500.02235174447
$SILENCE,26955.935592166854,-13048.546081608069,-18487.41841166239,-5336.546043937927,-187500.02235174447,-187500.02235174447,-187500.02235174447,-187500.02235174447
$SILENCE,27110.721422519855,-12933.613411618879,-18144.274430784517,-5232.409266520652,-187500.02235174447,-187500.02235174447,-187500.02235174447,-187500.02235174447
$SILENCE,27124.266579659772,-12969.130333558362,-18081.19780793164,-5271.301301872886,-187500.02235174447,-187500.02235174447,-187500.02235174447,-187500.02235174447
$SILENCE,26948.559516496603,-13081.44784944628,-18458.27173689267,-5376.153335112731,-187500.02235174447,-187500.02235174447,-187500.02235174447,-187500.02235174447
$SILENCE,26956.986124156254,-13040.164177437327,-18498.08019376757,-5317.412950684185,-187500.02235174447,-187500.02235174447,-187500.02235174447,-187500.02235174447
$SILENCE,27107.5474748072,-12940.587155888934,-18193.02358544154,-5237.259595067453,-187500.02235174447,-187500.02235174447,-187500.02235174447,-187500.02235174447
$SILENCE,27154.776710841266,-12944.029324535051,-18055.023915174475,-5269.781383249925,-187500.02235174447,-187500.02235174447,-187500.02235174447,-187500.02235174447
$SILENCE,26979.650793033936,-13090.276788506126,-18412.40595727038,-5384.646998005748,-187500.02235174447,-187500.02235174447,-187500.02235174447,-187500.02235174447
$SILENCE,26927.23595228624,-13089.248608261181,-18557.91581367443,-5356.640262203248,-187500.02235174447,-187500.02235174447,-187500.02235174447,-187500.02235174447
$SILENCE,27060.899384128978,-12968.035098080052,-18271.165284057293,-5260.728926745525,-187500.02235174447,-187500.02235174447,-187500.02235174447,-187500.02235174447
$SILENCE,27164.365609212593,-12904.17616417124,-18026.078406104854,-5227.93891762959,-187500.02235174447,-187500.02235174447,-187500.02235174447,-187500.02235174447
$SILENCE,27024.667206366925,-13047.96493625223,-18312.359549088425,-5338.133017794254,-187500.02235174447,-187500.02235174447,-187500.02235174447,-187500.02235174447
$SILENCE,26922.206809783795,-13088.667462905343,-18550.696200215363,-5361.714108194603,-187500.02235174447,-187500.02235174447,-187500.02235174447,-187500.02235174447
$SILENCE,27040.40283446346,-12982.228455809172,-18319.91443871432,-5268.842609982802,-187500.02235174447,-187500.02235174447,-187500.02235174447,-187500.02235174447
$SILENCE,27165.796120857733,-12910.568763085457,-18033.432130030647,-5224.9661356170345,-187500.02235174447,-187500.02235174447,-187500.02235174447,-187500.02235174447
$SILENCE,27048.136538044997,-13042.667572816323,-18246.80188260101,-5322.531500164449,-187500.02235174447,-187500.02235174447,-187500.02235174447,-187500.02235174447
$SILENCE,26909.66748114437,-13103.6431316904,-18565.29188934468,-5386.926875940189,-187500.02235174447,-187500.02235174447,-187500.02235174447,-187500.02235174447
