WORD,Channel_1,Channel_2,Channel_3,Channel_4,Channel_5,Channel_6,Channel_7,Channel_8
$SILENCE,9815.94739150374,-13071.724840608222,-9020.940544717378,7248.760133833902,-187500.02235174447,-187500.02235174447,-187500.02235174447,-187500.02235174447
$SILENCE,9906.695473992286,-12951.360696716392,-8959.607357932015,7372.432335905116,-187500.02235174447,-187500.02235174447,-187500.02235174447,-187500.02235174447
$SILENCE,9874.799534654563,-12797.49128788606,-9275.8398384857,7513.784767840478,-187500.02235174447,-187500.02235174447,-187500.02235174447,-187500.02235174447
$SILENCE,9699.628913358321,-12968.728002158166,-9378.501400768924,7326.544204538371,-187500.02235174447,-187500.02235174447,-187500.02235174447,-187500.02235174447
$SILENCE,9615.09461582835,-13041.10295070445,-9272.8894082176,7203.14022340062,-187500.02235174447,-187500.02235174447,-187500.02235174447,-187500.02235174447
$SILENCE,9823.099949729438,-12938.664905865779,-9077.691623889403,7379.69665285309,-187500.02235174447,-187500.02235174447,-187500.02235174447,-187500.02235174447
$SILENCE,9973.996576547215,-12844.340544264382,-9117.164804597474,7564.433820776203,-187500.02235174447,-187500.02235174447,-187500.02235174447,-187500.02235174447
$SILENCE,9820.171871205792,-12976.551112717523,-9279.6396350431,7357.7248880535235,-187500.02235174447,-187500.02235174447,-187500.02235174447,-187500.02235174447
$SILENCE,9648.331659833391,-13091.059099562062,-9226.01780009482,7243.395715164628,-187500.02235174447,-187500.02235174447,-187500.02235174447,-187500.02235174447
$SILENCE,9900.951075667272,-12981.177923819772,-8969.643291192448,7369.705423081568,-187500.02235174447,-187500.02235174447,-187500.02235174447,-187500.02235174447
$SILENCE,9862.886054859884,-12876.437649302203,-9177.738032071356,7462.599273037824,-187500.02235174447,-187500.02235174447,-187500.02235174447,-187500.02235174447
$SILENCE,9711.251820475081,-12931.914679040276,-9364.464505250991,7441.186301849641,-187500.02235174447,-187500.02235174447,-187500.02235174447,-187500.02235174447
$SILENCE,9841.987173794172,-13078.564474411545,-9154.246348648829,7239.57356686277,-187500.02235174447,-187500.02235174447,-187500.02235174447,-187500.02235174447
$SILENCE,9820.820071794997,-13028.965953465218,-9050.17662646492,7261.567683406793,-187500.02235174447,-187500.02235174447,-187500.02235174447,-187500.02235174447
$SILENCE,9863.891883360373,-12872.906073678265,-9153.084057937152,7480.301854646427,-187500.02235174447,-187500.02235174447,-187500.02235174447,-187500.02235174447
$SILENCE,9728.529718939033,-12910.79228053001,-9375.23804607845,7438.124112859263,-187500.02235174447,-187500.02235174447,-187500.02235174447,-187500.02235174447
$SILENCE,9717.845585089397,-13044.72393330621,-9250.805884695756,7307.366407795716,-187500.02235174447,-187500.02235174447,-187500.02235174447,-187500.02235174447
$SILENCE,9962.194855474812,-13000.780403707076,-8961.216683532797,7347.599547815269,-187500.02235174447,-187500.02235174447,-187500.02235174447,-187500.02235174447
$SILENCE,9937.898509251894,-12865.239425330094,-9023.421588351917,7480.10068894633,-187500.02235174447,-187500.02235174447,-187500.02235174447,-187500.02235174447
$SILENCE,9689.503573120068,-12913.60860033138,-9362.363441272193,7447.735362975045,-187500.02235174447,-187500.02235174447,-187500.02235174447,-187500.02235174447
$SILENCE,9674.706718290654,-13107.398224758892,-9331.808606601788,7201.5308977998375,-187500.02235174447,-187500.02235174447,-187500.02235174447,-187500.02235174447
$SILENCE,9910.271753105135,-13051.183587453794,-9040.632431582502,7218.182947419042,-187500.02235174447,-187500.02235174447,-187500.02235174447,-187500.02235174447
$SILENCE,9888.724671450218,-12896.21894314515,-9048.254376441762,7471.8305434978665,-187500.02235174447,-187500.02235174447,-187500.02235174447,-187500.02235174447
$SILENCE,9911.523450794632,-12794.362043662315,-9186.991654275853,7626.951650017697,-187500.02235174447,-187500.02235174447,-187500.02235174447,-187500.02235174447
$SILENCE,9694.599770855877,-12934.261612208084,-9345.08554280824,7392.4147954481605,-187500.02235174447,-187500.02235174447,-187500.02235174447,-187500.02235174447
$SILENCE,9786.21957137818,-13069.10968650695,-9127.066627391176,7225.491967855927,-187500.02235174447,-187500.02235174447,-187500.02235174447,-187500.02235174447
$SILENCE,9960.4514194073,-12923.421016147258,-8915.440310888329,7418.096949827308,-187500.02235174447,-187500.02235174447,-187500.02235174447,-187500.02235174447
$SILENCE,9852.71601113272,-12846.843939643377,-9203.286075983773,7525.474730190603,-187500.02235174447,-187500.02235174447,-187500.02235174447,-187500.02235174447
$SILENCE,9741.40432374529,-13011.039854412062,-9388.872610196187,7303.2536868159405,-187500.02235174447,-187500.02235174447,-187500.02235174447,-187500.02235174447
$SILENCE,9815.567411847998,-13063.432343415303,-9142.154054898507,7261.4559246845165,-187500.02235174447,-187500.02235174447,-187500.02235174447,-187500.02235174447
$SILENCE,9827.346781175946,-12914.12269045385,-9048.254376441762,7441.923909416665,-187500.02235174447,-187500.02235174447,-187500.02235174447,-187500.02235174447
$SILENCE,9811.745263546141,-12802.766299577512,-9218.440558724471,7564.858503920854,-187500.02235174447,-187500.02235174447,-187500.02235174447,-187500.02235174447
$SILENCE,9743.036001090528,-12946.063333280485,-9350.09233356623,7441.7227437165675,-187500.02235174447,-187500.02235174447,-187500.02235174447,-187500.02235174447
$SILENCE,9842.210691238724,-13046.176796695805,-9123.37858955605,7279.359671993217,-187500.02235174447,-187500.02235174447,-187500.02235174447,-187500.02235174447
$SILENCE,9913.848032217984,-12905.494917094102,-8957.550997442127,7410.564411945869,-187500.02235174447,-187500.02235174447,-187500.02235174447,-187500.02235174447
$SILENCE,9918.273677620135,-12839.44551222867,-9098.121118321553,7522.569003411413,-187500.02235174447,-187500.02235174447,-187500.02235174447,-187500.02235174447
$SILENCE,9707.250858217581,-12948.27615598156,-9397.209810878017,7419.527461472448,-187500.02235174447,-187500.02235174447,-187500.02235174447,-187500.02235174447
$SILENCE,9775.669547995276,-13060.01252651364,-9191.797279333745,7307.366407795716,-187500.02235174447,-187500.02235174447,-187500.02235174447,-187500.02235174447
$SILENCE,9930.969468470748,-12980.350909274926,-8957.662756164404,7374.488696395004,-187500.02235174447,-187500.02235174447,-187500.02235174447,-187500.02235174447
$SILENCE,9873.749002665163,-12832.11414004733,-9099.752795666791,7522.054913288941,-187500.02235174447,-187500.02235174447,-187500.02235174447,-187500.02235174447
$SILENCE,9770.260425837092,-12876.147076624284,-9331.316868223772,7507.012189270519,-187500.02235174447,-187500.02235174447,-187500.02235174447,-187500.02235174447
$SILENCE,9764.113696111883,-13036.118511690916,-9237.506596744848,7332.042733674376,-187500.02235174447,-187500.02235174447,-187500.02235174447,-187500.02235174447
$SILENCE,9882.28736904709,-13004.826069453487,-9006.054282910143,7341.5869285567915,-187500.02235174447,-187500.02235174447,-187500.02235174447,-187500.02235174447
$SILENCE,9910.830546716517,-12853.951794380164,-9030.797664022168,7502.027750256986,-187500.02235174447,-187500.02235174447,-187500.02235174447,-187500.02235174447
$SILENCE,9848.08920003047,-12850.643736200778,-9236.992506622375,7539.176349541706,-187500.02235174447,-187500.02235174447,-187500.02235174447,-187500.02235174447
$SILENCE,9714.559878654467,-12997.47234552769,-9322.353818697193,7359.043640976387,-187500.02235174447,-187500.02235174447,-187500.02235174447,-187500.02235174447
$SILENCE,9842.836540083474,-13007.217706110205,-9057.060963757154,7344.917338480633,-187500.02235174447,-187500.02235174447,-187500.02235174447,-187500.02235174447
$SILENCE,9946.705096567286,-12848.699134433167,-9001.338064830074,7518.433930687182,-187500.02235174447,-187500.02235174447,-187500.02235174447,-187500.02235174447
$SILENCE,9860.069735058516,-12798.251247197539,-9219.178166291496,7605.449271851692,-187500.02235174447,-187500.02235174447,-187500.02235174447,-187500.02235174447
$SILENCE,9687.558971352455,-12993.091403614451,-9327.092388521718,7381.08246100932,-187500.02235174447,-187500.02235174447,-187500.02235174447,-187500.02235174447
$SILENCE,9801.910495985807,-13042.444055371769,-9075.635263399514,7310.450948530549,-187500.02235174447,-187500.02235174447,-187500.02235174447,-187500.02235174447
$SILENCE,9907.366026325944,-12919.352998656394,-8985.0212913777,7431.351534289305,-187500.02235174447,-187500.02235174447,-187500.02235174447,-187500.02235174447
$SILENCE,9888.47880226121,-12816.289104972971,-9174.586436103158,7572.9721871581305,-187500.02235174447,-187500.02235174447,-187500.02235174447,-187500.02235174447
$SILENCE,9726.093378793405,-12954.042906051029,-9325.974801298953,7433.720819201568,-187500.02235174447,-187500.02235174447,-187500.02235174447,-187500.02235174447
$SILENCE,9780.36341433089,-13037.280802402593,-9114.728464451846,7328.421751072616,-187500.02235174447,-187500.02235174447,-187500.02235174447,-187500.02235174447
$SILENCE,9949.990803002216,-12928.740731327622,-8949.34790722703,7449.635261253747,-187500.02235174447,-187500.02235174447,-187500.02235174447,-187500.02235174447
$SILENCE,9893.060909874548,-12802.140450732762,-9139.315383352683,7597.6932165257,-187500.02235174447,-187500.02235174447,-187500.02235174447,-187500.02235174447
$SILENCE,9728.105035794382,-12927.667847593768,-9316.050626760796,7468.85776148531,-187500.02235174447,-187500.02235174447,-187500.02235174447,-187500.02235174447
$SILENCE,9735.369352742357,-13038.53250009209,-9166.495104610338,7306.025303128398,-187500.02235174447,-187500.02235174447,-187500.02235174447,-187500.02235174447
$SILENCE,9858.750982135653,-12941.123597755863,-8999.415814806916,7406.831670621833,-187500.02235174447,-187500.02235174447,-187500.02235174447,-187500.02235174447
$SILENCE,9871.938511364284,-12818.479575929592,-9117.008342386287,7568.92652141172,-187500.02235174447,-187500.02235174447,-187500.02235174447,-187500.02235174447
$SILENCE,9738.967983599661,-12901.292789136505,-9322.08559776373,7488.393186139248,-187500.02235174447,-187500.02235174447,-187500.02235174447,-187500.02235174447
$SILENCE,9740.26438477807,-13063.141770737384,-9195.641779380057,7300.035035614376,-187500.02235174447,-187500.02235174447,-187500.02235174447,-187500.02235174447
$SILENCE,9857.4769327017,-13009.654046255833,-8989.44693677985,7351.153475183663,-187500.02235174447,-187500.02235174447,-187500.02235174447,-187500.02235174447
$SILENCE,9916.709055508263,-12857.997460126575,-9020.649972039459,7548.362916512838,-187500.02235174447,-187500.02235174447,-187500.02235174447,-187500.02235174447
$SILENCE,9799.921190729285,-12883.657262761268,-9255.455047542458,7531.48734944908,-187500.02235174447,-187500.02235174447,-187500.02235174447,-187500.02235174447
$SILENCE,9742.857187134885,-13048.6801920748,-9228.007105351342,7329.427579573105,-187500.02235174447,-187500.02235174447,-187500.02235174447,-187500.02235174447
$SILENCE,9821.244754939647,-13021.589877794968,-9031.64703031147,7327.393570827672,-187500.02235174447,-187500.02235174447,-187500.02235174447,-187500.02235174447
$SILENCE,9880.543932979577,-12876.907035935765,-9033.166948934431,7502.161860723718,-187500.02235174447,-187500.02235174447,-187500.02235174447,-187500.02235174447
$SILENCE,9804.905629742818,-12862.959547395652,-9242.334573547194,7532.0014395715525,-187500.02235174447,-187500.02235174447,-187500.02235174447,-187500.02235174447
$SILENCE,9713.308180964968,-13000.087499628962,-9255.87973068711,7360.340042154795,-187500.02235174447,-187500.02235174447,-187500.02235174447,-187500.02235174447
$SILENCE,9828.084388742971,-13025.836709241476,-9013.922096958411,7339.709382022546,-187500.02235174447,-187500.02235174447,-187500.02235174447,-187500.02235174447
$SILENCE,9893.060909874548,-12911.574591585946,-8995.727776971791,7479.8771715017765,-187500.02235174447,-187500.02235174447,-187500.02235174447,-187500.02235174447
$SILENCE,9797.954237217216,-12873.93425392321,-9241.954593891454,7549.502855480058,-187500.02235174447,-187500.02235174447,-187500.02235174447,-187500.02235174447
$SILENCE,9699.763023825053,-13015.66666551431,-9297.252809673882,7380.948350542588,-187500.02235174447,-187500.02235174447,-187500.02235174447,-187500.02235174447
$SILENCE,9781.88333295385,-13059.096104990973,-9071.12021101954,7317.938782923077,-187500.02235174447,-187500.02235174447,-187500.02235174447,-187500.02235174447
$SILENCE,9885.930703393306,-12937.949650043209,-8970.984395859767,7460.587616036847,-187500.02235174447,-187500.02235174447,-187500.02235174447,-187500.02235174447
$SILENCE,9840.131979004382,-12843.848805886366,-9160.661299307501,7580.571780272935,-187500.02235174447,-187500.02235174447,-187500.02235174447,-187500.02235174447
$SILENCE,9697.505497635068,-12984.642444210345,-9307.802833056789,7416.107644570786,-187500.02235174447,-187500.02235174447,-187500.02235174447,-187500.02235174447
$SILENCE,9756.64821346381,-13075.837561587998,-9104.156089324486,7283.360634250717,-187500.02235174447,-187500.02235174447,-187500.02235174447,-187500.02235174447
$SILENCE,9868.541046207076,-12967.744525402133,-8966.871674879989,7401.467251952559,-187500.02235174447,-187500.02235174447,-187500.02235174447,-187500.02235174447
$SILENCE,9852.693659388264,-12842.954736108153,-9123.400941300504,7556.409544516748,-187500.02235174447,-187500.02235174447,-187500.02235174447,-187500.02235174447
$SILENCE,9713.129367009327,-12955.763990374087,-9306.46172838947,7440.314583815883,-187500.02235174447,-187500.02235174447,-187500.02235174447,-187500.02235174447
$SILENCE,9734.140006797315,-13067.656823117355,-9138.108389152098,7302.15845133763,-187500.02235174447,-187500.02235174447,-187500.02235174447,-187500.02235174447
$SILENCE,9849.206787253235,-12981.624958708879,-8959.987337587754,7386.6033418897805,-187500.02235174447,-187500.02235174447,-187500.02235174447,-187500.02235174447
$SILENCE,9854.57120592251,-12834.461073215136,-9082.050214058187,7551.44745724767,-187500.02235174447,-187500.02235174447,-187500.02235174447,-187500.02235174447
$SILENCE,9730.362561984368,-12921.364655657371,-9296.470498617948,7494.472860631092,-187500.02235174447,-187500.02235174447,-187500.02235174447,-187500.02235174447
$SILENCE,9700.657093603266,-13073.289462720093,-9190.25500896633,7309.087492118775,-187500.02235174447,-187500.02235174447,-187500.02235174447,-187500.02235174447
$SILENCE,9836.04160976906,-13018.773557993598,-8972.258445293719,7356.7861147864005,-187500.02235174447,-187500.02235174447,-187500.02235174447,-187500.02235174447
$SILENCE,9892.680930218808,-12864.658279974257,-9016.894878970967,7540.316288508927,-187500.02235174447,-187500.02235174447,-187500.02235174447,-187500.02235174447
$SILENCE,9773.434373549744,-12887.635873274312,-9247.520178260826,7526.525262180003,-187500.02235174447,-187500.02235174447,-187500.02235174447,-187500.02235174447
$SILENCE,9692.67752083272,-13069.668480118333,-9220.116939558618,7330.679277262602,-187500.02235174447,-187500.02235174447,-187500.02235174447,-187500.02235174447
$SILENCE,9810.359455389913,-13036.207918668739,-9001.49452704126,7343.2856611353955,-187500.02235174447,-187500.02235174447,-187500.02235174447,-187500.02235174447
$SILENCE,9879.806325412552,-12876.907035935765,-9000.30988458513,7507.6380381152685,-187500.02235174447,-187500.02235174447,-187500.02235174447,-187500.02235174447
$SILENCE,9794.713234271198,-12874.560102767957,-9221.323933759206,7546.574776956413,-187500.02235174447,-187500.02235174447,-187500.02235174447,-187500.02235174447
$SILENCE,9694.398605155779,-13058.939642779786,-9246.223777082418,7335.194329642574,-187500.02235174447,-187500.02235174447,-187500.02235174447,-187500.02235174447
$SILENCE,9804.793871020542,-13046.981459496195,-9014.145614402963,7313.4684340320155,-187500.02235174447,-187500.02235174447,-187500.02235174447,-187500.02235174447
$SILENCE,9899.654674488864,-12908.825327017943,-8958.221549775786,7480.48066860207,-187500.02235174447,-187500.02235174447,-187500.02235174447,-187500.02235174447
$SILENCE,9814.695693814241,-12852.945965879675,-9190.858506066621,7564.411469031748,-187500.02235174447,-187500.02235174447,-187500.02235174447,-187500.02235174447
$SILENCE,9689.972959753628,-13011.86686895691,-9278.298530375783,7396.996903061498,-187500.02235174447,-187500.02235174447,-187500.02235174447,-187500.02235174447
$SILENCE,9754.010707618083,-13069.802590585065,-9064.45939117186,7306.226468828496,-187500.02235174447,-187500.02235174447,-187500.02235174447,-187500.02235174447
$SILENCE,9874.508961976644,-12940.810673333488,-8952.410096217405,7444.270842584472,-187500.02235174447,-187500.02235174447,-187500.02235174447,-187500.02235174447
$SILENCE,9830.61013586642,-12844.6311169423,-9137.52724379626,7584.662149508256,-187500.02235174447,-187500.02235174447,-187500.02235174447,-187500.02235174447
$SILENCE,9684.474430617624,-12983.033118609563,-9297.051643973786,7426.65766795369,-187500.02235174447,-187500.02235174447,-187500.02235174447,-187500.02235174447
$SILENCE,9739.727942911142,-13075.368174954436,-9101.22801080084,7290.53554422087,-187500.02235174447,-187500.02235174447,-187500.02235174447,-187500.02235174447
$SILENCE,9866.082354316994,-12964.391763733836,-8940.34015421154,7415.593554448314,-187500.02235174447,-187500.02235174447,-187500.02235174447,-187500.02235174447
$SILENCE,9854.146522777859,-12847.648602443767,-9092.197906040896,7577.420184304737,-187500.02235174447,-187500.02235174447,-187500.02235174447,-187500.02235174447
$SILENCE,9708.34609369589,-12950.108999026896,-9288.781498525323,7473.484572587558,-187500.02235174447,-187500.02235174447,-187500.02235174447,-187500.02235174447
$SILENCE,9708.167279740248,-13074.339994709491,-9144.568043299681,7302.404320526639,-187500.02235174447,-187500.02235174447,-187500.02235174447,-187500.02235174447
$SILENCE,9836.421589424801,-12990.990339635651,-8953.728849140269,7382.8929523102,-187500.02235174447,-187500.02235174447,-187500.02235174447,-187500.02235174447
$SILENCE,9873.19020905378,-12850.286108289494,-9040.632431582502,7567.853637677866,-187500.02235174447,-187500.02235174447,-187500.02235174447,-187500.02235174447
$SILENCE,9732.620088174353,-12916.514327110568,-9268.799038982277,7507.5262793929915,-187500.02235174447,-187500.02235174447,-187500.02235174447,-187500.02235174447
$SILENCE,9698.757195324564,-13066.941567294785,-9176.396927404037,7310.9426869085655,-187500.02235174447,-187500.02235174447,-187500.02235174447,-187500.02235174447
$SILENCE,9822.854080540428,-13014.034988169073,-8963.138933555952,7354.752106040968,-187500.02235174447,-187500.02235174447,-187500.02235174447,-187500.02235174447
$SILENCE,9865.23298802769,-12871.609672499857,-9014.145614402963,7533.834282616888,-187500.02235174447,-187500.02235174447,-187500.02235174447,-187500.02235174447
$SILENCE,9741.203158045193,-12888.59699828589,-9253.756314963855,7530.8838523487875,-187500.02235174447,-187500.02235174447,-187500.02235174447,-187500.02235174447
$SILENCE,9675.95841598015,-13054.53634912209,-9219.44638722496,7333.249727874962,-187500.02235174447,-187500.02235174447,-187500.02235174447,-187500.02235174447
$SILENCE,9790.354644102412,-13050.066000231029,-8989.961026902321,7328.935841195088,-187500.02235174447,-187500.02235174447,-187500.02235174447,-187500.02235174447
$SILENCE,9870.977386352704,-12899.728167024634,-8977.466401751804,7512.309552706427,-187500.02235174447,-187500.02235174447,-187500.02235174447,-187500.02235174447
$SILENCE,9766.907664168795,-12873.017832400541,-9223.648515182556,7551.514512481036,-187500.02235174447,-187500.02235174447,-187500.02235174447,-187500.02235174447
$SILENCE,9660.446305328167,-13043.29342166107,-9256.438524298492,7354.97562348552,-187500.02235174447,-187500.02235174447,-187500.02235174447,-187500.02235174447
$SILENCE,9757.989318131127,-13064.05819226005,-9025.209727908341,7305.39945428365,-187500.02235174447,-187500.02235174447,-187500.02235174447,-187500.02235174447
$SILENCE,9862.595482181965,-12917.654266077789,-8961.104924810521,7468.701299274123,-187500.02235174447,-187500.02235174447,-187500.02235174447,-187500.02235174447
$SILENCE,9801.061129696505,-12853.460056002148,-9168.886741267055,7576.324948826426,-187500.02235174447,-187500.02235174447,-187500.02235174447,-187500.02235174447
$SILENCE,9664.313157118935,-13016.784252737076,-9274.297568118283,7387.877391323733,-187500.02235174447,-187500.02235174447,-187500.02235174447,-187500.02235174447
$SILENCE,9737.895099865807,-13070.137866751895,-9063.118286504541,7297.755157679935,-187500.02235174447,-187500.02235174447,-187500.02235174447,-187500.02235174447
$SILENCE,9845.496397673654,-12939.782493088544,-8950.644308405437,7442.214482094584,-187500.02235174447,-187500.02235174447,-187500.02235174447,-187500.02235174447
$SILENCE,9809.934772245262,-12850.174349567218,-9132.743970482823,7573.6203877473345,-187500.02235174447,-187500.02235174447,-187500.02235174447,-187500.02235174447
$SILENCE,9659.261662872037,-13001.249790340638,-9292.111908449162,7422.321429529361,-187500.02235174447,-187500.02235174447,-187500.02235174447,-187500.02235174447
$SILENCE,9701.282942448013,-13087.974558827229,-9107.195926570408,7295.117651834208,-187500.02235174447,-187500.02235174447,-187500.02235174447,-187500.02235174447
$SILENCE,9830.386618421868,-12979.032156352063,-8949.616128160493,7403.478908953537,-187500.02235174447,-187500.02235174447,-187500.02235174447,-187500.02235174447
$SILENCE,9838.120322003404,-12854.510587991546,-9083.167801280952,7566.199608588173,-187500.02235174447,-187500.02235174447,-187500.02235174447,-187500.02235174447
$SILENCE,9680.406413126757,-12956.702763641211,-9288.736795036411,7465.147371905729,-187500.02235174447,-187500.02235174447,-187500.02235174447,-187500.02235174447
$SILENCE,9675.265511902036,-13077.893922077887,-9155.542749827237,7293.73184367798,-187500.02235174447,-187500.02235174447,-187500.02235174447,-187500.02235174447
$SILENCE,9794.959103460205,-13004.602552008933,-8963.407154489418,7373.549923127881,-187500.02235174447,-187500.02235174447,-187500.02235174447,-187500.02235174447
$SILENCE,9835.706333602231,-12859.427971771715,-9040.967707749332,7557.571835228424,-187500.02235174447,-187500.02235174447,-187500.02235174447,-187500.02235174447
$SILENCE,9709.217811729648,-12916.804899788487,-9261.422963312027,7515.595259141357,-187500.02235174447,-187500.02235174447,-187500.02235174447,-187500.02235174447
$SILENCE,9661.38507859529,-13081.403145957369,-9186.298750197739,7319.235184101485,-187500.02235174447,-187500.02235174447,-187500.02235174447,-187500.02235174447
$SILENCE,9780.98926317564,-13044.388657139381,-8973.510142983216,7344.40324835816,-187500.02235174447,-187500.02235174447,-187500.02235174447,-187500.02235174447
$SILENCE,9837.963859792217,-12883.925483694731,-9012.35747484654,7525.564137168424,-187500.02235174447,-187500.02235174447,-187500.02235174447,-187500.02235174447
$SILENCE,9714.4928234211,-12889.468716319647,-9252.59402425218,7533.923689594709,-187500.02235174447,-187500.02235174447,-187500.02235174447,-187500.02235174447
$SILENCE,9640.217976596115,-13064.572282382524,-9226.509538472836,7330.500463306959,-187500.02235174447,-187500.02235174447,-187500.02235174447,-187500.02235174447
$SILENCE,9758.905739653796,-13060.526616636113,-8990.944503658355,7321.716227736024,-187500.02235174447,-187500.02235174447,-187500.02235174447,-187500.02235174447
$SILENCE,9835.125188246393,-12909.875859007343,-8980.528590742182,7491.857706529821,-187500.02235174447,-187500.02235174447,-187500.02235174447,-187500.02235174447
$SILENCE,9740.711419667176,-12877.778753969522,-9214.506651700336,7553.727335182111,-187500.02235174447,-187500.02235174447,-187500.02235174447,-187500.02235174447
$SILENCE,9631.321982302903,-13047.048514729562,-9258.293719088284,7357.948405498077,-187500.02235174447,-187500.02235174447,-187500.02235174447,-187500.02235174447
$SILENCE,9725.579288670933,-13073.669442375833,-9029.300097143663,7299.990332125465,-187500.02235174447,-187500.02235174447,-187500.02235174447,-187500.02235174447
$SILENCE,9821.647086339843,-12935.08862675293,-8966.49169522425,7453.770333977978,-187500.02235174447,-187500.02235174447,-187500.02235174447,-187500.02235174447
$SILENCE,9759.017498376072,-12862.378402039814,-9181.671939095491,7555.426067760714,-187500.02235174447,-187500.02235174447,-187500.02235174447,-187500.02235174447
$SILENCE,9628.773883434998,-13019.198241138249,-9285.160515923562,7386.513934911959,-187500.02235174447,-187500.02235174447,-187500.02235174447,-187500.02235174447
$SILENCE,9701.685273848208,-13096.579980442522,-9067.521580162238,7279.806706882323,-187500.02235174447,-187500.02235174447,-187500.02235174447,-187500.02235174447
$SILENCE,9809.241868167146,-12972.639557437846,-8956.500465452727,7412.08433056883,-187500.02235174447,-187500.02235174447,-187500.02235174447,-187500.02235174447
$SILENCE,9774.93194042825,-12857.706887448656,-9140.052990919708,7559.382326529304,-187500.02235174447,-187500.02235174447,-187500.02235174447,-187500.02235174447
$SILENCE,9621.6213252093,-12987.324653544982,-9311.714388336468,7406.831670621833,-187500.02235174447,-187500.02235174447,-187500.02235174447,-187500.02235174447
$SILENCE,9666.146000164272,-13103.061986334562,-9124.47382503436,7257.298500215829,-187500.02235174447,-187500.02235174447,-187500.02235174447,-187500.02235174447
$SILENCE,9796.74724301663,-13000.020444395595,-8956.165189285897,7377.394423174193,-187500.02235174447,-187500.02235174447,-187500.02235174447,-187500.02235174447
$SILENCE,9808.191336177748,-12863.473637518126,-9081.60317916908,7557.951814884164,-187500.02235174447,-187500.02235174447,-187500.02235174447,-187500.02235174447
$SILENCE,9656.400639581758,-12956.859225852399,-9288.334463636216,7465.7285172615675,-187500.02235174447,-187500.02235174447,-187500.02235174447,-187500.02235174447
$SILENCE,9649.181026122693,-13098.368119998948,-9156.772095772278,7285.238180784962,-187500.02235174447,-187500.02235174447,-187500.02235174447,-187500.02235174447
$SILENCE,9781.436298064746,-13027.557793564534,-8960.76964864369,7350.5052745944595,-187500.02235174447,-187500.02235174447,-187500.02235174447,-187500.02235174447
$SILENCE,9802.536344830554,-12873.107239378363,-9056.770391079235,7529.9450790816645,-187500.02235174447,-187500.02235174447,-187500.02235174447,-187500.02235174447
$SILENCE,9669.319947876924,-12921.632876590835,-9284.467611845448,7493.757604808522,-187500.02235174447,-187500.02235174447,-187500.02235174447,-187500.02235174447
$SILENCE,9641.044991140961,-13083.25834074716,-9195.440613679959,7296.034073356876,-187500.02235174447,-187500.02235174447,-187500.02235174447,-187500.02235174447
$SILENCE,9764.046640878516,-13054.402238655359,-8975.722965684292,7320.732750979991,-187500.02235174447,-187500.02235174447,-187500.02235174447,-187500.02235174447
$SILENCE,9817.80258629353,-12901.98569321462,-9008.155346888941,7508.465052660114,-187500.02235174447,-187500.02235174447,-187500.02235174447,-187500.02235174447
$SILENCE,9691.559933609955,-12903.527963582035,-9253.666907986035,7513.96358179612,-187500.02235174447,-187500.02235174447,-187500.02235174447,-187500.02235174447
$SILENCE,9629.176214835194,-13068.30502370656,-9227.761236162334,7314.071931132309,-187500.02235174447,-187500.02235174447,-187500.02235174447,-187500.02235174447
$SILENCE,9731.010762573573,-13065.48870390519,-9002.992093919765,7302.650189715647,-187500.02235174447,-187500.02235174447,-187500.02235174447,-187500.02235174447
$SILENCE,9803.31865588649,-12922.37048415786,-8996.554791516637,7471.249398142028,-187500.02235174447,-187500.02235174447,-187500.02235174447,-187500.02235174447
$SILENCE,9718.449082189689,-12883.478448805625,-9226.39777975056,7536.784712884988,-187500.02235174447,-187500.02235174447,-187500.02235174447,-187500.02235174447
$SILENCE,9616.033389095473,-13049.171930452816,-9269.69310876049,7346.213739659041,-187500.02235174447,-187500.02235174447,-187500.02235174447,-187500.02235174447
$SILENCE,9713.107015264872,-13085.001776814674,-9039.336030404094,7282.623026683692,-187500.02235174447,-187500.02235174447,-187500.02235174447,-187500.02235174447
$SILENCE,9803.966856475694,-12949.03611529304,-8971.900817382433,7435.66542096918,-187500.02235174447,-187500.02235174447,-187500.02235174447,-187500.02235174447
$SILENCE,9737.872748121352,-12872.68255623371,-9186.902247298032,7536.717657651622,-187500.02235174447,-187500.02235174447,-187500.02235174447,-187500.02235174447
$SILENCE,9614.80404315043,-13025.188508652273,-9290.010844470364,7374.242827205995,-187500.02235174447,-187500.02235174447,-187500.02235174447,-187500.02235174447
$SILENCE,9683.423898628223,-13098.099899065483,-9078.429231456426,7268.876703843678,-187500.02235174447,-187500.02235174447,-187500.02235174447,-187500.02235174447
$SILENCE,9804.503298342623,-12979.56859821899,-8951.851302606023,7404.931772343132,-187500.02235174447,-187500.02235174447,-187500.02235174447,-187500.02235174447
$SILENCE,9773.613187505387,-12863.808913684954,-9129.726484981356,7546.641832189779,-187500.02235174447,-187500.02235174447,-187500.02235174447,-187500.02235174447
$SILENCE,9633.020714881506,-12991.593836735945,-9293.542420094302,7411.369074746261,-187500.02235174447,-187500.02235174447,-187500.02235174447,-187500.02235174447
$SILENCE,9657.607633782343,-13096.64703567589,-9123.557403511692,7262.305290973818,-187500.02235174447,-187500.02235174447,-187500.02235174447,-187500.02235174447
$SILENCE,9786.264274867091,-12995.773612949088,-8955.472285207783,7366.866751535744,-187500.02235174447,-187500.02235174447,-187500.02235174447,-187500.02235174447
$SILENCE,9792.634522036853,-12863.920672407232,-9086.922894349444,7533.230785516595,-187500.02235174447,-187500.02235174447,-187500.02235174447,-187500.02235174447
$SILENCE,9641.33556381888,-12964.324708500471,-9305.165327211062,7438.258223325995,-187500.02235174447,-187500.02235174447,-187500.02235174447,-187500.02235174447
$SILENCE,9642.631964997288,-13107.711149181265,-9166.204531932419,7267.960282321011,-187500.02235174447,-187500.02235174447,-187500.02235174447,-187500.02235174447
$SILENCE,9765.36539380138,-13027.401331353347,-8968.436296991862,7337.854187232756,-187500.02235174447,-187500.02235174447,-187500.02235174447,-187500.02235174447
$SILENCE,9803.944504731238,-12886.987672685109,-9045.21453919584,7516.109349263829,-187500.02235174447,-187500.02235174447,-187500.02235174447,-187500.02235174447
$SILENCE,9680.741689293587,-12930.41711216177,-9271.972986694931,7473.328110376372,-187500.02235174447,-187500.02235174447,-187500.02235174447,-187500.02235174447
$SILENCE,9632.461921270124,-13090.656768161865,-9203.934276572976,7277.750346392435,-187500.02235174447,-187500.02235174447,-187500.02235174447,-187500.02235174447
$SILENCE,9746.79109415902,-13060.906596291852,-8979.947445386344,7303.521907749404,-187500.02235174447,-187500.02235174447,-187500.02235174447,-187500.02235174447
$SILENCE,9802.782214019564,-12898.856448990877,-9006.791890477169,7486.515639605002,-187500.02235174447,-187500.02235174447,-187500.02235174447,-187500.02235174447
$SILENCE,9680.205247426658,-12900.599885058391,-9254.605681253157,7503.43591015767,-187500.02235174447,-187500.02235174447,-187500.02235174447,-187500.02235174447
$SILENCE,9604.544592445445,-13074.049422031572,-9247.006088138352,7299.476242002994,-187500.02235174447,-187500.02235174447,-187500.02235174447,-187500.02235174447
$SILENCE,9721.757140369074,-13075.815209843542,-9010.077596912099,7275.671634158091,-187500.02235174447,-187500.02235174447,-187500.02235174447,-187500.02235174447
$SILENCE,9806.693769299241,-12928.338399927427,-8980.930922142377,7453.18918862214,-187500.02235174447,-187500.02235174447,-187500.02235174447,-187500.02235174447
$SILENCE,9722.271230491548,-12884.238408117106,-9214.216079022417,7518.0315992869855,-187500.02235174447,-187500.02235174447,-187500.02235174447,-187500.02235174447
$SILENCE,9610.28899077046,-13050.20011069776,-9274.051698929274,7325.3819138266945,-187500.02235174447,-187500.02235174447,-187500.02235174447,-187500.02235174447
$SILENCE,9704.367483182847,-13089.941512339296,-9040.677135071413,7262.394697951639,-187500.02235174447,-187500.02235174447,-187500.02235174447,-187500.02235174447
$SILENCE,9807.364321632902,-12948.23145249265,-8958.646232920437,7424.981287119543,-187500.02235174447,-187500.02235174447,-187500.02235174447,-187500.02235174447
$SILENCE,9742.723076668153,-12865.977032897119,-9170.965453501398,7537.9246518522095,-187500.02235174447,-187500.02235174447,-187500.02235174447,-187500.02235174447
$SILENCE,9609.685493670166,-13027.557793564534,-9292.558943338268,7363.961024756554,-187500.02235174447,-187500.02235174447,-187500.02235174447,-187500.02235174447
$SILENCE,9668.694099032176,-13099.709224666265,-9089.51569670626,7251.040011768343,-187500.02235174447,-187500.02235174447,-187500.02235174447,-187500.02235174447
$SILENCE,9793.170963903782,-12982.943711631742,-8952.67831715087,7380.344853442294,-187500.02235174447,-187500.02235174447,-187500.02235174447,-187500.02235174447
$SILENCE,9771.400364804313,-12869.285091076505,-9118.081226120143,7531.889680849276,-187500.02235174447,-187500.02235174447,-187500.02235174447,-187500.02235174447
$SILENCE,9623.029485109984,-12990.453897768724,-9299.331521908227,7401.199031019096,-187500.02235174447,-187500.02235174447,-187500.02235174447,-187500.02235174447
$SILENCE,9644.330697575891,-13104.35838751297,-9131.559328026691,7245.228558209963,-187500.02235174447,-187500.02235174447,-187500.02235174447,-187500.02235174447
$SILENCE,9773.859056694397,-13008.625866010889,-8957.126314297475,7340.625803545214,-187500.02235174447,-187500.02235174447,-187500.02235174447,-187500.02235174447
$SILENCE,9784.654949266309,-12868.860407931854,-9080.530295435226,7515.237631230072,-187500.02235174447,-187500.02235174447,-187500.02235174447,-187500.02235174447
$SILENCE,9629.600897979844,-12967.56571144649,-9306.528783622836,7425.674191197657,-187500.02235174447,-187500.02235174447,-187500.02235174447,-187500.02235174447
$SILENCE,9629.71265670212,-13105.766547413654,-9175.10052622563,7242.658107597603,-187500.02235174447,-187500.02235174447,-187500.02235174447,-187500.02235174447
$SILENCE,9776.630673006854,-13037.794892525066,-8952.924186339878,7320.151605624153,-187500.02235174447,-187500.02235174447,-187500.02235174447,-187500.02235174447
$SILENCE,9815.32154265899,-12887.390004085304,-9025.07561744161,7510.610820127824,-187500.02235174447,-187500.02235174447,-187500.02235174447,-187500.02235174447
$SILENCE,9676.383099124801,-12920.403530645792,-9262.026460412319,7482.939360492153,-187500.02235174447,-187500.02235174447,-187500.02235174447,-187500.02235174447
$SILENCE,9610.80308089293,-13091.997872829184,-9212.852622610644,7273.749384134935,-187500.02235174447,-187500.02235174447,-187500.02235174447,-187500.02235174447
$SILENCE,9729.73671313962,-13067.030974272606,-8995.526611271693,7279.091451059753,-187500.02235174447,-187500.02235174447,-187500.02235174447,-187500.02235174447
$SILENCE,9806.403196621322,-12894.296693121994,-9007.73066374429,7468.589540551847,-187500.02235174447,-187500.02235174447,-187500.02235174447,-187500.02235174447
$SILENCE,9696.410262156756,-12891.681539020723,-9244.770913692822,7500.038445000464,-187500.02235174447,-187500.02235174447,-187500.02235174447,-187500.02235174447
$SILENCE,9604.544592445445,-13077.20101799977,-9255.231530097906,7290.423785498594,-187500.02235174447,-187500.02235174447,-187500.02235174447,-187500.02235174447
$SILENCE,9720.840718846408,-13092.310797251559,-9014.816166736624,7265.814514853301,-187500.02235174447,-187500.02235174447,-187500.02235174447,-187500.02235174447
$SILENCE,9815.94739150374,-12930.014780761574,-8975.58885521756,7439.174644848663,-187500.02235174447,-187500.02235174447,-187500.02235174447,-187500.02235174447
$SILENCE,9738.722114410653,-12877.152905124773,-9203.643703895057,7510.00732302753,-187500.02235174447,-187500.02235174447,-187500.02235174447,-187500.02235174447
$SILENCE,9621.71073218712,-13054.089314232984,-9270.967158194442,7322.476187047504,-187500.02235174447,-187500.02235174447,-187500.02235174447,-187500.02235174447
$SILENCE,9704.523945394034,-13095.820021131041,-9041.437094382894,7250.928253046067,-187500.02235174447,-187500.02235174447,-187500.02235174447,-187500.02235174447
$SILENCE,9805.12914718737,-12961.106057298906,-8959.517950954194,7402.741301386512,-187500.02235174447,-187500.02235174447,-187500.02235174447,-187500.02235174447
não,9746.83579764793,-12870.40267829927,-9167.85856102211,7520.3785324547935,-187500.02235174447,-187500.02235174447,-187500.02235174447,-187500.02235174447
não,9611.227764037581,-13021.992209195163,-9297.252809673882,7361.971719500032,-187500.02235174447,-187500.02235174447,-187500.02235174447,-187500.02235174447
não,9676.941892736184,-13102.68200667882,-9083.905408847977,7247.731953588957,-187500.02235174447,-187500.02235174447,-187500.02235174447,-187500.02235174447
não,9789.706443513209,-12983.547208732034,-8954.600567174026,7367.559655613859,-187500.02235174447,-187500.02235174447,-187500.02235174447,-187500.02235174447
não,9765.119524612372,-12869.061573631952,-9121.27752557725,7518.6797998761895,-187500.02235174447,-187500.02235174447,-187500.02235174447,-187500.02235174447
não,9633.6242119818,-12991.90676115832,-9290.100251448184,7399.969685074054,-187500.02235174447,-187500.02235174447,-187500.02235174447,-187500.02235174447
não,9651.416200568223,-13110.594524216,-9131.738141982334,7234.075037726765,-187500.02235174447,-187500.02235174447,-187500.02235174447,-187500.02235174447
não,9772.137972371338,-13016.493680059157,-8960.456724221316,7331.372181340716,-187500.02235174447,-187500.02235174447,-187500.02235174447,-187500.02235174447
não,9781.056318409004,-12879.946873181687,-9077.646920400492,7506.788671825966,-187500.02235174447,-187500.02235174447,-187500.02235174447,-187500.02235174447
não,9637.871043428308,-12961.150760787817,-9293.989454983408,7428.289345298928,-187500.02235174447,-187500.02235174447,-187500.02235174447,-187500.02235174447
não,9623.09654034335,-13107.219410803249,-9181.694290839945,7244.088619242742,-187500.02235174447,-187500.02235174447,-187500.02235174447,-187500.02235174447
não,9745.673506936253,-13041.10295070445,-8975.365337773006,7305.265343816918,-187500.02235174447,-187500.02235174447,-187500.02235174447,-187500.02235174447
não,9793.327426114969,-12890.07221341994,-9031.490568100282,7488.303779161428,-187500.02235174447,-187500.02235174447,-187500.02235174447,-187500.02235174447
não,9670.459886844146,-12924.136271969828,-9264.999242424876,7475.183305166162,-187500.02235174447,-187500.02235174447,-187500.02235174447,-187500.02235174447
não,9614.111139072316,-13092.73548039621,-9212.517346443814,7275.246951013441,-187500.02235174447,-187500.02235174447,-187500.02235174447,-187500.02235174447
não,9735.235242275625,-13063.6335091154,-8988.105832112531,7284.321759262295,-187500.02235174447,-187500.02235174447,-187500.02235174447,-187500.02235174447
não,9801.798737263529,-12904.757309527078,-8999.169945617909,7465.19207539464,-187500.02235174447,-187500.02235174447,-187500.02235174447,-187500.02235174447
não,9697.617256357344,-12899.236428646616,-9236.053733355253,7492.930590263676,-187500.02235174447,-187500.02235174447,-187500.02235174447,-187500.02235174447
não,9613.552345460934,-13076.351651710469,-9243.094532858675,7293.240105299963,-187500.02235174447,-187500.02235174447,-187500.02235174447,-187500.02235174447
não,9724.729922381632,-13077.580997655512,-9010.681094012392,7261.321814217784,-187500.02235174447,-187500.02235174447,-187500.02235174447,-187500.02235174447
não,9804.011559964605,-12924.739769070122,-8976.170000573398,7419.281592283439,-187500.02235174447,-187500.02235174447,-187500.02235174447,-187500.02235174447
não,9717.040922289005,-12879.097506892385,-9203.800166106244,7505.805195069933,-187500.02235174447,-187500.02235174447,-187500.02235174447,-187500.02235174447
não,9589.054833537917,-13045.86387227343,-9281.941864721997,7331.439236574082,-187500.02235174447,-187500.02235174447,-187500.02235174447,-187500.02235174447
não,9682.306311405458,-13096.64703567589,-9052.612966610548,7249.207168723008,-187500.02235174447,-187500.02235174447,-187500.02235174447,-187500.02235174447
não,9795.383786604856,-12958.446199708726,-8954.86878810749,7398.092138539808,-187500.02235174447,-187500.02235174447,-187500.02235174447,-187500.02235174447
não,9740.68906792272,-12865.798218941478,-9156.615633561092,7518.813910342921,-187500.02235174447,-187500.02235174447,-187500.02235174447,-187500.02235174447
não,9601.817679621898,-13013.319732346503,-9293.944751494499,7361.748202055479,-187500.02235174447,-187500.02235174447,-187500.02235174447,-187500.02235174447
não,9656.490046559578,-13105.095995079995,-9097.718786921358,7234.81264529379,-187500.02235174447,-187500.02235174447,-187500.02235174447,-187500.02235174447
não,9777.636501507342,-12994.432508281769,-8955.025250318677,7361.345870655284,-187500.02235174447,-187500.02235174447,-187500.02235174447,-187500.02235174447
não,9767.779382202552,-12868.279262576016,-9108.648789960002,7518.858613831832,-187500.02235174447,-187500.02235174447,-187500.02235174447,-187500.02235174447
não,9618.536784474467,-12990.09626985744,-9296.671664318046,7393.957065815576,-187500.02235174447,-187500.02235174447,-187500.02235174447,-187500.02235174447
não,9633.579508492889,-13110.058082349073,-9136.208490873396,7230.677572569558,-187500.02235174447,-187500.02235174447,-187500.02235174447,-187500.02235174447
não,9757.564634986476,-13027.803662753542,-8958.847398620534,7320.39747481316,-187500.02235174447,-187500.02235174447,-187500.02235174447,-187500.02235174447
não,9779.581103274955,-12880.416259815247,-9065.55462665017,7502.094805490352,-187500.02235174447,-187500.02235174447,-187500.02235174447,-187500.02235174447
não,9630.38320903578,-12952.500635683613,-9292.335425893716,7430.792740677923,-187500.02235174447,-187500.02235174447,-187500.02235174447,-187500.02235174447
não,9612.85944138282,-13106.30298928058,-9181.806049562223,7250.458866412505,-187500.02235174447,-187500.02235174447,-187500.02235174447,-187500.02235174447
não,9741.717248167664,-13043.405180383346,-8969.285663281164,7297.151660579641,-187500.02235174447,-187500.02235174447,-187500.02235174447,-187500.02235174447
não,9779.849324208419,-12886.607693029368,-9031.110588444542,7480.413613368704,-187500.02235174447,-187500.02235174447,-187500.02235174447,-187500.02235174447
não,9657.026488426505,-12914.659132320778,-9265.379222080615,7470.355328363816,-187500.02235174447,-187500.02235174447,-187500.02235174447,-187500.02235174447
não,9604.097557556339,-13087.169896026839,-9213.25495401084,7267.088564287254,-187500.02235174447,-187500.02235174447,-187500.02235174447,-187500.02235174447
não,9724.014666559062,-13067.6344713729,-8989.82691643559,7275.336357991262,-187500.02235174447,-187500.02235174447,-187500.02235174447,-187500.02235174447
não,9788.208876634702,-12906.143117683307,-8999.885201440478,7455.8713979567765,-187500.02235174447,-187500.02235174447,-187500.02235174447,-187500.02235174447
não,9683.289788161492,-12895.369576855848,-9233.259765298339,7496.439814143159,-187500.02235174447,-187500.02235174447,-187500.02235174447,-187500.02235174447
não,9582.773993345976,-13070.719012107733,-9262.339384834693,7285.193477296052,-187500.02235174447,-187500.02235174447,-187500.02235174447,-187500.02235174447
não,9694.912695278252,-13082.856009346964,-9025.969687219822,7249.140113489642,-187500.02235174447,-187500.02235174447,-187500.02235174447,-187500.02235174447
não,9785.392556833334,-12932.31701044047,-8972.660776693914,7422.5896504628245,-187500.02235174447,-187500.02235174447,-187500.02235174447,-187500.02235174447
não,9703.048730259983,-12868.391021298292,-9200.067424782208,7509.314418949416,-187500.02235174447,-187500.02235174447,-187500.02235174447,-187500.02235174447
não,9586.618493392289,-13033.950392478751,-9282.724175777934,7316.217698600019,-187500.02235174447,-187500.02235174447,-187500.02235174447,-187500.02235174447
não,9672.404488611757,-13091.506134451169,-9056.904501545967,7230.141130702631,-187500.02235174447,-187500.02235174447,-187500.02235174447,-187500.02235174447
não,9784.07380391047,-12964.99526083413,-8956.25459626372,7371.784135315912,-187500.02235174447,-187500.02235174447,-187500.02235174447,-187500.02235174447
não,9737.269251021058,-12860.612614227846,-9150.826531747167,7515.952887052642,-187500.02235174447,-187500.02235174447,-187500.02235174447,-187500.02235174447
não,9603.605819178321,-13000.936865918264,-9292.201315426984,7364.6539288346685,-187500.02235174447,-187500.02235174447,-187500.02235174447,-187500.02235174447
não,9649.605709267344,-13094.903599608375,-9098.769318910756,7229.2917644133295,-187500.02235174447,-187500.02235174447,-187500.02235174447,-187500.02235174447
não,9766.12535311286,-12987.6152262229,-8956.947500341834,7349.320632138328,-187500.02235174447,-187500.02235174447,-187500.02235174447,-187500.02235174447
não,9755.552977985499,-12868.323966064927,-9110.436929516427,7506.162822981218,-187500.02235174447,-187500.02235174447,-187500.02235174447,-187500.02235174447
não,9603.762281389509,-12968.57153994698,-9302.818394043255,7397.220420506052,-187500.02235174447,-187500.02235174447,-187500.02235174447,-187500.02235174447
não,9618.894412385753,-13096.043538575595,-9154.33575562665,7224.150863188608,-187500.02235174447,-187500.02235174447,-187500.02235174447,-187500.02235174447
não,9764.158399600792,-13021.835746983976,-8959.115619553999,7311.657942731135,-187500.02235174447,-187500.02235174447,-187500.02235174447,-187500.02235174447
não,9779.603455019409,-12873.174294611728,-9066.068716772643,7487.543819849947,-187500.02235174447,-187500.02235174447,-187500.02235174447,-187500.02235174447
não,9644.397752809256,-12939.201347732705,-9286.211047912962,7434.212557579584,-187500.02235174447,-187500.02235174447,-187500.02235174447,-187500.02235174447
não,9622.38128452078,-13091.953169340273,-9179.749689072334,7254.5939391367365,-187500.02235174447,-187500.02235174447,-187500.02235174447,-187500.02235174447
não,9731.793073629507,-13046.735590307188,-8978.338119785562,7291.384910510173,-187500.02235174447,-187500.02235174447,-187500.02235174447,-187500.02235174447
não,9783.760879488096,-12887.613521529856,-9025.343838375073,7471.7187847755895,-187500.02235174447,-187500.02235174447,-187500.02235174447,-187500.02235174447
não,9653.740781991575,-12907.84185026191,-9267.100306403674,7469.796534752433,-187500.02235174447,-187500.02235174447,-187500.02235174447,-187500.02235174447
não,9586.082051525362,-13078.184494755806,-9234.44440775447,7266.8650468427,-187500.02235174447,-187500.02235174447,-187500.02235174447,-187500.02235174447
não,9705.485070405612,-13052.323526421014,-9002.67916949739,7265.05455554182,-187500.02235174447,-187500.02235174447,-187500.02235174447,-187500.02235174447
não,9778.17294337427,-12905.874896749843,-9003.483832297783,7441.812150694389,-187500.02235174447,-187500.02235174447,-187500.02235174447,-187500.02235174447
não,9679.19941892617,-12886.495934307091,-9243.429809025503,7480.011281968508,-187500.02235174447,-187500.02235174447,-187500.02235174447,-187500.02235174447
não,9601.392996477247,-13055.96686076723,-9255.097419631174,7289.5744192092925,-187500.02235174447,-187500.02235174447,-187500.02235174447,-187500.02235174447
não,9693.30336967747,-13078.54212266709,-9035.513882102237,7238.09835172872,-187500.02235174447,-187500.02235174447,-187500.02235174447,-187500.02235174447
não,9793.059205181504,-12937.435559920736,-8973.577198216582,7407.390464233215,-187500.02235174447,-187500.02235174447,-187500.02235174447,-187500.02235174447
não,9721.913602580262,-12866.044088130486,-9186.946950786943,7506.00636077003,-187500.02235174447,-187500.02235174447,-187500.02235174447,-187500.02235174447
não,9596.028577807972,-13027.28957263107,-9281.941864721997,7323.414960314627,-187500.02235174447,-187500.02235174447,-187500.02235174447,-187500.02235174447
não,9675.91371249124,-13085.314701237048,-9062.403030681971,7234.678534827058,-187500.02235174447,-187500.02235174447,-187500.02235174447,-187500.02235174447
não,9774.060222394493,-12952.433580450248,-8959.383840487462,7382.870600565744,-187500.02235174447,-187500.02235174447,-187500.02235174447,-187500.02235174447
não,9741.516082467566,-12851.783675167999,-9144.031601432753,7511.43783467267,-187500.02235174447,-187500.02235174447,-187500.02235174447,-187500.02235174447
não,9585.858534080808,-13009.38582532237,-9315.201260471495,7337.742428510479,-187500.02235174447,-187500.02235174447,-187500.02235174447,-187500.02235174447
não,9639.256851584536,-13092.176686784827,-9118.796481942712,7225.134339944642,-187500.02235174447,-187500.02235174447,-187500.02235174447,-187500.02235174447
não,9766.326518812957,-12968.99622309163,-8952.186578772853,7355.623824074724,-187500.02235174447,-187500.02235174447,-187500.02235174447,-187500.02235174447
não,9781.995091676128,-12842.68651517469,-9078.630397156525,7526.972297069108,-187500.02235174447,-187500.02235174447,-187500.02235174447,-187500.02235174447
não,9629.66795321321,-12950.131350771351,-9288.625036314135,7418.096949827308,-187500.02235174447,-187500.02235174447,-187500.02235174447,-187500.02235174447
não,9621.71073218712,-13082.766602369144,-9159.320194640184,7239.215938951485,-187500.02235174447,-187500.02235174447,-187500.02235174447,-187500.02235174447
não,9738.11861731036,-13017.231287626182,-8977.667567451903,7300.213849570018,-187500.02235174447,-187500.02235174447,-187500.02235174447,-187500.02235174447
não,9775.60249276191,-12849.079114088907,-9051.36126892105,7503.324151435394,-187500.02235174447,-187500.02235174447,-187500.02235174447,-187500.02235174447
não,9628.5727177349,-12920.805862045987,-9278.991434453897,7442.303889072406,-187500.02235174447,-187500.02235174447,-187500.02235174447,-187500.02235174447
não,9570.771106573477,-13101.944399111797,-9203.576648661692,7219.613459064181,-187500.02235174447,-187500.02235174447,-187500.02235174447,-187500.02235174447
não,9744.757085413587,-13009.207011366727,-8938.708476866303,7313.736654965479,-187500.02235174447,-187500.02235174447,-187500.02235174447,-187500.02235174447
não,9828.397313165346,-12833.030561569996,-8966.759916157713,7518.210413242628,-187500.02235174447,-187500.02235174447,-187500.02235174447,-187500.02235174447
não,9621.263697298014,-12938.106112254396,-9313.413120915071,7432.871452912266,-187500.02235174447,-187500.02235174447,-187500.02235174447,-187500.02235174447
não,9559.371716901269,-13084.331224481015,-9292.134260193618,7243.954508776011,-187500.02235174447,-187500.02235174447,-187500.02235174447,-187500.02235174447
não,9746.433466247734,-13008.469403799701,-8961.104924810521,7303.119576349209,-187500.02235174447,-187500.02235174447,-187500.02235174447,-187500.02235174447
não,9788.164173145793,-12900.733995525123,-8974.493619739249,7441.432171038648,-187500.02235174447,-187500.02235174447,-187500.02235174447,-187500.02235174447
não,9649.829226711898,-12903.93029498223,-9246.246128826873,7473.551627820925,-187500.02235174447,-187500.02235174447,-187500.02235174447,-187500.02235174447
não,9561.383373902247,-13062.001831770163,-9300.873792275643,7285.148773807142,-187500.02235174447,-187500.02235174447,-187500.02235174447,-187500.02235174447
não,9685.994349240584,-13047.96493625223,-9065.26405397225,7255.778581592868,-187500.02235174447,-187500.02235174447,-187500.02235174447,-187500.02235174447
não,9864.227159527203,-12831.465939458125,-8880.9962726827,7508.86738406031,-187500.02235174447,-187500.02235174447,-187500.02235174447,-187500.02235174447
não,9691.336416165403,-12882.986710427609,-9181.493125139848,7487.990854739053,-187500.02235174447,-187500.02235174447,-187500.02235174447,-187500.02235174447
não,9543.658440549189,-13050.356572908948,-9363.078697094763,7276.409241725117,-187500.02235174447,-187500.02235174447,-187500.02235174447,-187500.02235174447
não,9660.312194861435,-13072.618910386433,-9065.688737116901,7238.43362789555,-187500.02235174447,-187500.02235174447,-187500.02235174447,-187500.02235174447
não,9822.116472973405,-12909.674693307245,-8858.555121249572,7444.561415262391,-187500.02235174447,-187500.02235174447,-187500.02235174447,-187500.02235174447
não,9650.544482534468,-12916.60373408839,-9268.687280260001,7442.482703028048,-187500.02235174447,-187500.02235174447,-187500.02235174447,-187500.02235174447
não,9593.726348129076,-13001.47330778519,-9278.11971642014,7366.6432340911915,-187500.02235174447,-187500.02235174447,-187500.02235174447,-187500.02235174447
não,9650.723296490109,-13098.368119998948,-9028.249565154263,7260.383040950661,-187500.02235174447,-187500.02235174447,-187500.02235174447,-187500.02235174447
não,9706.222677972637,-13048.881357774897,-9016.961934204333,7300.794994925856,-187500.02235174447,-187500.02235174447,-187500.02235174447,-187500.02235174447
não,9730.519024195555,-12868.25691083156,-9164.259930164806,7479.854819757322,-187500.02235174447,-187500.02235174447,-187500.02235174447,-187500.02235174447
não,9695.806765056464,-12882.405565071771,-9213.97020983341,7458.0395171689415,-187500.02235174447,-187500.02235174447,-187500.02235174447,-187500.02235174447
não,9555.102533710306,-13146.826701978052,-9245.240300326384,7144.466894205439,-187500.02235174447,-187500.02235174447,-187500.02235174447,-187500.02235174447
não,9687.178991696715,-13106.325341025036,-8973.979529616778,7242.456941897505,-187500.02235174447,-187500.02235174447,-187500.02235174447,-187500.02235174447
não,9811.477042612678,-12885.512457551058,-8970.090326081554,7515.550555652447,-187500.02235174447,-187500.02235174447,-187500.02235174447,-187500.02235174447
não,9671.689232789187,-12919.442405634214,-9323.94079255352,7410.698522412601,-187500.02235174447,-187500.02235174447,-187500.02235174447,-187500.02235174447
não,9537.154082912693,-13207.914019574408,-9272.934111706509,7116.795434569769,-187500.02235174447,-187500.02235174447,-187500.02235174447,-187500.02235174447
não,9763.063164122483,-13101.11738456695,-8913.47335737626,7231.258717925396,-187500.02235174447,-187500.02235174447,-187500.02235174447,-187500.02235174447
não,9743.706553424186,-12975.791153406044,-9076.842257600101,7360.563559599347,-187500.02235174447,-187500.02235174447,-187500.02235174447,-187500.02235174447
não,9720.952477568684,-12948.522025170569,-9146.847921234123,7431.7985691784115,-187500.02235174447,-187500.02235174447,-187500.02235174447,-187500.02235174447
não,9574.034461263951,-13160.483617840246,-9360.284729037849,7154.636937932603,-187500.02235174447,-187500.02235174447,-187500.02235174447,-187500.02235174447
não,9611.250115782037,-13213.345493477047,-9200.782680604778,7065.297015344741,-187500.02235174447,-187500.02235174447,-187500.02235174447,-187500.02235174447
não,9752.155512828293,-13021.992209195163,-9069.60029239658,7300.772643181401,-187500.02235174447,-187500.02235174447,-187500.02235174447,-187500.02235174447
não,9678.43945961469,-12986.743508189144,-9278.902027476077,7360.74237355499,-187500.02235174447,-187500.02235174447,-187500.02235174447,-187500.02235174447
não,9573.498019397024,-13182.701251828821,-9300.359702153171,7184.632978991625,-187500.02235174447,-187500.02235174447,-187500.02235174447,-187500.02235174447
não,9730.809596873474,-13168.105562699506,-9006.702483499346,7178.7544701998795,-187500.02235174447,-187500.02235174447,-187500.02235174447,-187500.02235174447
não,9844.177644750793,-12986.251769811126,-8976.438221506862,7345.610242558747,-187500.02235174447,-187500.02235174447,-187500.02235174447,-187500.02235174447
não,9741.985469101128,-12940.296583211015,-9226.82246289521,7404.216516520562,-187500.02235174447,-187500.02235174447,-187500.02235174447,-187500.02235174447
não,9557.047135477917,-13176.621577336977,-9380.937740914553,7185.66115923657,-187500.02235174447,-187500.02235174447,-187500.02235174447,-187500.02235174447
não,9653.472561058112,-13219.939258091363,-9147.71963926788,7098.601114583149,-187500.02235174447,-187500.02235174447,-187500.02235174447,-187500.02235174447
não,9777.547094529522,-13082.498381435678,-9022.102835429054,7225.8272440227565,-187500.02235174447,-187500.02235174447,-187500.02235174447,-187500.02235174447
não,9768.829914191952,-12966.738696901644,-9178.118011727096,7390.55960065837,-187500.02235174447,-187500.02235174447,-187500.02235174447,-187500.02235174447
não,9620.280220541981,-13099.552762455078,-9305.277085933338,7278.82323012629,-187500.02235174447,-187500.02235174447,-187500.02235174447,-187500.02235174447
não,9656.378287837302,-13180.153152960916,-9094.075452575142,7122.025742772311,-187500.02235174447,-187500.02235174447,-187500.02235174447,-187500.02235174447
não,9711.564744897454,-13105.677140435833,-9040.40891413795,7179.670891722548,-187500.02235174447,-187500.02235174447,-187500.02235174447,-187500.02235174447
não,9685.256741673558,-13005.183697364771,-9206.705892885435,7322.16326262513,-187500.02235174447,-187500.02235174447,-187500.02235174447,-187500.02235174447
não,9578.32599619937,-13089.606236172467,-9368.309005297304,7242.367534919684,-187500.02235174447,-187500.02235174447,-187500.02235174447,-187500.02235174447
não,9582.684586368154,-13212.116147532004,-9220.563974447725,7089.906285990034,-187500.02235174447,-187500.02235174447,-187500.02235174447,-187500.02235174447
não,9689.749442309076,-13147.988992689729,-9036.184434435896,7137.291984235286,-187500.02235174447,-187500.02235174447,-187500.02235174447,-187500.02235174447
não,9718.337323467413,-13020.204069638738,-9112.873269662055,7305.712378706024,-187500.02235174447,-187500.02235174447,-187500.02235174447,-187500.02235174447
não,9550.095742952317,-13061.644203858878,-9361.670537194079,7270.173105022086,-187500.02235174447,-187500.02235174447,-187500.02235174447,-187500.02235174447
não,9522.245469361003,-13214.485432444268,-9274.230512884917,7076.718756761403,-187500.02235174447,-187500.02235174447,-187500.02235174447,-187500.02235174447
não,9659.418125083224,-13173.738202302242,-9047.06973398563,7108.50293737685,-187500.02235174447,-187500.02235174447,-187500.02235174447,-187500.02235174447
não,9700.813555814453,-13030.195299410261,-9092.443775229905,7270.933064333566,-187500.02235174447,-187500.02235174447,-187500.02235174447,-187500.02235174447
não,9590.127717271771,-13053.15054096586,-9330.579260656747,7282.332454005773,-187500.02235174447,-187500.02235174447,-187500.02235174447,-187500.02235174447
não,9535.500053823002,-13214.798356866642,-9293.475364860937,7089.9733412234,-187500.02235174447,-187500.02235174447,-187500.02235174447,-187500.02235174447
não,9651.125627890306,-13202.460193927313,-9067.856856329066,7064.022965910789,-187500.02235174447,-187500.02235174447,-187500.02235174447,-187500.02235174447
não,9710.558916396967,-13072.954186553263,-9053.12705673302,7204.704845512491,-187500.02235174447,-187500.02235174447,-187500.02235174447,-187500.02235174447
não,9629.444435768657,-13054.335183421992,-9270.140143649596,7259.19839849453,-187500.02235174447,-187500.02235174447,-187500.02235174447,-187500.02235174447
não,9543.725495782553,-13229.148176806948,-9299.487984119414,7076.025852683289,-187500.02235174447,-187500.02235174447,-187500.02235174447,-187500.02235174447
não,9638.787464950976,-13234.602002454043,-9076.819905855646,7055.39519255104,-187500.02235174447,-187500.02235174447,-187500.02235174447,-187500.02235174447
não,9726.383951471324,-13069.355555695958,-9012.44688182436,7146.322088995229,-187500.02235174447,-187500.02235174447,-187500.02235174447,-187500.02235174447
não,9659.440476827678,-13016.136052147873,-9232.566861220224,7200.972104188455,-187500.02235174447,-187500.02235174447,-187500.02235174447,-187500.02235174447
não,9556.22012093307,-13189.406775165413,-9319.291629706817,7064.939387433456,-187500.02235174447,-187500.02235174447,-187500.02235174447,-187500.02235174447
não,9631.76901719201,-13238.893537389462,-9082.56430418066,6942.1389033959995,-187500.02235174447,-187500.02235174447,-187500.02235174447,-187500.02235174447
não,9751.842588405918,-13165.244539409226,-8940.049581533622,7106.848908287157,-187500.02235174447,-187500.02235174447,-187500.02235174447,-187500.02235174447
não,9720.192518257203,-13068.416782428836,-9119.310572065184,7258.393735694139,-187500.02235174447,-187500.02235174447,-187500.02235174447,-187500.02235174447
não,9582.438717179146,-13144.345658343515,-9302.952504509987,7121.802225327758,-187500.02235174447,-187500.02235174447,-187500.02235174447,-187500.02235174447
não,9598.777842375976,-13262.496979534268,-9176.039299492753,6958.746249526293,-187500.02235174447,-187500.02235174447,-187500.02235174447,-187500.02235174447
não,9719.030227545527,-13167.882045254952,-9018.258335382741,7054.523474517283,-187500.02235174447,-187500.02235174447,-187500.02235174447,-187500.02235174447
não,9752.826065161951,-13013.900877702341,-9078.22806575633,7239.819436051779,-187500.02235174447,-187500.02235174447,-187500.02235174447,-187500.02235174447
não,9640.95558416314,-13065.734573094198,-9207.331741730182,7149.943071596989,-187500.02235174447,-187500.02235174447,-187500.02235174447,-187500.02235174447
não,9585.657368380711,-13230.086950074072,-9182.208380962418,6962.166066427954,-187500.02235174447,-187500.02235174447,-187500.02235174447,-187500.02235174447
não,9704.881573305318,-13165.401001620414,-9008.803547478146,7038.854901654113,-187500.02235174447,-187500.02235174447,-187500.02235174447,-187500.02235174447
não,9774.730774728152,-13013.543249791057,-8998.342931073063,7262.931139818566,-187500.02235174447,-187500.02235174447,-187500.02235174447,-187500.02235174447
não,9651.840883712875,-13051.54121536508,-9245.597928237668,7228.196528935019,-187500.02235174447,-187500.02235174447,-187500.02235174447,-187500.02235174447
não,9604.745758145542,-13207.154060262927,-9200.849735838145,7010.468186195873,-187500.02235174447,-187500.02235174447,-187500.02235174447,-187500.02235174447
não,9730.094341050904,-13177.068612226083,-8960.210855032308,7048.533207003261,-187500.02235174447,-187500.02235174447,-187500.02235174447,-187500.02235174447
não,9811.253525168124,-12983.167229076294,-8979.902741897433,7250.995308279433,-187500.02235174447,-187500.02235174447,-187500.02235174447,-187500.02235174447
não,9665.140171663783,-13011.15161313434,-9230.175224563507,7250.324755945773,-187500.02235174447,-187500.02235174447,-187500.02235174447,-187500.02235174447
não,9578.527161899467,-13167.971452232774,-9203.666055639513,7062.860675199113,-187500.02235174447,-187500.02235174447,-187500.02235174447,-187500.02235174447
não,9718.11380602286,-13149.374800845957,-8954.9134915964,7051.327175060174,-187500.02235174447,-187500.02235174447,-187500.02235174447,-187500.02235174447
não,9792.32159761448,-13017.767729493109,-8943.089418779542,7213.377322361151,-187500.02235174447,-187500.02235174447,-187500.02235174447,-187500.02235174447
não,9710.916544308251,-12960.390801476336,-9141.170578142473,7319.324591079306,-187500.02235174447,-187500.02235174447,-187500.02235174447,-187500.02235174447
não,9619.699075186143,-13115.35544578498,-9153.218168403884,7134.207443500453,-187500.02235174447,-187500.02235174447,-187500.02235174447,-187500.02235174447
não,9712.54822165349,-13126.307800568082,-9004.512012542727,7064.5817595221715,-187500.02235174447,-187500.02235174447,-187500.02235174447,-187500.02235174447
não,9796.233152894158,-13010.011674167119,-8965.530570212672,7197.507583797883,-187500.02235174447,-187500.02235174447,-187500.02235174447,-187500.02235174447
não,9718.4937856786,-12981.937883131253,-9163.879950509066,7298.135137335675,-187500.02235174447,-187500.02235174447,-187500.02235174447,-187500.02235174447
não,9603.851688367331,-13087.818096616042,-9224.140253560574,7163.1976560589865,-187500.02235174447,-187500.02235174447,-187500.02235174447,-187500.02235174447
não,9662.860293729342,-13164.752801031209,-8993.157326359431,7054.232901839364,-187500.02235174447,-187500.02235174447,-187500.02235174447,-187500.02235174447
não,9769.03107989205,-13057.799703812565,-8918.994238256722,7183.023653390844,-187500.02235174447,-187500.02235174447,-187500.02235174447,-187500.02235174447
não,9752.468437250667,-12924.762120814577,-9095.863592131567,7325.314858593329,-187500.02235174447,-187500.02235174447,-187500.02235174447,-187500.02235174447
não,9606.243325024048,-13050.49068337568,-9253.555149263759,7190.623246505648,-187500.02235174447,-187500.02235174447,-187500.02235174447,-187500.02235174447
não,9628.416255523713,-13161.243577151727,-9090.27565601774,7041.58181447766,-187500.02235174447,-187500.02235174447,-187500.02235174447,-187500.02235174447
não,9802.044606452539,-13021.992209195163,-8862.153752106877,7190.064452894266,-187500.02235174447,-187500.02235174447,-187500.02235174447,-187500.02235174447
não,9827.95027827624,-12880.080983648419,-8967.765744658202,7379.719004597546,-187500.02235174447,-187500.02235174447,-187500.02235174447,-187500.02235174447
não,9586.014996291995,-13051.20593919825,-9282.053623444275,7211.075092682254,-187500.02235174447,-187500.02235174447,-187500.02235174447,-187500.02235174447
não,9596.90029584173,-13163.210530663793,-9148.770171257278,7039.972488876879,-187500.02235174447,-187500.02235174447,-187500.02235174447,-187500.02235174447
não,9745.718210425164,-13079.547951167579,-8918.86012778999,7125.60202188516,-187500.02235174447,-187500.02235174447,-187500.02235174447,-187500.02235174447
não,9805.375016376378,-12913.586248586924,-8971.520837726694,7325.516024293426,-187500.02235174447,-187500.02235174447,-187500.02235174447,-187500.02235174447
não,9678.618273570333,-12974.42769699427,-9209.052826053241,7296.34699777925,-187500.02235174447,-187500.02235174447,-187500.02235174447,-187500.02235174447
não,9622.09071184286,-13143.518643798667,-9143.405752588005,7086.8888004885675,-187500.02235174447,-187500.02235174447,-187500.02235174447,-187500.02235174447
não,9747.774570915053,-13092.780183885121,-8902.431595615339,7120.975210782911,-187500.02235174447,-187500.02235174447,-187500.02235174447,-187500.02235174447
não,9832.46533065621,-12919.397702145303,-8918.278982434153,7310.696817719558,-187500.02235174447,-187500.02235174447,-187500.02235174447,-187500.02235174447
não,9676.29369214698,-12969.040926580541,-9222.240355281872,7291.429613999083,-187500.02235174447,-187500.02235174447,-187500.02235174447,-187500.02235174447
não,9581.723461356576,-13124.743178456209,-9209.231640008884,7097.192954682464,-187500.02235174447,-187500.02235174447,-187500.02235174447,-187500.02235174447
não,9707.988465784605,-13110.527468982635,-8958.713288153802,7082.418451597507,-187500.02235174447,-187500.02235174447,-187500.02235174447,-187500.02235174447
não,9803.31865588649,-12980.350909274926,-8911.662866075381,7254.392773436639,-187500.02235174447,-187500.02235174447,-187500.02235174447,-187500.02235174447
não,9721.310105479968,-12919.88944052332,-9151.072400936175,7330.4334080735935,-187500.02235174447,-187500.02235174447,-187500.02235174447,-187500.02235174447
não,9649.404543567247,-13033.86098550093,-9188.846849065643,7188.209258104474,-187500.02235174447,-187500.02235174447,-187500.02235174447,-187500.02235174447
não,9663.19556989617,-13166.22801616526,-9024.516823830227,7049.270814570286,-187500.02235174447,-187500.02235174447,-187500.02235174447,-187500.02235174447
não,9777.100059640416,-13040.857081515442,-8917.04963648911,7185.996435403399,-187500.02235174447,-187500.02235174447,-187500.02235174447,-187500.02235174447
não,9759.68805070973,-12918.481280622636,-9107.531202737237,7337.429504088105,-187500.02235174447,-187500.02235174447,-187500.02235174447,-187500.02235174447
não,9620.257868797526,-13075.167009254339,-9239.898233401565,7171.08782185171,-187500.02235174447,-187500.02235174447,-187500.02235174447,-187500.02235174447
não,9672.292729889481,-13161.847074252019,-9036.184434435896,7048.10852385861,-187500.02235174447,-187500.02235174447,-187500.02235174447,-187500.02235174447
não,9793.573295303977,-13032.050494200052,-8897.245990901709,7181.5707900012485,-187500.02235174447,-187500.02235174447,-187500.02235174447,-187500.02235174447
não,9770.796867704019,-12907.059539205973,-9069.8908650745,7339.485864577993,-187500.02235174447,-187500.02235174447,-187500.02235174447,-187500.02235174447
não,9623.208299065625,-13016.448976570247,-9251.20821609595,7210.9186304710665,-187500.02235174447,-187500.02235174447,-187500.02235174447,-187500.02235174447
não,9637.088732372373,-13163.03171670815,-9087.414632727461,7036.060933597199,-187500.02235174447,-187500.02235174447,-187500.02235174447,-187500.02235174447
não,9755.776495430053,-13080.77729711262,-8913.47335737626,7135.012106300844,-187500.02235174447,-187500.02235174447,-187500.02235174447,-187500.02235174447
não,9779.670510252776,-12923.152795213795,-9014.726759758802,7315.6365532441805,-187500.02235174447,-187500.02235174447,-187500.02235174447,-187500.02235174447
não,9643.48133128659,-13002.680301985778,-9215.937163345476,7252.001136779922,-187500.02235174447,-187500.02235174447,-187500.02235174447,-187500.02235174447
não,9606.332732001869,-13167.814990021587,-9146.646755534024,7049.404925037018,-187500.02235174447,-187500.02235174447,-187500.02235174447,-187500.02235174447
não,9741.940765612217,-13109.722806182242,-8936.272136720674,7097.707044804936,-187500.02235174447,-187500.02235174447,-187500.02235174447,-187500.02235174447
não,9790.309940613502,-12955.6075281629,-9001.963913674821,7285.081718573776,-187500.02235174447,-187500.02235174447,-187500.02235174447,-187500.02235174447
não,9657.04884017096,-12991.19150533575,-9229.750541418856,7267.803820109823,-187500.02235174447,-187500.02235174447,-187500.02235174447,-187500.02235174447
$SILENCE,9603.292894755949,-13158.22609165026,-9174.407622147515,7064.514704288806,-187500.02235174447,-187500.02235174447,-187500.02235174447,-187500.02235174447
$SILENCE,9739.88440512233,-13120.004608631685,-8932.405284929906,7082.709024275426,-187500.02235174447,-187500.02235174447,-187500.02235174447,-187500.02235174447
$SILENCE,9811.27587691258,-12959.452028209214,-8932.606450630004,7270.687195144558,-187500.02235174447,-187500.02235174447,-187500.02235174447,-187500.02235174447
$SILENCE,9680.853448015863,-12969.33149925846,-9194.188915990462,7286.333416263273,-187500.02235174447,-187500.02235174447,-187500.02235174447,-187500.02235174447
$SILENCE,9588.89837132673,-13139.294164096615,-9212.53969818827,7091.180335423986,-187500.02235174447,-187500.02235174447,-187500.02235174447,-187500.02235174447
$SILENCE,9713.263477476059,-13136.053161150594,-8971.923169126889,7064.872332200091,-187500.02235174447,-187500.02235174447,-187500.02235174447,-187500.02235174447
$SILENCE,9799.563562817999,-13000.132203117873,-8932.91937505238,7225.939002745034,-187500.02235174447,-187500.02235174447,-187500.02235174447,-187500.02235174447
$SILENCE,9716.146852510792,-12962.223644521671,-9157.263834150295,7308.327532807295,-187500.02235174447,-187500.02235174447,-187500.02235174447,-187500.02235174447
$SILENCE,9615.072264083894,-13108.158184070371,-9223.53675646028,7131.45817893245,-187500.02235174447,-187500.02235174447,-187500.02235174447,-187500.02235174447
$SILENCE,9696.767890068042,-13151.788789247132,-9003.819108464611,7046.767419191292,-187500.02235174447,-187500.02235174447,-187500.02235174447,-187500.02235174447
$SILENCE,9802.379882619367,-13038.331334391993,-8915.52971786615,7189.706824982981,-187500.02235174447,-187500.02235174447,-187500.02235174447,-187500.02235174447
$SILENCE,9769.053431636505,-12940.855376822397,-9093.471955474848,7333.249727874962,-187500.02235174447,-187500.02235174447,-187500.02235174447,-187500.02235174447
$SILENCE,9622.00130486504,-13076.932797066307,-9239.384143279094,7166.08103109372,-187500.02235174447,-187500.02235174447,-187500.02235174447,-187500.02235174447
$SILENCE,9688.430689386212,-13153.062838681084,-9023.779216263201,7045.850997668625,-187500.02235174447,-187500.02235174447,-187500.02235174447,-187500.02235174447
$SILENCE,9807.453728610722,-13052.994078754673,-8894.072043189055,7171.981891629922,-187500.02235174447,-187500.02235174447,-187500.02235174447,-187500.02235174447
$SILENCE,9795.450841838223,-12939.000182032607,-9044.49928337327,7335.26138487594,-187500.02235174447,-187500.02235174447,-187500.02235174447,-187500.02235174447
$SILENCE,9662.949700707162,-13029.01065695413,-9212.673808655001,7232.018677236877,-187500.02235174447,-187500.02235174447,-187500.02235174447,-187500.02235174447
$SILENCE,9671.286901388992,-13148.771303745665,-9075.32233897714,7064.715869988903,-187500.02235174447,-187500.02235174447,-187500.02235174447,-187500.02235174447
$SILENCE,9766.304167068502,-13103.620779945944,-8924.202194714808,7120.88580380509,-187500.02235174447,-187500.02235174447,-187500.02235174447,-187500.02235174447
$SILENCE,9793.372129603878,-12973.935958616252,-9025.83557675309,7302.404320526639,-187500.02235174447,-187500.02235174447,-187500.02235174447,-187500.02235174447
$SILENCE,9664.357860607846,-13025.210860396726,-9227.8282913957,7243.4404186535385,-187500.02235174447,-187500.02235174447,-187500.02235174447,-187500.02235174447
$SILENCE,9645.135360376282,-13167.345603388025,-9104.893696891511,7070.482620058373,-187500.02235174447,-187500.02235174447,-187500.02235174447,-187500.02235174447
$SILENCE,9786.286626611547,-13101.832640389519,-8893.066214688566,7122.584536383693,-187500.02235174447,-187500.02235174447,-187500.02235174447,-187500.02235174447
$SILENCE,9825.983324764173,-12961.776609632565,-8974.940654628355,7304.840660672267,-187500.02235174447,-187500.02235174447,-187500.02235174447,-187500.02235174447
$SILENCE,9699.785375569509,-12989.783345435066,-9201.944971316454,7294.9164861341105,-187500.02235174447,-187500.02235174447,-187500.02235174447,-187500.02235174447
$SILENCE,9640.95558416314,-13138.735370485232,-9154.961604471398,7096.768271537813,-187500.02235174447,-187500.02235174447,-187500.02235174447,-187500.02235174447
$SILENCE,9750.345021527413,-13138.333039085037,-8936.942689054333,7090.442727856962,-187500.02235174447,-187500.02235174447,-187500.02235174447,-187500.02235174447
$SILENCE,9834.544042890555,-12976.729926673166,-8925.565651126582,7293.843602400256,-187500.02235174447,-187500.02235174447,-187500.02235174447,-187500.02235174447
$SILENCE,9747.573405214955,-12940.31893495547,-9146.199720644918,7350.54997808337,-187500.02235174447,-187500.02235174447,-187500.02235174447,-187500.02235174447
$SILENCE,9611.741854160055,-13152.593452047522,-9209.410453964527,7103.563201852227,-187500.02235174447,-187500.02235174447,-187500.02235174447,-187500.02235174447
$SILENCE,9730.317858495458,-13158.784885261643,-8961.171980043886,7079.043338184755,-187500.02235174447,-187500.02235174447,-187500.02235174447,-187500.02235174447
$SILENCE,9837.248603969647,-13004.870772942397,-8895.927237978845,7263.0428985408425,-187500.02235174447,-187500.02235174447,-187500.02235174447,-187500.02235174447
$SILENCE,9765.387745545835,-12939.51427215508,-9113.61087722908,7351.086419950298,-187500.02235174447,-187500.02235174447,-187500.02235174447,-187500.02235174447
$SILENCE,9629.645601468756,-13100.715053166754,-9217.390026735071,7149.2278157744195,-187500.02235174447,-187500.02235174447,-187500.02235174447,-187500.02235174447
$SILENCE,9708.21198322916,-13156.572062560566,-8998.96877991781,7059.284396086264,-187500.02235174447,-187500.02235174447,-187500.02235174447,-187500.02235174447
$SILENCE,9831.95124053374,-13019.824089982998,-8891.0992611765,7205.375397846151,-187500.02235174447,-187500.02235174447,-187500.02235174447,-187500.02235174447
$SILENCE,9771.445068293222,-12939.737789599632,-9093.114327563564,7323.012628914432,-187500.02235174447,-187500.02235174447,-187500.02235174447,-187500.02235174447
$SILENCE,9639.14509286226,-13060.526616636113,-9225.704875672445,7173.032423619321,-187500.02235174447,-187500.02235174447,-187500.02235174447,-187500.02235174447
$SILENCE,9705.552125638977,-13144.636231021434,-9014.145614402963,7057.585663507661,-187500.02235174447,-187500.02235174447,-187500.02235174447,-187500.02235174447
$SILENCE,9811.834670523962,-13060.280747447105,-8896.843659501512,7151.977080342422,-187500.02235174447,-187500.02235174447,-187500.02235174447,-187500.02235174447
$SILENCE,9789.572333046477,-12948.097342025918,-9063.140638248997,7291.4519657435385,-187500.02235174447,-187500.02235174447,-187500.02235174447,-187500.02235174447
$SILENCE,9642.85548244184,-13047.54025310758,-9245.128541604106,7185.147069114098,-187500.02235174447,-187500.02235174447,-187500.02235174447,-187500.02235174447
$SILENCE,9648.19754936666,-13159.924824228863,-9084.441850714904,7026.293221270231,-187500.02235174447,-187500.02235174447,-187500.02235174447,-187500.02235174447
$SILENCE,9792.098080169926,-13061.48774164769,-8876.347109835997,7126.250222474364,-187500.02235174447,-187500.02235174447,-187500.02235174447,-187500.02235174447
$SILENCE,9798.021292450583,-12939.983658788642,-8999.728739229291,7284.768794151401,-187500.02235174447,-187500.02235174447,-187500.02235174447,-187500.02235174447
$SILENCE,9661.072154172916,-13008.938790433263,-9220.921602359009,7233.963279004488,-187500.02235174447,-187500.02235174447,-187500.02235174447,-187500.02235174447
$SILENCE,9628.729179946087,-13153.643984036922,-9135.13560713954,7039.279584798764,-187500.02235174447,-187500.02235174447,-187500.02235174447,-187500.02235174447
$SILENCE,9766.88531242434,-13104.961884613263,-8918.703665578803,7079.713890518415,-187500.02235174447,-187500.02235174447,-187500.02235174447,-187500.02235174447
$SILENCE,9810.918249001295,-12950.265461238083,-8971.364375515506,7262.260587484907,-187500.02235174447,-187500.02235174447,-187500.02235174447,-187500.02235174447
$SILENCE,9685.547314351477,-12963.676507911267,-9211.8244423657,7260.830075839767,-187500.02235174447,-187500.02235174447,-187500.02235174447,-187500.02235174447
$SILENCE,9613.172365805194,-13137.327210584548,-9176.8663140376,7049.248462825831,-187500.02235174447,-187500.02235174447,-187500.02235174447,-187500.02235174447
$SILENCE,9748.333364526436,-13100.513887466657,-8917.831947545046,7076.316425361208,-187500.02235174447,-187500.02235174447,-187500.02235174447,-187500.02235174447
$SILENCE,9834.745208590652,-12944.878690824353,-8890.004025698188,7271.603616667226,-187500.02235174447,-187500.02235174447,-187500.02235174447,-187500.02235174447
$SILENCE,9688.162468452749,-12965.017612578586,-9179.794392561245,7266.194494509041,-187500.02235174447,-187500.02235174447,-187500.02235174447,-187500.02235174447
$SILENCE,9582.03638577895,-13136.589603017523,-9233.952669376453,7061.117239131599,-187500.02235174447,-187500.02235174447,-187500.02235174447,-187500.02235174447
$SILENCE,9693.415128399745,-13153.308707870092,-8995.794832205156,7026.561442203694,-187500.02235174447,-187500.02235174447,-187500.02235174447,-187500.02235174447
$SILENCE,9795.763766260598,-13003.887296186364,-8923.86691854798,7198.245191364907,-187500.02235174447,-187500.02235174447,-187500.02235174447,-187500.02235174447
$SILENCE,9747.126370325848,-12934.351019185904,-9122.931554666944,7299.655055958636,-187500.02235174447,-187500.02235174447,-187500.02235174447,-187500.02235174447
$SILENCE,9615.966333862107,-13088.555704183067,-9216.54066044577,7118.650629359559,-187500.02235174447,-187500.02235174447,-187500.02235174447,-187500.02235174447
$SILENCE,9684.094450961882,-13142.557518787089,-9004.176736375897,7027.455511981906,-187500.02235174447,-187500.02235174447,-187500.02235174447,-187500.02235174447
$SILENCE,9796.479022083167,-13026.730779019688,-8882.739708750214,7171.08782185171,-187500.02235174447,-187500.02235174447,-187500.02235174447,-187500.02235174447
$SILENCE,9756.02236461906,-12930.506519139592,-9080.820868113145,7304.974771138999,-187500.02235174447,-187500.02235174447,-187500.02235174447,-187500.02235174447
$SILENCE,9623.744740932554,-13059.833712557998,-9241.462855513437,7151.775914642324,-187500.02235174447,-187500.02235174447,-187500.02235174447,-187500.02235174447
$SILENCE,9668.939968221184,-13149.643021779422,-9052.054172999166,7021.331134001152,-187500.02235174447,-187500.02235174447,-187500.02235174447,-187500.02235174447
$SILENCE,9790.578161546966,-13039.761846037132,-8892.61917979946,7135.101513278665,-187500.02235174447,-187500.02235174447,-187500.02235174447,-187500.02235174447
$SILENCE,9777.50239104061,-12926.684370837733,-9051.964766021343,7289.596770953748,-187500.02235174447,-187500.02235174447,-187500.02235174447,-187500.02235174447
$SILENCE,9622.515394987511,-13032.832805255986,-9255.231530097906,7177.770993443846,-187500.02235174447,-187500.02235174447,-187500.02235174447,-187500.02235174447
$SILENCE,9626.024618866995,-13162.65173705241,-9105.810118414178,7003.114462270077,-187500.02235174447,-187500.02235174447,-187500.02235174447,-187500.02235174447
$SILENCE,9776.36245207339,-13086.655805904365,-8891.881572232434,7086.821745255202,-187500.02235174447,-187500.02235174447,-187500.02235174447,-187500.02235174447
$SILENCE,9826.922098031295,-12907.774795028543,-8970.403250503929,7305.354750794739,-187500.02235174447,-187500.02235174447,-187500.02235174447,-187500.02235174447
$SILENCE,9649.583357522888,-13003.686130486267,-9251.252919584862,7207.565868802771,-187500.02235174447,-187500.02235174447,-187500.02235174447,-187500.02235174447
$SILENCE,9593.793403362442,-13169.312556900091,-9181.96251177341,6993.3243981986525,-187500.02235174447,-187500.02235174447,-187500.02235174447,-187500.02235174447
$SILENCE,9740.5996609449,-13099.485707221713,-8939.379029199961,7054.501122772828,-187500.02235174447,-187500.02235174447,-187500.02235174447,-187500.02235174447
$SILENCE,9791.226362136169,-12957.440371208237,-8971.565541215605,7246.748476832924,-187500.02235174447,-187500.02235174447,-187500.02235174447,-187500.02235174447
$SILENCE,9686.977825996617,-12972.863074882398,-9179.43676464996,7259.444267683539,-187500.02235174447,-187500.02235174447,-187500.02235174447,-187500.02235174447
$SILENCE,9629.779711935487,-13130.442873292313,-9166.785677288255,7044.018154623289,-187500.02235174447,-187500.02235174447,-187500.02235174447,-187500.02235174447
$SILENCE,9740.018515589061,-13118.730559197731,-8959.763820143202,7033.378724262563,-187500.02235174447,-187500.02235174447,-187500.02235174447,-187500.02235174447
$SILENCE,9808.683074555764,-12979.47919124117,-8958.221549775786,7204.391921090117,-187500.02235174447,-187500.02235174447,-187500.02235174447,-187500.02235174447
$SILENCE,9714.626933887832,-12954.579347917957,-9188.064538009708,7251.822322824279,-187500.02235174447,-187500.02235174447,-187500.02235174447,-187500.02235174447
$SILENCE,9624.99643862205,-13093.07075656304,-9201.63204689408,7080.83147774118,-187500.02235174447,-187500.02235174447,-187500.02235174447,-187500.02235174447
$SILENCE,9709.01664602955,-13129.347637814002,-8981.713233198314,7020.86174736759,-187500.02235174447,-187500.02235174447,-187500.02235174447,-187500.02235174447
$SILENCE,9782.643292265331,-13023.087444673472,-8950.376087471974,7154.234606532408,-187500.02235174447,-187500.02235174447,-187500.02235174447,-187500.02235174447
$SILENCE,9737.291602765514,-12940.922432055764,-9142.086999665142,7266.48506718696,-187500.02235174447,-187500.02235174447,-187500.02235174447,-187500.02235174447
$SILENCE,9620.86136589782,-13089.338015239004,-9254.44921904197,7082.217285897409,-187500.02235174447,-187500.02235174447,-187500.02235174447,-187500.02235174447
$SILENCE,9706.893230306296,-13140.523510041656,-9029.188338421385,6994.665502865971,-187500.02235174447,-187500.02235174447,-187500.02235174447,-187500.02235174447
$SILENCE,9824.396350907846,-13012.827993968487,-8903.079796204544,7150.032478574811,-187500.02235174447,-187500.02235174447,-187500.02235174447,-187500.02235174447
$SILENCE,9788.253580123614,-12922.146966713306,-9089.60510368408,7278.376195237183,-187500.02235174447,-187500.02235174447,-187500.02235174447,-187500.02235174447
$SILENCE,9642.38609580828,-13045.528596106602,-9260.148913878074,7120.036437515788,-187500.02235174447,-187500.02235174447,-187500.02235174447,-187500.02235174447
$SILENCE,9706.088567505905,-13130.107597125483,-9053.372925922027,7003.919125070468,-187500.02235174447,-187500.02235174447,-187500.02235174447,-187500.02235174447
$SILENCE,9822.719970073696,-13046.065037973529,-8905.180860183342,7104.16669895252,-187500.02235174447,-187500.02235174447,-187500.02235174447,-187500.02235174447
$SILENCE,9798.870658739885,-12938.329629698948,-9068.706222618368,7256.963224048999,-187500.02235174447,-187500.02235174447,-187500.02235174447,-187500.02235174447
$SILENCE,9661.183912895192,-13030.217651154715,-9275.795134996788,7150.881844864112,-187500.02235174447,-187500.02235174447,-187500.02235174447,-187500.02235174447
$SILENCE,9669.364651365835,-13153.5545770591,-9126.217261101874,6981.5226771262505,-187500.02235174447,-187500.02235174447,-187500.02235174447,-187500.02235174447
$SILENCE,9811.052359468027,-13074.474105176223,-8905.203211927797,7076.070556172199,-187500.02235174447,-187500.02235174447,-187500.02235174447,-187500.02235174447
$SILENCE,9842.56831915001,-12934.999219775107,-9001.382768318983,7252.716392602491,-187500.02235174447,-187500.02235174447,-187500.02235174447,-187500.02235174447
$SILENCE,9709.888364063307,-12979.680356941266,-9239.227681067907,7209.5104705703825,-187500.02235174447,-187500.02235174447,-187500.02235174447,-187500.02235174447
$SILENCE,9653.584319780388,-13137.148396628905,-9171.390136646049,6995.626627877549,-187500.02235174447,-187500.02235174447,-187500.02235174447,-187500.02235174447
$SILENCE,9760.090382109927,-13120.16107084287,-8968.324538269584,7013.329209486153,-187500.02235174447,-187500.02235174447,-187500.02235174447,-187500.02235174447
$SILENCE,9822.98819100716,-12963.56474918899,-8995.705425227336,7208.437586836528,-187500.02235174447,-187500.02235174447,-187500.02235174447,-187500.02235174447
$SILENCE,9708.480204162623,-12967.990394591141,-9226.01780009482,7231.258717925396,-187500.02235174447,-187500.02235174447,-187500.02235174447,-187500.02235174447
$SILENCE,9642.85548244184,-13118.507041753179,-9201.453232938436,7022.918107857479,-187500.02235174447,-187500.02235174447,-187500.02235174447,-187500.02235174447
$SILENCE,9766.818257190975,-13098.68104442132,-8959.652061420926,7022.225203779364,-187500.02235174447,-187500.02235174447,-187500.02235174447,-187500.02235174447
$SILENCE,9830.744246333152,-12980.954406375218,-8972.34785227154,7188.656292993581,-187500.02235174447,-187500.02235174447,-187500.02235174447,-187500.02235174447
$SILENCE,9730.787245129019,-12955.071086295973,-9208.605791164135,7244.200377965019,-187500.02235174447,-187500.02235174447,-187500.02235174447,-187500.02235174447
$SILENCE,9624.86232815532,-13117.21064057477,-9246.939032904987,7053.517646016794,-187500.02235174447,-187500.02235174447,-187500.02235174447,-187500.02235174447
$SILENCE,9725.199309015192,-13137.818948962564,-9000.131070629486,7004.209697748387,-187500.02235174447,-187500.02235174447,-187500.02235174447,-187500.02235174447
$SILENCE,9828.978458521184,-13007.284761343572,-8931.9582500408,7161.074240335732,-187500.02235174447,-187500.02235174447,-187500.02235174447,-187500.02235174447
$SILENCE,9765.164228101281,-12934.328667441448,-9152.927595725965,7261.075945028776,-187500.02235174447,-187500.02235174447,-187500.02235174447,-187500.02235174447
$SILENCE,9649.71746798962,-13082.297215735582,-9248.905986417054,7092.387329624574,-187500.02235174447,-187500.02235174447,-187500.02235174447,-187500.02235174447
$SILENCE,9708.189631484704,-13150.246518879714,-9036.519710602726,6991.960941786879,-187500.02235174447,-187500.02235174447,-187500.02235174447,-187500.02235174447
$SILENCE,9819.031932238571,-13032.363418622426,-8922.995200514222,7132.240489988386,-187500.02235174447,-187500.02235174447,-187500.02235174447,-187500.02235174447
$SILENCE,9794.445013337734,-12913.27332416455,-9095.125984564542,7276.498648702937,-187500.02235174447,-187500.02235174447,-187500.02235174447,-187500.02235174447
$SILENCE,9645.783560965487,-13048.188453696783,-9271.593007039191,7117.93537353699,-187500.02235174447,-187500.02235174447,-187500.02235174447,-187500.02235174447
$SILENCE,9664.201398396659,-13167.546769088123,-9103.217316057362,6975.264188678764,-187500.02235174447,-187500.02235174447,-187500.02235174447,-187500.02235174447
$SILENCE,9789.482926068655,-13067.813285328542,-8935.28865996464,7093.840193014168,-187500.02235174447,-187500.02235174447,-187500.02235174447,-187500.02235174447
$SILENCE,9784.297321355025,-12924.069216736463,-9075.903484332977,7264.607520652715,-187500.02235174447,-187500.02235174447,-187500.02235174447,-187500.02235174447
$SILENCE,9641.782598707987,-13020.248773127649,-9279.751393765378,7166.863342149657,-187500.02235174447,-187500.02235174447,-187500.02235174447,-187500.02235174447
$SILENCE,9643.883662686785,-13159.03075445065,-9143.741028754834,6990.664540608471,-187500.02235174447,-187500.02235174447,-187500.02235174447,-187500.02235174447
$SILENCE,9774.060222394493,-13090.902637350875,-8942.463569934795,7063.687689743959,-187500.02235174447,-187500.02235174447,-187500.02235174447,-187500.02235174447
$SILENCE,9800.859963996407,-12944.163435001783,-9031.490568100282,7243.060438997798,-187500.02235174447,-187500.02235174447,-187500.02235174447,-187500.02235174447
$SILENCE,9679.266474159536,-12971.320804514982,-9241.01582062433,7221.848633509712,-187500.02235174447,-187500.02235174447,-187500.02235174447,-187500.02235174447
$SILENCE,9648.935156933685,-13118.104710352984,-9144.880967722054,7044.3310790456635,-187500.02235174447,-187500.02235174447,-187500.02235174447,-187500.02235174447
$SILENCE,9732.888309107819,-13124.206736589282,-8977.555808729627,7027.276698026264,-187500.02235174447,-187500.02235174447,-187500.02235174447,-187500.02235174447
$SILENCE,9803.452766353223,-12980.149743574828,-9006.098986399054,7204.078996667743,-187500.02235174447,-187500.02235174447,-187500.02235174447,-187500.02235174447
$SILENCE,9689.548276608977,-12972.259577782104,-9248.414248039038,7230.47640686946,-187500.02235174447,-187500.02235174447,-187500.02235174447,-187500.02235174447
$SILENCE,9608.5679064474,-13133.46035879378,-9234.377352521105,7033.15520681801,-187500.02235174447,-187500.02235174447,-187500.02235174447,-187500.02235174447
$SILENCE,9732.30716375198,-13133.616821004965,-8991.458593780828,7014.96088683139,-187500.02235174447,-187500.02235174447,-187500.02235174447,-187500.02235174447
$SILENCE,9810.359455389913,-12979.747412174633,-8963.608320189514,7190.578543016737,-187500.02235174447,-187500.02235174447,-187500.02235174447,-187500.02235174447
$SILENCE,9722.4947479361,-12929.947725528209,-9171.34543315714,7269.77077362189,-187500.02235174447,-187500.02235174447,-187500.02235174447,-187500.02235174447
$SILENCE,9609.819604136897,-13101.45266073378,-9242.02164912482,7065.967567678401,-187500.02235174447,-187500.02235174447,-187500.02235174447,-187500.02235174447
$SILENCE,9692.945741766185,-13144.368010087968,-9042.26410892774,6987.937627784923,-187500.02235174447,-187500.02235174447,-187500.02235174447,-187500.02235174447
$SILENCE,9799.496507584632,-13005.273104342594,-8950.756067127713,7154.256958276864,-187500.02235174447,-187500.02235174447,-187500.02235174447,-187500.02235174447
$SILENCE,9729.356733483879,-12928.51721388307,-9159.00727021781,7278.8902853596555,-187500.02235174447,-187500.02235174447,-187500.02235174447,-187500.02235174447
$SILENCE,9611.5183367155,-13075.68109937681,-9264.999242424876,7113.621486857115,-187500.02235174447,-187500.02235174447,-187500.02235174447,-187500.02235174447
$SILENCE,9671.331604877902,-13163.881082997452,-9074.629434899025,6991.715072597871,-187500.02235174447,-187500.02235174447,-187500.02235174447,-187500.02235174447
$SILENCE,9796.501373827621,-13034.442130856769,-8941.077761778566,7134.810940600746,-187500.02235174447,-187500.02235174447,-187500.02235174447,-187500.02235174447
$SILENCE,9753.138989584326,-12942.442350678724,-9123.445644789415,7267.647357898636,-187500.02235174447,-187500.02235174447,-187500.02235174447,-187500.02235174447
$SILENCE,9610.423101237191,-13073.334166209002,-9291.039024715308,7122.182204983498,-187500.02235174447,-187500.02235174447,-187500.02235174447,-187500.02235174447
$SILENCE,9647.459941799634,-13169.692536555833,-9103.641999202013,6984.204886460887,-187500.02235174447,-187500.02235174447,-187500.02235174447,-187500.02235174447
$SILENCE,9774.082574138949,-13063.275881204116,-8926.303258693608,7093.281399402786,-187500.02235174447,-187500.02235174447,-187500.02235174447,-187500.02235174447
$SILENCE,9786.331330100456,-12927.064350493474,-9066.739269106301,7259.086639772254,-187500.02235174447,-187500.02235174447,-187500.02235174447,-187500.02235174447
$SILENCE,9616.882755384775,-13032.676343044799,-9302.907801021076,7161.521275224838,-187500.02235174447,-187500.02235174447,-187500.02235174447,-187500.02235174447
$SILENCE,9613.57469720539,-13162.629385307955,-9168.618520333592,6984.987197516823,-187500.02235174447,-187500.02235174447,-187500.02235174447,-187500.02235174447
$SILENCE,9756.4023442748,-13084.510038436656,-8952.298337495129,7060.759611220314,-187500.02235174447,-187500.02235174447,-187500.02235174447,-187500.02235174447
$SILENCE,9810.80649027902,-12935.289792453026,-9000.958085174332,7252.783447835857,-187500.02235174447,-187500.02235174447,-187500.02235174447,-187500.02235174447
$SILENCE,9666.324814119913,-12988.978682634674,-9251.096457373675,7213.019694449866,-187500.02235174447,-187500.02235174447,-187500.02235174447,-187500.02235174447
$SILENCE,9596.810888863909,-13145.664411266376,-9202.749634116844,7007.227183249854,-187500.02235174447,-187500.02235174447,-187500.02235174447,-187500.02235174447
$SILENCE,9722.986486314117,-13120.831623176531,-8965.217645790297,7031.501177728317,-187500.02235174447,-187500.02235174447,-187500.02235174447,-187500.02235174447
$SILENCE,9775.177809617258,-12985.067127354996,-8998.834669451078,7219.769921275369,-187500.02235174447,-187500.02235174447,-187500.02235174447,-187500.02235174447
$SILENCE,9667.82238099842,-12989.448069268235,-9251.968175407432,7231.772808047868,-187500.02235174447,-187500.02235174447,-187500.02235174447,-187500.02235174447
$SILENCE,9600.61068542131,-13137.17074837336,-9230.689314685978,7031.38941900604,-187500.02235174447,-187500.02235174447,-187500.02235174447,-187500.02235174447
$SILENCE,9713.822271087442,-13121.301009810091,-8990.25159958024,7010.356427473596,-187500.02235174447,-187500.02235174447,-187500.02235174447,-187500.02235174447
$SILENCE,9796.121394171882,-12987.659929711812,-8977.376994773984,7177.4580690214725,-187500.02235174447,-187500.02235174447,-187500.02235174447,-187500.02235174447
$SILENCE,9682.865105016841,-12978.003976107118,-9216.54066044577,7233.583299348748,-187500.02235174447,-187500.02235174447,-187500.02235174447,-187500.02235174447
$SILENCE,9595.648598152233,-13116.271867307649,-9254.471570786425,7061.720736231892,-187500.02235174447,-187500.02235174447,-187500.02235174447,-187500.02235174447
$SILENCE,9673.499724090067,-13170.139571444937,-9059.005565524765,6971.777316543737,-187500.02235174447,-187500.02235174447,-187500.02235174447,-187500.02235174447
$SILENCE,9773.724946227663,-13042.779331538599,-8979.67922445288,7133.693353377981,-187500.02235174447,-187500.02235174447,-187500.02235174447,-187500.02235174447
$SILENCE,9730.899003851295,-12946.219795491672,-9166.584511588158,7267.513247431904,-187500.02235174447,-187500.02235174447,-187500.02235174447,-187500.02235174447
$SILENCE,9586.305568969914,-13099.753928155176,-9281.02544319933,7083.40192835354,-187500.02235174447,-187500.02235174447,-187500.02235174447,-187500.02235174447
$SILENCE,9648.24225285557,-13181.740126817242,-9058.133847491008,6970.816191532158,-187500.02235174447,-187500.02235174447,-187500.02235174447,-187500.02235174447
$SILENCE,9786.644254522831,-13058.649070101867,-8941.457741434306,7104.591382097171,-187500.02235174447,-187500.02235174447,-187500.02235174447,-187500.02235174447
$SILENCE,9757.966966386672,-12945.28102222455,-9140.321211853172,7247.843712311234,-187500.02235174447,-187500.02235174447,-187500.02235174447,-187500.02235174447
$SILENCE,9612.457109982624,-13055.788046811587,-9299.778556797333,7132.911042322045,-187500.02235174447,-187500.02235174447,-187500.02235174447,-187500.02235174447
$SILENCE,9634.451226526646,-13175.839266281042,-9124.362066312084,6974.4818776228285,-187500.02235174447,-187500.02235174447,-187500.02235174447,-187500.02235174447
$SILENCE,9741.627841189844,-13103.620779945944,-8970.470305737294,7050.947195404434,-187500.02235174447,-187500.02235174447,-187500.02235174447,-187500.02235174447
$SILENCE,9758.726925698153,-12969.353851002914,-9084.553609437182,7231.728104558958,-187500.02235174447,-187500.02235174447,-187500.02235174447,-187500.02235174447
$SILENCE,9620.213165308614,-13048.63548858589,-9286.74748977989,7150.971251841933,-187500.02235174447,-187500.02235174447,-187500.02235174447,-187500.02235174447
$SILENCE,9609.99841809254,-13183.818839051586,-9161.28714815225,6973.029014233233,-187500.02235174447,-187500.02235174447,-187500.02235174447,-187500.02235174447
$SILENCE,9762.325556555457,-13097.474050220735,-8950.800770616625,7044.956927890412,-187500.02235174447,-187500.02235174447,-187500.02235174447,-187500.02235174447
$SILENCE,9782.397423076323,-12965.79992363452,-9037.413780380939,7211.320961871263,-187500.02235174447,-187500.02235174447,-187500.02235174447,-187500.02235174447
$SILENCE,9629.600897979844,-13027.535441820079,-9278.589103053702,7177.681586466025,-187500.02235174447,-187500.02235174447,-187500.02235174447,-187500.02235174447
$SILENCE,9589.546571915935,-13184.757612318708,-9218.529965702292,6981.455621892885,-187500.02235174447,-187500.02235174447,-187500.02235174447,-187500.02235174447
$SILENCE,9720.728960124132,-13141.46228330878,-8990.743337958258,7001.840412836124,-187500.02235174447,-187500.02235174447,-187500.02235174447,-187500.02235174447
$SILENCE,9794.623827293377,-12982.653138953823,-8987.234114078774,7199.251019865396,-187500.02235174447,-187500.02235174447,-187500.02235174447,-187500.02235174447
$SILENCE,9683.647416072776,-12967.073973068473,-9216.361846490126,7237.316040672785,-187500.02235174447,-187500.02235174447,-187500.02235174447,-187500.02235174447
$SILENCE,9579.08595551085,-13160.975356218261,-9243.407457281048,7007.607162905594,-187500.02235174447,-187500.02235174447,-187500.02235174447,-187500.02235174447
$SILENCE,9680.808744526952,-13185.5622751191,-9032.317582645128,6966.099973452088,-187500.02235174447,-187500.02235174447,-187500.02235174447,-187500.02235174447
$SILENCE,9775.356623572901,-13021.589877794968,-8985.289512311163,7151.172417542031,-187500.02235174447,-187500.02235174447,-187500.02235174447,-187500.02235174447
$SILENCE,9702.087605248405,-12961.240167765638,-9192.892514812054,7241.473465141472,-187500.02235174447,-187500.02235174447,-187500.02235174447,-187500.02235174447
$SILENCE,9572.246321707526,-13139.383571074435,-9285.451088601481,7040.352468532618,-187500.02235174447,-187500.02235174447,-187500.02235174447,-187500.02235174447
$SILENCE,9664.715488519132,-13181.807182050608,-9058.424420168927,6967.016394974756,-187500.02235174447,-187500.02235174447,-187500.02235174447,-187500.02235174447
$SILENCE,9766.058297879494,-13051.854139787452,-8968.123372569487,7120.841100316179,-187500.02235174447,-187500.02235174447,-187500.02235174447,-187500.02235174447
$SILENCE,9716.057445532972,-12959.653193909311,-9164.304633653717,7243.194549464531,-187500.02235174447,-187500.02235174447,-187500.02235174447,-187500.02235174447
$SILENCE,9599.537801687457,-13088.488648949702,-9269.536646549303,7092.253219157841,-187500.02235174447,-187500.02235174447,-187500.02235174447,-187500.02235174447
$SILENCE,9643.794255708965,-13195.441746168346,-9081.156144279974,6957.896883236991,-187500.02235174447,-187500.02235174447,-187500.02235174447,-187500.02235174447
$SILENCE,9757.989318131127,-13085.985253570707,-8957.930977097867,7082.843134742157,-187500.02235174447,-187500.02235174447,-187500.02235174447,-187500.02235174447
$SILENCE,9750.009745360583,-12963.497693955624,-9113.94615339591,7239.461808140494,-187500.02235174447,-187500.02235174447,-187500.02235174447,-187500.02235174447
$SILENCE,9609.931362859174,-13082.833657602509,-9282.992396711397,7119.276478204308,-187500.02235174447,-187500.02235174447,-187500.02235174447,-187500.02235174447
$SILENCE,9615.698112928643,-13197.65456886942,-9122.372761055562,6970.480915365329,-187500.02235174447,-187500.02235174447,-187500.02235174447,-187500.02235174447
$SILENCE,9743.371277257356,-13090.16502978385,-8945.52575892517,7062.614806010104,-187500.02235174447,-187500.02235174447,-187500.02235174447,-187500.02235174447
$SILENCE,9768.516989769578,-12950.287812982539,-9052.970594521832,7240.668802341081,-187500.02235174447,-187500.02235174447,-187500.02235174447,-187500.02235174447
$SILENCE,9618.268563541003,-13048.747247308165,-9283.752356022878,7146.076219806221,-187500.02235174447,-187500.02235174447,-187500.02235174447,-187500.02235174447
$SILENCE,9602.935266844663,-13190.189086221348,-9163.365860386593,6965.764697285259,-187500.02235174447,-187500.02235174447,-187500.02235174447,-187500.02235174447
$SILENCE,9732.016591074062,-13131.78397795963,-8948.140913026442,7020.705285156404,-187500.02235174447,-187500.02235174447,-187500.02235174447,-187500.02235174447
$SILENCE,9773.926111927762,-12988.777516934577,-9006.21074512133,7207.677627525048,-187500.02235174447,-187500.02235174447,-187500.02235174447,-187500.02235174447
$SILENCE,9650.499779045556,-13013.900877702341,-9252.97400390792,7187.404595304084,-187500.02235174447,-187500.02235174447,-187500.02235174447,-187500.02235174447
$SILENCE,9592.318188228392,-13169.245501666726,-9195.373558446594,6985.545991128206,-187500.02235174447,-187500.02235174447,-187500.02235174447,-187500.02235174447
$SILENCE,9700.858259303363,-13158.159036416893,-8987.234114078774,6989.47989815234,-187500.02235174447,-187500.02235174447,-187500.02235174447,-187500.02235174447
$SILENCE,9794.22149589318,-12980.149743574828,-8981.91439889841,7197.5969907757035,-187500.02235174447,-187500.02235174447,-187500.02235174447,-187500.02235174447
$SILENCE,9704.367483182847,-12963.207121277705,-9191.327892700183,7239.439456396039,-187500.02235174447,-187500.02235174447,-187500.02235174447,-187500.02235174447
$SILENCE,9552.979117987052,-13190.971397277284,-9234.198538565463,6990.19515397491,-187500.02235174447,-187500.02235174447,-187500.02235174447,-187500.02235174447
$SILENCE,9697.840773801896,-13160.483617840246,-8977.10877384052,6990.821002819658,-187500.02235174447,-187500.02235174447,-187500.02235174447,-187500.02235174447
$SILENCE,9788.678263268264,-12995.95242690473,-8975.432393006373,7152.088839064699,-187500.02235174447,-187500.02235174447,-187500.02235174447,-187500.02235174447
$SILENCE,9661.563892550934,-12990.163325090805,-9240.747599690867,7193.506621540382,-187500.02235174447,-187500.02235174447,-187500.02235174447,-187500.02235174447
$SILENCE,9554.27551916546,-13163.32228938607,-9290.524934592835,7020.168843289476,-187500.02235174447,-187500.02235174447,-187500.02235174447,-187500.02235174447
$SILENCE,9663.82141874092,-13183.863542540497,-9005.003750920743,6972.850200277591,-187500.02235174447,-187500.02235174447,-187500.02235174447,-187500.02235174447
$SILENCE,9781.16807713128,-13034.330372134493,-8922.659924347392,7145.696240150481,-187500.02235174447,-187500.02235174447,-187500.02235174447,-187500.02235174447
$SILENCE,9697.706663335164,-12984.530685488067,-9188.82449732119,7224.106159699698,-187500.02235174447,-187500.02235174447,-187500.02235174447,-187500.02235174447
$SILENCE,9578.862438066297,-13115.780128929631,-9301.074957975741,7065.811105467214,-187500.02235174447,-187500.02235174447,-187500.02235174447,-187500.02235174447
$SILENCE,9628.773883434998,-13190.479658899267,-9092.46612697436,6951.750153511782,-187500.02235174447,-187500.02235174447,-187500.02235174447,-187500.02235174447
$SILENCE,9757.4528762642,-13085.046480303585,-8941.681258878858,7080.004463196334,-187500.02235174447,-187500.02235174447,-187500.02235174447,-187500.02235174447
não,9742.298393523502,-12962.916548599786,-9100.557458467181,7237.696020328524,-187500.02235174447,-187500.02235174447,-187500.02235174447,-187500.02235174447
não,9598.04023480895,-13074.25058773167,-9283.327672878228,7114.627315357604,-187500.02235174447,-187500.02235174447,-187500.02235174447,-187500.02235174447
não,9609.75254890353,-13199.50976365921,-9125.859633190588,6948.352688354575,-187500.02235174447,-187500.02235174447,-187500.02235174447,-187500.02235174447
não,9734.855262619885,-13107.532335225624,-8949.012631060199,7047.7955994362355,-187500.02235174447,-187500.02235174447,-187500.02235174447,-187500.02235174447
não,9760.582120487943,-12961.977775332663,-9053.730553833313,7228.777674290857,-187500.02235174447,-187500.02235174447,-187500.02235174447,-187500.02235174447
não,9627.298668300948,-13032.944563978263,-9266.563864536747,7160.001356601877,-187500.02235174447,-187500.02235174447,-187500.02235174447,-187500.02235174447
não,9610.557211703923,-13172.7100220573,-9148.390191601538,6979.198095702898,-187500.02235174447,-187500.02235174447,-187500.02235174447,-187500.02235174447
não,9724.752274126085,-13132.096902382005,-8944.274061235674,7020.370008989574,-187500.02235174447,-187500.02235174447,-187500.02235174447,-187500.02235174447
não,9757.274062308557,-13007.57533402149,-9024.270954641219,7183.671853980048,-187500.02235174447,-187500.02235174447,-187500.02235174447,-187500.02235174447
não,9645.113008631828,-13024.450901085247,-9251.901120174065,7181.302569067785,-187500.02235174447,-187500.02235174447,-187500.02235174447,-187500.02235174447
não,9590.708862627609,-13170.474847611767,-9200.022721293297,6991.379796431041,-187500.02235174447,-187500.02235174447,-187500.02235174447,-187500.02235174447
não,9692.230485943614,-13162.338812630036,-8985.781250689179,6988.205848718388,-187500.02235174447,-187500.02235174447,-187500.02235174447,-187500.02235174447
não,9743.997126102106,-13032.564584322523,-9007.976532933299,7152.2229495314305,-187500.02235174447,-187500.02235174447,-187500.02235174447,-187500.02235174447
não,9653.33845059138,-12998.075842627984,-9234.980849621397,7200.793290232813,-187500.02235174447,-187500.02235174447,-187500.02235174447,-187500.02235174447
não,9574.772068830976,-13160.304803884603,-9235.472587999415,7007.115424527577,-187500.02235174447,-187500.02235174447,-187500.02235174447,-187500.02235174447
não,9681.255779416058,-13168.17261793287,-9001.852154952545,6974.124249711544,-187500.02235174447,-187500.02235174447,-187500.02235174447,-187500.02235174447
não,9782.196257376225,-13017.678322515289,-8949.750238627224,7151.79826638678,-187500.02235174447,-187500.02235174447,-187500.02235174447,-187500.02235174447
não,9696.991407512594,-12977.42283075128,-9182.789526318256,7231.661049325592,-187500.02235174447,-187500.02235174447,-187500.02235174447,-187500.02235174447
não,9566.188998960139,-13150.537091557633,-9271.324786105728,7036.262099297297,-187500.02235174447,-187500.02235174447,-187500.02235174447,-187500.02235174447
não,9642.095523130361,-13205.388272450957,-9053.954071277865,6950.18553139991,-187500.02235174447,-187500.02235174447,-187500.02235174447,-187500.02235174447
não,9751.619070961366,-13069.44496267378,-8950.823122361078,7100.3892541395735,-187500.02235174447,-187500.02235174447,-187500.02235174447,-187500.02235174447
não,9718.180861256225,-12969.867941125387,-9148.43489509045,7233.203319693008,-187500.02235174447,-187500.02235174447,-187500.02235174447,-187500.02235174447
não,9585.053871280417,-13091.506134451169,-9289.876734003632,7080.183277151976,-187500.02235174447,-187500.02235174447,-187500.02235174447,-187500.02235174447
não,9625.085845599871,-13191.910170544406,-9097.070586332153,6946.676307520427,-187500.02235174447,-187500.02235174447,-187500.02235174447,-187500.02235174447
não,9744.220643546658,-13100.379776999926,-8960.590834688048,7063.218303110398,-187500.02235174447,-187500.02235174447,-187500.02235174447,-187500.02235174447
não,9743.505387724088,-12972.99718534913,-9102.99379861281,7227.056589967799,-187500.02235174447,-187500.02235174447,-187500.02235174447,-187500.02235174447
não,9604.477537212078,-13072.909483064352,-9281.807754255266,7118.985905526389,-187500.02235174447,-187500.02235174447,-187500.02235174447,-187500.02235174447
não,9617.843880396353,-13192.446612411335,-9127.625421002558,6956.980461714324,-187500.02235174447,-187500.02235174447,-187500.02235174447,-187500.02235174447
não,9745.248823791602,-13111.600352716488,-8944.363468213496,7043.3923057785405,-187500.02235174447,-187500.02235174447,-187500.02235174447,-187500.02235174447
não,9773.434373549744,-12976.171133061784,-9051.763600321246,7223.6591248105915,-187500.02235174447,-187500.02235174447,-187500.02235174447,-187500.02235174447
não,9625.219956066603,-13048.97076475272,-9277.136239664107,7159.420211246039,-187500.02235174447,-187500.02235174447,-187500.02235174447,-187500.02235174447
não,9583.712766613098,-13203.667188127898,-9189.271532210294,6954.119438424044,-187500.02235174447,-187500.02235174447,-187500.02235174447,-187500.02235174447
não,9712.838794331408,-13151.788789247132,-8968.68216618087,7003.606200648093,-187500.02235174447,-187500.02235174447,-187500.02235174447,-187500.02235174447
não,9779.290530597036,-12987.347005289437,-8999.460518295828,7197.574639031249,-187500.02235174447,-187500.02235174447,-187500.02235174447,-187500.02235174447
não,9657.987613438085,-13009.251714855638,-9240.345268290672,7190.600894761193,-187500.02235174447,-187500.02235174447,-187500.02235174447,-187500.02235174447
não,9582.103441012316,-13185.115240229994,-9225.235489038883,6970.145639198499,-187500.02235174447,-187500.02235174447,-187500.02235174447,-187500.02235174447
não,9697.036111001506,-13158.829588750552,-8990.58687574707,6984.115479483066,-187500.02235174447,-187500.02235174447,-187500.02235174447,-187500.02235174447
não,9786.286626611547,-13007.016540410106,-8965.77643940168,7175.357005042673,-187500.02235174447,-187500.02235174447,-187500.02235174447,-187500.02235174447
não,9694.577419111421,-12984.642444210345,-9177.112183226607,7231.169310947575,-187500.02235174447,-187500.02235174447,-187500.02235174447,-187500.02235174447
não,9582.483420668057,-13156.817931749574,-9232.030419353297,7012.032808307745,-187500.02235174447,-187500.02235174447,-187500.02235174447,-187500.02235174447
não,9650.253909856548,-13200.85086832653,-9061.97834753732,6933.712295736349,-187500.02235174447,-187500.02235174447,-187500.02235174447,-187500.02235174447
não,9754.658908207288,-13053.44111364378,-8999.572277018104,7114.3590944241405,-187500.02235174447,-187500.02235174447,-187500.02235174447,-187500.02235174447
não,9703.629875615821,-12977.959272618207,-9190.076195010686,7221.356895131696,-187500.02235174447,-187500.02235174447,-187500.02235174447,-187500.02235174447
não,9593.905162084719,-13130.956963414785,-9260.752410978366,7051.908320416012,-187500.02235174447,-187500.02235174447,-187500.02235174447,-187500.02235174447
não,9659.663994272232,-13183.03652799565,-9059.854931814067,6949.6490895329825,-187500.02235174447,-187500.02235174447,-187500.02235174447,-187500.02235174447
não,9778.977606174662,-13053.44111364378,-8936.696819865325,7102.177393695998,-187500.02235174447,-187500.02235174447,-187500.02235174447,-187500.02235174447
não,9733.558861441477,-12968.236263780149,-9121.411636043982,7229.895261513622,-187500.02235174447,-187500.02235174447,-187500.02235174447,-187500.02235174447
não,9604.164612789704,-13102.346730511992,-9266.608568025656,7076.025852683289,-187500.02235174447,-187500.02235174447,-187500.02235174447,-187500.02235174447
não,9624.683514199676,-13215.245391755747,-9072.930702320422,6936.640374259994,-187500.02235174447,-187500.02235174447,-187500.02235174447,-187500.02235174447
não,9731.860128862874,-13103.911352623863,-8982.9202273989,7046.901529658024,-187500.02235174447,-187500.02235174447,-187500.02235174447,-187500.02235174447
não,9744.846492391407,-12958.625013664367,-9114.236726073828,7225.067284711276,-187500.02235174447,-187500.02235174447,-187500.02235174447,-187500.02235174447
não,9580.225894478071,-13081.5372564241,-9314.329542437737,7097.528230849294,-187500.02235174447,-187500.02235174447,-187500.02235174447,-187500.02235174447
não,9567.351289671813,-13239.362924023024,-9170.563122101203,6914.713312949338,-187500.02235174447,-187500.02235174447,-187500.02235174447,-187500.02235174447
não,9725.244012504103,-13123.312666811069,-8951.24780550573,7034.853939396613,-187500.02235174447,-187500.02235174447,-187500.02235174447,-187500.02235174447
não,9784.297321355025,-12936.675600609256,-9027.623716309514,7238.031296495355,-187500.02235174447,-187500.02235174447,-187500.02235174447,-187500.02235174447
não,9586.059699780906,-13078.609177900456,-9306.528783622836,7119.768216582324,-187500.02235174447,-187500.02235174447,-187500.02235174447,-187500.02235174447
não,9561.763353557988,-13232.322124519602,-9186.812840320212,6938.652031260972,-187500.02235174447,-187500.02235174447,-187500.02235174447,-187500.02235174447
não,9712.123538508838,-13162.070591696573,-8972.236093549263,6993.1455842430105,-187500.02235174447,-187500.02235174447,-187500.02235174447,-187500.02235174447
não,9767.086478124438,-12994.276046070581,-9019.219460394319,7189.080976138232,-187500.02235174447,-187500.02235174447,-187500.02235174447,-187500.02235174447
não,9676.830134013908,-12973.33246151596,-9163.745840042335,7221.222784664963,-187500.02235174447,-187500.02235174447,-187500.02235174447,-187500.02235174447
não,9603.47170871159,-13157.622594549966,-9176.8663140376,6993.3243981986525,-187500.02235174447,-187500.02235174447,-187500.02235174447,-187500.02235174447
não,9639.703886473642,-13228.701141917843,-9084.732423392823,6921.0835601191,-187500.02235174447,-187500.02235174447,-187500.02235174447,-187500.02235174447
não,9731.658963162776,-13073.44592493128,-9027.467254098327,7121.891632305579,-187500.02235174447,-187500.02235174447,-187500.02235174447,-187500.02235174447
não,9668.87291298782,-13015.15257539184,-9211.086834798674,7205.2859908683295,-187500.02235174447,-187500.02235174447,-187500.02235174447,-187500.02235174447
não,9605.304551756924,-13120.339884798514,-9203.420186450505,7026.069703825678,-187500.02235174447,-187500.02235174447,-187500.02235174447,-187500.02235174447
não,9645.358877820836,-13190.680824599365,-9047.114437474542,6924.7045427208595,-187500.02235174447,-187500.02235174447,-187500.02235174447,-187500.02235174447
não,9734.765855642063,-13066.360421938947,-8968.212779547308,7100.076329717199,-187500.02235174447,-187500.02235174447,-187500.02235174447,-187500.02235174447
não,9709.463680918656,-12987.011729122607,-9159.499008595825,7234.320906915773,-187500.02235174447,-187500.02235174447,-187500.02235174447,-187500.02235174447
não,9536.327068367847,-13183.863542540497,-9319.783368084833,7005.997837304812,-187500.02235174447,-187500.02235174447,-187500.02235174447,-187500.02235174447
não,9666.637738542287,-13186.210475708303,-9037.302021658663,6973.677214822437,-187500.02235174447,-187500.02235174447,-187500.02235174447,-187500.02235174447
não,9798.401272106323,-13034.48683434568,-8861.70671721777,7130.787626598791,-187500.02235174447,-187500.02235174447,-187500.02235174447,-187500.02235174447
não,9664.268453630026,-13039.940659992775,-9193.518363656804,7154.279310021318,-187500.02235174447,-187500.02235174447,-187500.02235174447,-187500.02235174447
não,9550.207501674593,-13134.98027741674,-9369.448944264524,7037.245576053331,-187500.02235174447,-187500.02235174447,-187500.02235174447,-187500.02235174447
não,9608.970237847596,-13219.782795880175,-9120.606973243592,6923.5869554980945,-187500.02235174447,-187500.02235174447,-187500.02235174447,-187500.02235174447
não,9714.470471676645,-13137.707190240288,-8918.14487196742,7038.63138420956,-187500.02235174447,-187500.02235174447,-187500.02235174447,-187500.02235174447
não,9736.77751264304,-12989.202200079228,-9106.145394581008,7215.880717740145,-187500.02235174447,-187500.02235174447,-187500.02235174447,-187500.02235174447
não,9609.596086692345,-13073.557683653557,-9293.497716605392,7127.099588763665,-187500.02235174447,-187500.02235174447,-187500.02235174447,-187500.02235174447
não,9639.56977600691,-13164.37282137547,-9123.356237811595,6977.924046268946,-187500.02235174447,-187500.02235174447,-187500.02235174447,-187500.02235174447
não,9667.15182866476,-13191.977225777773,-9010.412873078927,6958.142752425999,-187500.02235174447,-187500.02235174447,-187500.02235174447,-187500.02235174447
não,9702.4899366486,-13051.228290942705,-9105.094862591608,7142.142312782087,-187500.02235174447,-187500.02235174447,-187500.02235174447,-187500.02235174447
não,9582.081089267862,-13102.92787586783,-9282.03127169982,7108.5476408657605,-187500.02235174447,-187500.02235174447,-187500.02235174447,-187500.02235174447
não,9613.954676861129,-13206.349397462536,-9072.774240109235,6987.915276040469,-187500.02235174447,-187500.02235174447,-187500.02235174447,-187500.02235174447
não,9721.35480896888,-13164.08224869755,-8931.734732596247,7000.00756979079,-187500.02235174447,-187500.02235174447,-187500.02235174447,-187500.02235174447
não,9738.409189988279,-13001.428604296281,-9114.594353985114,7157.117981567143,-187500.02235174447,-187500.02235174447,-187500.02235174447,-187500.02235174447
não,9681.412241627246,-12983.971891876685,-9254.046887641774,7208.638752536625,-187500.02235174447,-187500.02235174447,-187500.02235174447,-187500.02235174447
não,9431.117407216718,-13351.613384677576,-9368.510170997402,6813.929297200358,-187500.02235174447,-187500.02235174447,-187500.02235174447,-187500.02235174447
não,9606.75741514652,-13275.684508762897,-9099.976313111343,6876.558885164129,-187500.02235174447,-187500.02235174447,-187500.02235174447,-187500.02235174447
não,9754.703611696197,-13095.864724619953,-8978.11460234101,7124.082103262199,-187500.02235174447,-187500.02235174447,-187500.02235174447,-187500.02235174447
não,9649.113970889328,-13054.692811333278,-9260.707707489457,7158.682603679014,-187500.02235174447,-187500.02235174447,-187500.02235174447,-187500.02235174447
não,9557.807094789398,-13213.010217310217,-9303.399539399094,6972.76079329977,-187500.02235174447,-187500.02235174447,-187500.02235174447,-187500.02235174447
não,9632.66308697022,-13269.493075548779,-9089.694510661902,6896.988379596279,-187500.02235174447,-187500.02235174447,-187500.02235174447,-187500.02235174447
não,9736.553995198488,-13107.778204414632,-9014.369131847518,7062.838323454657,-187500.02235174447,-187500.02235174447,-187500.02235174447,-187500.02235174447
não,9655.238348870082,-13059.520788135624,-9236.992506622375,7144.019859316333,-187500.02235174447,-187500.02235174447,-187500.02235174447,-187500.02235174447
não,9549.961632485585,-13210.015083553206,-9331.003943801397,6980.874476537047,-187500.02235174447,-187500.02235174447,-187500.02235174447,-187500.02235174447
não,9653.24904361356,-13233.037380342172,-9075.590559910603,6923.184624097899,-187500.02235174447,-187500.02235174447,-187500.02235174447,-187500.02235174447
não,9735.63757367582,-13157.443780594323,-8991.927980414388,7031.098846328122,-187500.02235174447,-187500.02235174447,-187500.02235174447,-187500.02235174447
não,9697.39373891279,-13061.174817225316,-9196.491145669359,7138.230757502408,-187500.02235174447,-187500.02235174447,-187500.02235174447,-187500.02235174447
não,9593.569885917888,-13167.256196410204,-9295.576428839735,7051.036602382255,-187500.02235174447,-187500.02235174447,-187500.02235174447,-187500.02235174447
não,9616.547479217945,-13267.77199122572,-9124.518528523271,6903.872716888513,-187500.02235174447,-187500.02235174447,-187500.02235174447,-187500.02235174447
