WORD,Channel_1,Channel_2,Channel_3,Channel_4,Channel_5,Channel_6,Channel_7,Channel_8
talvez,14416.22697308385,-13381.296501314224,-6025.493863283857,6509.297372018978,-187500.02235174447,-187500.02235174447,-187500.02235174447,-187500.02235174447
talvez,14511.11012829663,-13258.898348676963,-5996.458947236413,6693.341635863976,-187500.02235174447,-187500.02235174447,-187500.02235174447,-187500.02235174447
talvez,14476.397869157538,-13213.859583599518,-6229.6546971386315,6782.368634029464,-187500.02235174447,-187500.02235174447,-187500.02235174447,-187500.02235174447
talvez,14345.0366669937,-13369.159504074993,-6298.542773549888,6565.8249337464495,-187500.02235174447,-187500.02235174447,-187500.02235174447,-187500.02235174447
talvez,14407.174516579453,-13403.380024836068,-6065.078802714205,6488.800822353462,-187500.02235174447,-187500.02235174447,-187500.02235174447,-187500.02235174447
talvez,14497.29675022325,-13272.443505816878,-6004.28205779577,6650.31452778751,-187500.02235174447,-187500.02235174447,-187500.02235174447,-187500.02235174447
talvez,14513.68057890899,-13180.89076052794,-6206.23006894947,6799.691235982327,-187500.02235174447,-187500.02235174447,-187500.02235174447,-187500.02235174447
talvez,14372.484609184816,-13317.996361016794,-6331.332782665823,6616.943373315737,-187500.02235174447,-187500.02235174447,-187500.02235174447,-187500.02235174447
talvez,14390.030728582231,-13389.052556640216,-6102.361512465658,6514.482976732609,-187500.02235174447,-187500.02235174447,-187500.02235174447,-187500.02235174447
talvez,14528.768006416323,-13257.62429924301,-5942.390077399025,6666.720708217706,-187500.02235174447,-187500.02235174447,-187500.02235174447,-187500.02235174447
talvez,14516.92158185501,-13198.459231669813,-6149.099010121705,6781.094584595512,-187500.02235174447,-187500.02235174447,-187500.02235174447,-187500.02235174447
talvez,14365.26499572575,-13317.996361016794,-6365.218027260069,6638.713972415206,-187500.02235174447,-187500.02235174447,-187500.02235174447,-187500.02235174447
talvez,14373.244568496297,-13415.092338930648,-6169.394394087123,6463.632758096785,-187500.02235174447,-187500.02235174447,-187500.02235174447,-187500.02235174447
talvez,14478.744802325346,-13330.848614078595,-5979.449269705924,6555.274910363545,-187500.02235174447,-187500.02235174447,-187500.02235174447,-187500.02235174447
talvez,14537.820462920721,-13189.116202487494,-6078.802773809764,6775.439593248319,-187500.02235174447,-187500.02235174447,-187500.02235174447,-187500.02235174447
talvez,14406.526315990248,-13261.737020222787,-6351.605814886787,6694.235705642189,-187500.02235174447,-187500.02235174447,-187500.02235174447,-187500.02235174447
talvez,14381.246493011296,-13405.816364981696,-6220.289316211858,6500.826060870417,-187500.02235174447,-187500.02235174447,-187500.02235174447,-187500.02235174447
talvez,14498.43668919047,-13350.272280010258,-5986.020682575784,6574.340948383921,-187500.02235174447,-187500.02235174447,-187500.02235174447,-187500.02235174447
talvez,14529.147986072063,-13199.129784003471,-6094.359587950657,6758.1169912954565,-187500.02235174447,-187500.02235174447,-187500.02235174447,-187500.02235174447
talvez,14445.105426920109,-13216.273572000691,-6332.9644600110605,6737.575738141029,-187500.02235174447,-187500.02235174447,-187500.02235174447,-187500.02235174447
talvez,14358.60417587807,-13398.708510244907,-6254.487485228477,6496.266305001534,-187500.02235174447,-187500.02235174447,-187500.02235174447,-187500.02235174447
talvez,14484.668014606003,-13365.046783095215,-5973.816630103187,6530.263308318056,-187500.02235174447,-187500.02235174447,-187500.02235174447,-187500.02235174447
talvez,14553.578442761713,-13222.487356959267,-6027.863148196119,6719.828453043516,-187500.02235174447,-187500.02235174447,-187500.02235174447,-187500.02235174447
talvez,14471.592244099647,-13217.23469701227,-6315.217174913547,6745.175331255834,-187500.02235174447,-187500.02235174447,-187500.02235174447,-187500.02235174447
talvez,14399.641978698013,-13385.610387994098,-6282.628331497709,6523.602488470375,-187500.02235174447,-187500.02235174447,-187500.02235174447,-187500.02235174447
talvez,14483.617482616603,-13391.533600274755,-6004.058540351217,6525.211814071156,-187500.02235174447,-187500.02235174447,-187500.02235174447,-187500.02235174447
talvez,14564.463742311447,-13245.710819448332,-5975.850638848619,6715.983952997202,-187500.02235174447,-187500.02235174447,-187500.02235174447,-187500.02235174447
talvez,14525.191727303474,-13194.145344989938,-6242.529301944888,6797.009026647691,-187500.02235174447,-187500.02235174447,-187500.02235174447,-187500.02235174447
talvez,14383.079336056631,-13357.000155091306,-6338.842968802806,6569.557675070486,-187500.02235174447,-187500.02235174447,-187500.02235174447,-187500.02235174447
talvez,14440.702133262414,-13396.339225332646,-6074.891218530085,6492.511211933042,-187500.02235174447,-187500.02235174447,-187500.02235174447,-187500.02235174447
talvez,14565.916605701042,-13279.43960183139,-5965.166504998983,6653.51082724462,-187500.02235174447,-187500.02235174447,-187500.02235174447,-187500.02235174447
talvez,14543.900137412566,-13185.539923374645,-6219.842281322752,6779.395852016909,-187500.02235174447,-187500.02235174447,-187500.02235174447,-187500.02235174447
talvez,14397.652673441491,-13335.140149014014,-6358.244282990013,6611.444844179731,-187500.02235174447,-187500.02235174447,-187500.02235174447,-187500.02235174447
talvez,14437.863461716588,-13396.249818354825,-6087.2517332138705,6496.065139301436,-187500.02235174447,-187500.02235174447,-187500.02235174447,-187500.02235174447
talvez,14559.099323642175,-13278.478476819811,-5949.564987369178,6626.889899598348,-187500.02235174447,-187500.02235174447,-187500.02235174447,-187500.02235174447
talvez,14593.40925138107,-13184.89172278544,-6151.7588677118865,6776.154849070889,-187500.02235174447,-187500.02235174447,-187500.02235174447,-187500.02235174447
talvez,14442.7584937523,-13307.02165448924,-6340.6534601036865,6649.666327198306,-187500.02235174447,-187500.02235174447,-187500.02235174447,-187500.02235174447
talvez,14426.24055459983,-13423.451891356934,-6139.063076861272,6466.337319175878,-187500.02235174447,-187500.02235174447,-187500.02235174447,-187500.02235174447
talvez,14523.358884258138,-13319.315113939658,-5974.487182436846,6606.281591210555,-187500.02235174447,-187500.02235174447,-187500.02235174447,-187500.02235174447
talvez,14580.98168146392,-13175.302824414113,-6125.4061609990795,6787.822459676559,-187500.02235174447,-187500.02235174447,-187500.02235174447,-187500.02235174447
talvez,14503.287017737273,-13249.398857283457,-6307.461119587555,6714.642848329884,-187500.02235174447,-187500.02235174447,-187500.02235174447,-187500.02235174447
talvez,14430.509737790793,-13406.397510337534,-6195.925914755573,6499.060273058448,-187500.02235174447,-187500.02235174447,-187500.02235174447,-187500.02235174447
talvez,14517.659189422035,-13351.993364333317,-6005.6008107186335,6521.657886702763,-187500.02235174447,-187500.02235174447,-187500.02235174447,-187500.02235174447
talvez,14600.293588673305,-13200.984978793262,-6079.5850848657,6741.688459120805,-187500.02235174447,-187500.02235174447,-187500.02235174447,-187500.02235174447
talvez,14494.458078677426,-13227.583554695077,-6336.697201335097,6738.425104430331,-187500.02235174447,-187500.02235174447,-187500.02235174447,-187500.02235174447
talvez,14425.860574944089,-13391.019510152282,-6234.393266963157,6538.6452124887965,-187500.02235174447,-187500.02235174447,-187500.02235174447,-187500.02235174447
talvez,14515.155794043041,-13362.677498182953,-5985.28307500876,6554.447895818698,-187500.02235174447,-187500.02235174447,-187500.02235174447,-187500.02235174447
talvez,14598.12546946114,-13211.42324345389,-6018.900098669541,6734.535900895107,-187500.02235174447,-187500.02235174447,-187500.02235174447,-187500.02235174447
talvez,14531.561974473236,-13209.635103897466,-6289.065633900837,6771.595093202007,-187500.02235174447,-187500.02235174447,-187500.02235174447,-187500.02235174447
talvez,14443.071418174675,-13371.21586456488,-6288.305674589357,6551.318651594956,-187500.02235174447,-187500.02235174447,-187500.02235174447,-187500.02235174447
talvez,14493.184029243474,-13369.718297686375,-6038.5919855346665,6511.57724995342,-187500.02235174447,-187500.02235174447,-187500.02235174447,-187500.02235174447
talvez,14590.45882111297,-13232.053903586138,-6004.796147918242,6699.644827800373,-187500.02235174447,-187500.02235174447,-187500.02235174447,-187500.02235174447
talvez,14566.743620245888,-13187.439821653346,-6255.828589895796,6768.91288386737,-187500.02235174447,-187500.02235174447,-187500.02235174447,-187500.02235174447
talvez,14437.975220438866,-13343.432646206933,-6323.532023850921,6583.326349654955,-187500.02235174447,-187500.02235174447,-187500.02235174447,-187500.02235174447
talvez,14482.902226794033,-13372.713431443386,-6057.814485766231,6508.492709218587,-187500.02235174447,-187500.02235174447,-187500.02235174447,-187500.02235174447
talvez,14609.502507388892,-13259.479494032801,-5958.5280368957565,6669.045289641058,-187500.02235174447,-187500.02235174447,-187500.02235174447,-187500.02235174447
talvez,14610.17305972255,-13180.063745983094,-6173.55181855581,6808.58723027554,-187500.02235174447,-187500.02235174447,-187500.02235174447,-187500.02235174447
talvez,14454.515511335792,-13320.656218606975,-6323.464968617555,6624.855890852916,-187500.02235174447,-187500.02235174447,-187500.02235174447,-187500.02235174447
talvez,14464.23852017385,-13401.07779515717,-6104.753149122375,6480.083642015892,-187500.02235174447,-187500.02235174447,-187500.02235174447,-187500.02235174447
talvez,14597.857248527676,-13287.91091297995,-5942.635946588033,6641.418533494299,-187500.02235174447,-187500.02235174447,-187500.02235174447,-187500.02235174447
talvez,14612.005902767885,-13165.378649875958,-6143.3099083077805,6825.619259550484,-187500.02235174447,-187500.02235174447,-187500.02235174447,-187500.02235174447
talvez,14476.95666276892,-13268.800171470664,-6346.7554863399855,6678.567132779019,-187500.02235174447,-187500.02235174447,-187500.02235174447,-187500.02235174447
talvez,14459.254081160318,-13388.851390940117,-6149.5013415219,6494.321703233923,-187500.02235174447,-187500.02235174447,-187500.02235174447,-187500.02235174447
talvez,14556.662983496546,-13313.235439447813,-5966.328795710659,6584.39923338881,-187500.02235174447,-187500.02235174447,-187500.02235174447,-187500.02235174447
talvez,14606.708539331978,-13185.539923374645,-6109.82699511373,6787.040148620624,-187500.02235174447,-187500.02235174447,-187500.02235174447,-187500.02235174447
talvez,14491.284130964772,-13241.32987753509,-6333.970288511549,6734.848825317482,-187500.02235174447,-187500.02235174447,-187500.02235174447,-187500.02235174447
talvez,14448.8605199886,-13383.26345482629,-6180.905542481607,6523.982468126115,-187500.02235174447,-187500.02235174447,-187500.02235174447,-187500.02235174447
talvez,14562.563844032748,-13331.407407689978,-5940.9148622649745,6581.2029339317005,-187500.02235174447,-187500.02235174447,-187500.02235174447,-187500.02235174447
talvez,14609.815431811267,-13184.84701929653,-6043.263500125826,6771.192761801811,-187500.02235174447,-187500.02235174447,-187500.02235174447,-187500.02235174447
talvez,14509.947837584954,-13217.860545857018,-6322.235622672513,6727.875081047426,-187500.02235174447,-187500.02235174447,-187500.02235174447,-187500.02235174447
talvez,14447.340601365639,-13364.443285994923,-6232.202796006536,6530.419770529244,-187500.02235174447,-187500.02235174447,-187500.02235174447,-187500.02235174447
talvez,14535.138253586085,-13346.539538686222,-5974.777755114765,6548.547035282498,-187500.02235174447,-187500.02235174447,-187500.02235174447,-187500.02235174447
talvez,14612.31882719026,-13216.47473770079,-6012.485148010868,6747.611671401462,-187500.02235174447,-187500.02235174447,-187500.02235174447,-187500.02235174447
talvez,14537.842814665177,-13203.108394516516,-6297.536945049399,6778.5464857276065,-187500.02235174447,-187500.02235174447,-187500.02235174447,-187500.02235174447
talvez,14455.47663634737,-13348.953527087395,-6257.907302130139,6568.01540470307,-187500.02235174447,-187500.02235174447,-187500.02235174447,-187500.02235174447
talvez,14555.746561973878,-13339.319925227157,-5967.781659100254,6548.368221326855,-187500.02235174447,-187500.02235174447,-187500.02235174447,-187500.02235174447
talvez,14625.014618040876,-13224.342551749058,-5975.761231870799,6716.632153586406,-187500.02235174447,-187500.02235174447,-187500.02235174447,-187500.02235174447
talvez,14546.805864191756,-13198.459231669813,-6257.750839918953,6777.67476769385,-187500.02235174447,-187500.02235174447,-187500.02235174447,-187500.02235174447
talvez,14421.926667919955,-13338.4482071934,-6339.580576369832,6572.597512316408,-187500.02235174447,-187500.02235174447,-187500.02235174447,-187500.02235174447
talvez,14492.804049587734,-13390.527771774267,-6064.609416080644,6487.906752575249,-187500.02235174447,-187500.02235174447,-187500.02235174447,-187500.02235174447
talvez,14605.814469553767,-13255.679697475398,-5961.210246230394,6659.612853480918,-187500.02235174447,-187500.02235174447,-187500.02235174447,-187500.02235174447
talvez,14609.100175988697,-13146.156149644394,-6186.314664639791,6826.1109979285,-187500.02235174447,-187500.02235174447,-187500.02235174447,-187500.02235174447
talvez,14454.247290402329,-13311.939038269406,-6347.381335184734,6644.1230945733905,-187500.02235174447,-187500.02235174447,-187500.02235174447,-187500.02235174447
talvez,14471.480485377371,-13389.633701996054,-6099.478137430923,6492.3323979774,-187500.02235174447,-187500.02235174447,-187500.02235174447,-187500.02235174447
talvez,14613.078786501741,-13277.785572741697,-5926.609745813578,6639.540986960053,-187500.02235174447,-187500.02235174447,-187500.02235174447,-187500.02235174447
talvez,14655.256528288905,-13178.342661660035,-6115.034951571817,6814.063407667089,-187500.02235174447,-187500.02235174447,-187500.02235174447,-187500.02235174447
talvez,14472.888645278055,-13282.948825710873,-6365.262730748979,6678.298911845554,-187500.02235174447,-187500.02235174447,-187500.02235174447,-187500.02235174447
talvez,14450.894528734032,-13390.84069619664,-6179.430327347556,6496.109842790347,-187500.02235174447,-187500.02235174447,-187500.02235174447,-187500.02235174447
talvez,14597.633731083124,-13298.527991596222,-5943.194740199416,6597.922038784271,-187500.02235174447,-187500.02235174447,-187500.02235174447,-187500.02235174447
talvez,14661.157388825106,-13159.678955039853,-6074.175962707515,6803.289866839632,-187500.02235174447,-187500.02235174447,-187500.02235174447,-187500.02235174447
talvez,14516.519250454814,-13232.836214642075,-6343.11215199377,6700.51654583413,-187500.02235174447,-187500.02235174447,-187500.02235174447,-187500.02235174447
talvez,14444.613688542091,-13384.872780427073,-6216.534223143366,6494.232296256101,-187500.02235174447,-187500.02235174447,-187500.02235174447,-187500.02235174447
talvez,14537.976925131909,-13345.44430320791,-5993.821441390686,6548.636442260318,-187500.02235174447,-187500.02235174447,-187500.02235174447,-187500.02235174447
talvez,14630.803719854799,-13197.766327591698,-6055.914587487529,6756.082982550023,-187500.02235174447,-187500.02235174447,-187500.02235174447,-187500.02235174447
talvez,14554.830140451211,-13213.680769643875,-6301.20263114007,6766.72241291075,-187500.02235174447,-187500.02235174447,-187500.02235174447,-187500.02235174447
talvez,14487.193761729452,-13360.531730715244,-6224.42438893609,6550.871616705849,-187500.02235174447,-187500.02235174447,-187500.02235174447,-187500.02235174447
talvez,14560.999221920876,-13335.408369947478,-5970.508571923801,6544.166093369257,-187500.02235174447,-187500.02235174447,-187500.02235174447,-187500.02235174447
talvez,14630.714312876979,-13205.768252106698,-6012.261630566315,6732.412485171853,-187500.02235174447,-187500.02235174447,-187500.02235174447,-187500.02235174447
talvez,14556.97590791892,-13195.642911868443,-6302.253163129469,6763.43670647582,-187500.02235174447,-187500.02235174447,-187500.02235174447,-187500.02235174447
talvez,14460.885758505556,-13361.135227815537,-6273.441764526578,6570.630558804341,-187500.02235174447,-187500.02235174447,-187500.02235174447,-187500.02235174447
talvez,14538.312201298739,-13369.003041863805,-6002.3151042837035,6511.197270297679,-187500.02235174447,-187500.02235174447,-187500.02235174447,-187500.02235174447
talvez,14617.28091445934,-13241.911022890929,-5993.553220457223,6691.03940618508,-187500.02235174447,-187500.02235174447,-187500.02235174447,-187500.02235174447
talvez,14578.321823873739,-13191.954874033318,-6258.890778886173,6758.921654095848,-187500.02235174447,-187500.02235174447,-187500.02235174447,-187500.02235174447
talvez,14457.018906714788,-13326.802948332186,-6318.547584837388,6584.600399088908,-187500.02235174447,-187500.02235174447,-187500.02235174447,-187500.02235174447
talvez,14519.73790165638,-13389.566646762687,-6036.803845978242,6519.467415746143,-187500.02235174447,-187500.02235174447,-187500.02235174447,-187500.02235174447
talvez,14611.961199278976,-13255.970270153317,-5963.13249625355,6672.420403053809,-187500.02235174447,-187500.02235174447,-187500.02235174447,-187500.02235174447
talvez,14608.384920166127,-13159.813065506587,-6183.297179138324,6805.010951162691,-187500.02235174447,-187500.02235174447,-187500.02235174447,-187500.02235174447
talvez,14459.522302093781,-13302.77482304273,-6350.935262553127,6610.483719168154,-187500.02235174447,-187500.02235174447,-187500.02235174447,-187500.02235174447
talvez,14476.688441835457,-13390.527771774267,-6115.5937451832,6481.089470516381,-187500.02235174447,-187500.02235174447,-187500.02235174447,-187500.02235174447
talvez,14589.542399590302,-13274.455162817856,-5967.08875502214,6629.8626816109045,-187500.02235174447,-187500.02235174447,-187500.02235174447,-187500.02235174447
talvez,14623.13707150663,-13140.054123408096,-6141.410010029079,6825.194576405833,-187500.02235174447,-187500.02235174447,-187500.02235174447,-187500.02235174447
talvez,14477.806029058222,-13270.923587193918,-6348.8118468298735,6684.13271714839,-187500.02235174447,-187500.02235174447,-187500.02235174447,-187500.02235174447
talvez,14469.155903954019,-13408.163298149502,-6151.512998522878,6500.513136448042,-187500.02235174447,-187500.02235174447,-187500.02235174447,-187500.02235174447
talvez,14553.64549799508,-13319.315113939658,-5975.202438259415,6575.816163517972,-187500.02235174447,-187500.02235174447,-187500.02235174447,-187500.02235174447
talvez,14603.959274763976,-13168.217321421782,-6113.693846904498,6767.348261755498,-187500.02235174447,-187500.02235174447,-187500.02235174447,-187500.02235174447
talvez,14515.133442298586,-13231.316296019113,-6331.15396871018,6720.119025721434,-187500.02235174447,-187500.02235174447,-187500.02235174447,-187500.02235174447
talvez,14458.203549170918,-13382.101164114614,-6188.102804196215,6511.197270297679,-187500.02235174447,-187500.02235174447,-187500.02235174447,-187500.02235174447
talvez,14554.830140451211,-13338.716428126863,-5970.061537034695,6554.514951052064,-187500.02235174447,-187500.02235174447,-187500.02235174447,-187500.02235174447
talvez,14624.724045362957,-13180.84605703903,-6053.567654319722,6761.089773308012,-187500.02235174447,-187500.02235174447,-187500.02235174447,-187500.02235174447
talvez,14541.799073433767,-13201.499068915733,-6306.656456787165,6755.278319749632,-187500.02235174447,-187500.02235174447,-187500.02235174447,-187500.02235174447
talvez,14462.606842828614,-13362.230463293847,-6227.553633159832,6540.634517745319,-187500.02235174447,-187500.02235174447,-187500.02235174447,-187500.02235174447
talvez,14542.02259087832,-13344.72904738534,-5984.836040119653,6532.476131019132,-187500.02235174447,-187500.02235174447,-187500.02235174447,-187500.02235174447
talvez,14634.156481523096,-13179.013213993694,-6007.254839808326,6733.597127627984,-187500.02235174447,-187500.02235174447,-187500.02235174447,-187500.02235174447
talvez,14551.41032354955,-13189.876161798975,-6299.705064261564,6762.296767508598,-187500.02235174447,-187500.02235174447,-187500.02235174447,-187500.02235174447
talvez,14444.457226330904,-13357.156617302493,-6306.231773642514,6548.792904471506,-187500.02235174447,-187500.02235174447,-187500.02235174447,-187500.02235174447
talvez,14519.156756300541,-13387.040899639238,-6021.850528937642,6506.726921406618,-187500.02235174447,-187500.02235174447,-187500.02235174447,-187500.02235174447
talvez,14612.497641145903,-13244.19090082537,-5962.819571831175,6695.286237631588,-187500.02235174447,-187500.02235174447,-187500.02235174447,-187500.02235174447
talvez,14578.321823873739,-13152.03465843614,-6228.984144804972,6801.367616816476,-187500.02235174447,-187500.02235174447,-187500.02235174447,-187500.02235174447
talvez,14469.804104543222,-13309.25682893477,-6303.169584652136,6619.111492527902,-187500.02235174447,-187500.02235174447,-187500.02235174447,-187500.02235174447
talvez,14482.656357605025,-13389.32077757368,-6053.72411653091,6508.358598751855,-187500.02235174447,-187500.02235174447,-187500.02235174447,-187500.02235174447
talvez,14591.576408335735,-13251.298755562158,-5966.03822303274,6664.5525890055405,-187500.02235174447,-187500.02235174447,-187500.02235174447,-187500.02235174447
talvez,14590.07884145723,-13163.098771941517,-6198.22814443447,6797.612523747984,-187500.02235174447,-187500.02235174447,-187500.02235174447,-187500.02235174447
talvez,14465.110238207608,-13292.425965359924,-6313.294924890391,6653.197902822245,-187500.02235174447,-187500.02235174447,-187500.02235174447,-187500.02235174447
talvez,14471.279319677273,-13372.087582598637,-6102.5179746768445,6500.557839936953,-187500.02235174447,-187500.02235174447,-187500.02235174447,-187500.02235174447
talvez,14557.489998041392,-13290.727232781319,-5989.798127388732,6607.533288900053,-187500.02235174447,-187500.02235174447,-187500.02235174447,-187500.02235174447
talvez,14579.93114947452,-13178.789696549142,-6171.830734232752,6782.458041007286,-187500.02235174447,-187500.02235174447,-187500.02235174447,-187500.02235174447
talvez,14457.175368925975,-13259.367735310523,-6356.724364367052,6691.508792818641,-187500.02235174447,-187500.02235174447,-187500.02235174447,-187500.02235174447
talvez,14434.041313414731,-13374.948605888916,-6165.527542296355,6512.136043564802,-187500.02235174447,-187500.02235174447,-187500.02235174447,-187500.02235174447
talvez,14549.108093870653,-13300.226724174825,-5948.715621079877,6597.586762617441,-187500.02235174447,-187500.02235174447,-187500.02235174447,-187500.02235174447
talvez,14609.100175988697,-13152.74991425871,-6053.478247341901,6801.837003450037,-187500.02235174447,-187500.02235174447,-187500.02235174447,-187500.02235174447
talvez,14537.39577977607,-13169.290205155636,-6256.163866062626,6765.828343132537,-187500.02235174447,-187500.02235174447,-187500.02235174447,-187500.02235174447
talvez,14402.860629899578,-13373.607501221599,-6223.955002302529,6491.751252621562,-187500.02235174447,-187500.02235174447,-187500.02235174447,-187500.02235174447
talvez,14477.537808124758,-13361.962242360383,-6049.76785776232,6510.638476686297,-187500.02235174447,-187500.02235174447,-187500.02235174447,-187500.02235174447
talvez,14611.60357136769,-13175.593397092032,-6062.217779423926,6762.699098908794,-187500.02235174447,-187500.02235174447,-187500.02235174447,-187500.02235174447
talvez,14523.738863913879,-13199.912095059408,-6293.357168836256,6771.86331413547,-187500.02235174447,-187500.02235174447,-187500.02235174447,-187500.02235174447
talvez,14471.43578188846,-13303.400671887479,-6145.343917053213,6620.07261753948,-187500.02235174447,-187500.02235174447,-187500.02235174447,-187500.02235174447
talvez,14465.110238207608,-13379.731879202353,-6024.465683038912,6502.569496937931,-187500.02235174447,-187500.02235174447,-187500.02235174447,-187500.02235174447
talvez,14543.45310252346,-13241.754560679741,-6077.193448208982,6688.468955572719,-187500.02235174447,-187500.02235174447,-187500.02235174447,-187500.02235174447
talvez,14514.194669031462,-13185.338757674546,-6222.256269723925,6788.470660265763,-187500.02235174447,-187500.02235174447,-187500.02235174447,-187500.02235174447
talvez,14395.08222282913,-13338.090579282116,-6311.842061500795,6557.845360975905,-187500.02235174447,-187500.02235174447,-187500.02235174447,-187500.02235174447
talvez,14470.474656876882,-13359.995288848317,-6069.102116716161,6516.695799433684,-187500.02235174447,-187500.02235174447,-187500.02235174447,-187500.02235174447
talvez,14578.7912105073,-13196.268760713192,-6008.640647964555,6714.0393512295905,-187500.02235174447,-187500.02235174447,-187500.02235174447,-187500.02235174447
talvez,14526.73399767089,-13153.576928803555,-6262.020023109916,6807.87197445297,-187500.02235174447,-187500.02235174447,-187500.02235174447,-187500.02235174447
talvez,14443.004362941309,-13309.5921051016,-6238.416580965112,6639.540986960053,-187500.02235174447,-187500.02235174447,-187500.02235174447,-187500.02235174447
talvez,14459.701116049424,-13387.845562439628,-6052.427715352502,6510.504366219565,-187500.02235174447,-187500.02235174447,-187500.02235174447,-187500.02235174447
talvez,14526.421073248515,-13268.464895303834,-6008.6182962201,6622.710123385206,-187500.02235174447,-187500.02235174447,-187500.02235174447,-187500.02235174447
talvez,14525.147023814563,-13182.075402984072,-6204.307818926313,6792.784546945638,-187500.02235174447,-187500.02235174447,-187500.02235174447,-187500.02235174447
talvez,14391.9976820943,-13298.371529385035,-6390.274332794468,6647.632318452874,-187500.02235174447,-187500.02235174447,-187500.02235174447,-187500.02235174447
talvez,14433.370761081072,-13374.166294832981,-6040.983622191385,6514.9300116217155,-187500.02235174447,-187500.02235174447,-187500.02235174447,-187500.02235174447
talvez,14551.052695638264,-13293.454145604866,-5903.341579835604,6620.430245450765,-187500.02235174447,-187500.02235174447,-187500.02235174447,-187500.02235174447
talvez,14507.19857301695,-13176.062783725594,-6294.832383970307,6751.590281914507,-187500.02235174447,-187500.02235174447,-187500.02235174447,-187500.02235174447
talvez,14417.813946940178,-13264.061601646139,-6408.558059758909,6681.450507813753,-187500.02235174447,-187500.02235174447,-187500.02235174447,-187500.02235174447
talvez,14439.092807661631,-13368.935986630438,-6107.0330270568165,6545.797770714495,-187500.02235174447,-187500.02235174447,-187500.02235174447,-187500.02235174447
talvez,14459.209377671406,-13367.594881963121,-6029.248956352349,6527.2905263055,-187500.02235174447,-187500.02235174447,-187500.02235174447,-187500.02235174447
talvez,14498.973131057399,-13232.90326987544,-6205.783034060363,6702.595258068473,-187500.02235174447,-187500.02235174447,-187500.02235174447,-187500.02235174447
talvez,14456.728334036869,-13234.33378152058,-6338.038306002415,6713.61466808494,-187500.02235174447,-187500.02235174447,-187500.02235174447,-187500.02235174447
talvez,14373.043402796198,-13421.931972733972,-6208.353484672723,6495.014607312037,-187500.02235174447,-187500.02235174447,-187500.02235174447,-187500.02235174447
talvez,14458.29295614874,-13399.982559678861,-6009.087682853661,6504.268229516534,-187500.02235174447,-187500.02235174447,-187500.02235174447,-187500.02235174447
talvez,14587.21781816695,-13168.619652821977,-6060.049660211762,6772.846790891504,-187500.02235174447,-187500.02235174447,-187500.02235174447,-187500.02235174447
talvez,14434.443644814926,-13293.163572926947,-6280.236694840992,6698.1249091774125,-187500.02235174447,-187500.02235174447,-187500.02235174447,-187500.02235174447
talvez,14334.196070932874,-13449.066990502715,-6346.710782851074,6480.575380393909,-187500.02235174447,-187500.02235174447,-187500.02235174447,-187500.02235174447
talvez,14429.57096452367,-13407.403338838023,-6154.195207857515,6471.634682611786,-187500.02235174447,-187500.02235174447,-187500.02235174447,-187500.02235174447
talvez,14519.156756300541,-13286.234532145803,-6133.341030280713,6624.654725152818,-187500.02235174447,-187500.02235174447,-187500.02235174447,-187500.02235174447
talvez,14462.450380617427,-13274.857494218051,-6319.978096482528,6654.628414467385,-187500.02235174447,-187500.02235174447,-187500.02235174447,-187500.02235174447
talvez,14402.637112455024,-13421.261420400313,-6266.62448246771,6519.199194812679,-187500.02235174447,-187500.02235174447,-187500.02235174447,-187500.02235174447
talvez,14445.32894436466,-13474.793848370773,-6129.87650989014,6425.478330311576,-187500.02235174447,-187500.02235174447,-187500.02235174447,-187500.02235174447
talvez,14550.382143304605,-13334.559003658176,-6071.96314000644,6595.664512594284,-187500.02235174447,-187500.02235174447,-187500.02235174447,-187500.02235174447
talvez,14526.242259292872,-13233.484415231278,-6272.346529048268,6707.289124404088,-187500.02235174447,-187500.02235174447,-187500.02235174447,-187500.02235174447
talvez,14409.074414858153,-13386.057422883205,-6366.223855760558,6525.6141454713525,-187500.02235174447,-187500.02235174447,-187500.02235174447,-187500.02235174447
talvez,14459.43289511596,-13482.14757229657,-6082.5578668782555,6403.126585856269,-187500.02235174447,-187500.02235174447,-187500.02235174447,-187500.02235174447
talvez,14579.21589365195,-13367.058440096192,-6004.036188606762,6543.204968357679,-187500.02235174447,-187500.02235174447,-187500.02235174447,-187500.02235174447
talvez,14559.859282953656,-13278.098497164072,-6223.575022646788,6675.862571699927,-187500.02235174447,-187500.02235174447,-187500.02235174447,-187500.02235174447
talvez,14438.735179750345,-13370.41120176449,-6351.49405616451,6537.0582386324695,-187500.02235174447,-187500.02235174447,-187500.02235174447,-187500.02235174447
talvez,14449.821645000178,-13461.315746464223,-6136.626736715643,6408.669818481186,-187500.02235174447,-187500.02235174447,-187500.02235174447,-187500.02235174447
talvez,14553.176111361518,-13380.000100135816,-6032.422904065002,6510.370255752833,-187500.02235174447,-187500.02235174447,-187500.02235174447,-187500.02235174447
talvez,14545.844739180176,-13321.796157574196,-6231.778112861885,6649.375754520387,-187500.02235174447,-187500.02235174447,-187500.02235174447,-187500.02235174447
talvez,14472.77688655578,-13353.155655044993,-6329.25407043148,6604.292285954033,-187500.02235174447,-187500.02235174447,-187500.02235174447,-187500.02235174447
talvez,14415.33290330564,-13513.417662789543,-6158.151466626105,6399.773824187973,-187500.02235174447,-187500.02235174447,-187500.02235174447,-187500.02235174447
talvez,14528.20921280494,-13456.867749317616,-6032.467607553913,6452.032202724481,-187500.02235174447,-187500.02235174447,-187500.02235174447,-187500.02235174447
talvez,14602.37230090765,-13316.476442393834,-6129.8094546567745,6663.658519227329,-187500.02235174447,-187500.02235174447,-187500.02235174447,-187500.02235174447
talvez,14496.91677056751,-13359.16827430347,-6338.798265313896,6619.379713461365,-187500.02235174447,-187500.02235174447,-187500.02235174447,-187500.02235174447
talvez,14436.790577982734,-13478.303072250257,-6260.09777308676,6395.906972397205,-187500.02235174447,-187500.02235174447,-187500.02235174447,-187500.02235174447
talvez,14521.123709812608,-13475.710269893441,-6019.660057981022,6405.540574257443,-187500.02235174447,-187500.02235174447,-187500.02235174447,-187500.02235174447
talvez,14640.638487415134,-13315.381206915523,-6018.788339947265,6655.142504589857,-187500.02235174447,-187500.02235174447,-187500.02235174447,-187500.02235174447
talvez,14552.12557937212,-13328.144052999503,-6299.660360772653,6643.631356195374,-187500.02235174447,-187500.02235174447,-187500.02235174447,-187500.02235174447
talvez,14388.287292514719,-13524.504128039376,-6356.478495178044,6376.796230887918,-187500.02235174447,-187500.02235174447,-187500.02235174447,-187500.02235174447
talvez,14496.089756022664,-13501.14655508358,-6041.296546613758,6408.781577203462,-187500.02235174447,-187500.02235174447,-187500.02235174447,-187500.02235174447
talvez,14619.091405760219,-13338.001172304294,-6017.871918424597,6585.092137466924,-187500.02235174447,-187500.02235174447,-187500.02235174447,-187500.02235174447
talvez,14559.702820742468,-13326.266506465257,-6293.670093258631,6629.370943232888,-187500.02235174447,-187500.02235174447,-187500.02235174447,-187500.02235174447
talvez,14435.807101226701,-13495.938598625495,-6319.307544148868,6447.874778255794,-187500.02235174447,-187500.02235174447,-187500.02235174447,-187500.02235174447
talvez,14511.579514930192,-13502.331197539712,-6033.674601754499,6395.862268908295,-187500.02235174447,-187500.02235174447,-187500.02235174447,-187500.02235174447
talvez,14617.347969692704,-13401.346016090634,-5967.84871433362,6549.239939360612,-187500.02235174447,-187500.02235174447,-187500.02235174447,-187500.02235174447
talvez,14598.214876438962,-13319.11394823956,-6217.271830710391,6660.059888370024,-187500.02235174447,-187500.02235174447,-187500.02235174447,-187500.02235174447
talvez,14483.416316916504,-13460.421676686012,-6317.027666214427,6501.451909715165,-187500.02235174447,-187500.02235174447,-187500.02235174447,-187500.02235174447
talvez,14495.352148455639,-13512.85886917816,-6090.939771048996,6373.219951775069,-187500.02235174447,-187500.02235174447,-187500.02235174447,-187500.02235174447
talvez,14585.966120477453,-13410.309065617212,-5981.103298795617,6505.698741161674,-187500.02235174447,-187500.02235174447,-187500.02235174447,-187500.02235174447
talvez,14608.697844588502,-13303.132450954015,-6177.105745924205,6679.572961279508,-187500.02235174447,-187500.02235174447,-187500.02235174447,-187500.02235174447
talvez,14485.159752984018,-13419.696798288442,-6326.907137263673,6537.661735732763,-187500.02235174447,-187500.02235174447,-187500.02235174447,-187500.02235174447
talvez,14512.048901563752,-13502.867639406639,-6093.242000727892,6394.141184585236,-187500.02235174447,-187500.02235174447,-187500.02235174447,-187500.02235174447
talvez,14635.98932456843,-13387.286768828246,-5936.757437796287,6503.374159738321,-187500.02235174447,-187500.02235174447,-187500.02235174447,-187500.02235174447
$SILENCE,14597.700786316489,-13335.631887392032,-6164.432306818046,6627.895728098837,-187500.02235174447,-187500.02235174447,-187500.02235174447,-187500.02235174447
$SILENCE,14482.43284016047,-13412.70070227393,-6353.729230610041,6560.3040528659885,-187500.02235174447,-187500.02235174447,-187500.02235174447,-187500.02235174447
$SILENCE,14465.736087052357,-13532.349590343189,-6165.348728340713,6374.695166909119,-187500.02235174447,-187500.02235174447,-187500.02235174447,-187500.02235174447
$SILENCE,14568.26353886885,-13466.166075011024,-5951.062554247685,6448.545330589453,-187500.02235174447,-187500.02235174447,-187500.02235174447,-187500.02235174447
$SILENCE,14628.680304131545,-13322.198488974393,-6073.326596418214,6645.128923073879,-187500.02235174447,-187500.02235174447,-187500.02235174447,-187500.02235174447
$SILENCE,14526.890459882077,-13362.610442949586,-6317.25118365898,6610.506070912608,-187500.02235174447,-187500.02235174447,-187500.02235174447,-187500.02235174447
$SILENCE,14463.545616095736,-13505.192220829991,-6202.676141581076,6389.849649649817,-187500.02235174447,-187500.02235174447,-187500.02235174447,-187500.02235174447
$SILENCE,14555.634803251602,-13469.831761101696,-5962.685461364444,6420.695056998141,-187500.02235174447,-187500.02235174447,-187500.02235174447,-187500.02235174447
$SILENCE,14634.84938560121,-13323.78546283072,-6022.364619060114,6621.324315228977,-187500.02235174447,-187500.02235174447,-187500.02235174447,-187500.02235174447
$SILENCE,14538.267497809828,-13319.672741850942,-6293.24541011398,6639.272766026588,-187500.02235174447,-187500.02235174447,-187500.02235174447,-187500.02235174447
$SILENCE,14428.8557087011,-13511.651874977575,-6266.892703401173,6416.0235424069815,-187500.02235174447,-187500.02235174447,-187500.02235174447,-187500.02235174447
$SILENCE,14504.96339857142,-13498.263180048845,-6018.676581224988,6387.659178693197,-187500.02235174447,-187500.02235174447,-187500.02235174447,-187500.02235174447
$SILENCE,14595.622074082146,-13353.848559123107,-6019.257726580826,6578.185448430235,-187500.02235174447,-187500.02235174447,-187500.02235174447,-187500.02235174447
$SILENCE,14533.484224496393,-13324.97010528685,-6284.707043732053,6650.493341743153,-187500.02235174447,-187500.02235174447,-187500.02235174447,-187500.02235174447
$SILENCE,14415.37760679455,-13467.976566311905,-6302.767253251941,6449.75232479004,-187500.02235174447,-187500.02235174447,-187500.02235174447,-187500.02235174447
$SILENCE,14506.550372427748,-13491.155325312058,-6006.383121774569,6378.092632066326,-187500.02235174447,-187500.02235174447,-187500.02235174447,-187500.02235174447
$SILENCE,14589.609454823669,-13389.611350251598,-5946.212225700882,6536.790017699006,-187500.02235174447,-187500.02235174447,-187500.02235174447,-187500.02235174447
$SILENCE,14532.388989018082,-13338.4482071934,-6231.4204849506,6652.1697225773005,-187500.02235174447,-187500.02235174447,-187500.02235174447,-187500.02235174447
$SILENCE,14376.932606331422,-13468.691822134475,-6347.247224718002,6451.138132946269,-187500.02235174447,-187500.02235174447,-187500.02235174447,-187500.02235174447
$SILENCE,14410.862554414578,-13515.406968046067,-6097.153556007571,6335.892538534706,-187500.02235174447,-187500.02235174447,-187500.02235174447,-187500.02235174447
$SILENCE,14522.06248307973,-13394.305216587212,-5986.601827931622,6487.549124663964,-187500.02235174447,-187500.02235174447,-187500.02235174447,-187500.02235174447
$SILENCE,14492.714642609912,-13347.031277064238,-6204.553688115321,6584.39923338881,-187500.02235174447,-187500.02235174447,-187500.02235174447,-187500.02235174447
$SILENCE,14394.054042584186,-13428.011647225816,-6296.307599104357,6488.912581075738,-187500.02235174447,-187500.02235174447,-187500.02235174447,-187500.02235174447
$SILENCE,14370.919987072944,-13523.922982683538,-6148.78608569933,6388.687358938141,-187500.02235174447,-187500.02235174447,-187500.02235174447,-187500.02235174447
$SILENCE,14433.661333758992,-13503.739357440396,-6018.251898080337,6369.263693006479,-187500.02235174447,-187500.02235174447,-187500.02235174447,-187500.02235174447
$SILENCE,14476.174351712985,-13362.4539807384,-6167.405088830601,6553.665584762763,-187500.02235174447,-187500.02235174447,-187500.02235174447,-187500.02235174447
$SILENCE,14388.331996003628,-13401.502478301822,-6341.569881626354,6536.164168854257,-187500.02235174447,-187500.02235174447,-187500.02235174447,-187500.02235174447
$SILENCE,14376.664385397959,-13517.418625047045,-6132.826940158241,6348.364811940767,-187500.02235174447,-187500.02235174447,-187500.02235174447,-187500.02235174447
$SILENCE,14482.701061093934,-13436.28179267428,-5918.853690487586,6365.508599937988,-187500.02235174447,-187500.02235174447,-187500.02235174447,-187500.02235174447
$SILENCE,14499.040186290764,-13383.866951926584,-6049.81256125123,6562.226302889145,-187500.02235174447,-187500.02235174447,-187500.02235174447,-187500.02235174447
$SILENCE,14398.56909496416,-13398.552048033722,-6300.107395661759,6548.9717184271485,-187500.02235174447,-187500.02235174447,-187500.02235174447,-187500.02235174447
$SILENCE,14358.000678777777,-13499.537229482798,-6177.84335349123,6330.818692543351,-187500.02235174447,-187500.02235174447,-187500.02235174447,-187500.02235174447
$SILENCE,14424.251249343306,-13481.253502518357,-5993.597923946134,6348.074239262848,-187500.02235174447,-187500.02235174447,-187500.02235174447,-187500.02235174447
$SILENCE,14490.948854797944,-13337.621192648554,-6061.502523601356,6535.046581631492,-187500.02235174447,-187500.02235174447,-187500.02235174447,-187500.02235174447
$SILENCE,14435.784749482245,-13310.06149173516,-6292.731319991508,6568.06010819198,-187500.02235174447,-187500.02235174447,-187500.02235174447,-187500.02235174447
$SILENCE,14378.27371099874,-13473.385688470089,-6212.533260885866,6371.1188877962695,-187500.02235174447,-187500.02235174447,-187500.02235174447,-187500.02235174447
$SILENCE,14444.636040286547,-13466.389592455578,-5947.910958279486,6328.49411112,-187500.02235174447,-187500.02235174447,-187500.02235174447,-187500.02235174447
$SILENCE,14537.708704198445,-13317.214049960858,-5938.009135485785,6513.253630787567,-187500.02235174447,-187500.02235174447,-187500.02235174447,-187500.02235174447
$SILENCE,14472.687479577957,-13284.066412933638,-6241.702287400042,6615.445806437231,-187500.02235174447,-187500.02235174447,-187500.02235174447,-187500.02235174447
$SILENCE,14362.091048013097,-13421.686103544964,-6265.797467922863,6424.874833211284,-187500.02235174447,-187500.02235174447,-187500.02235174447,-187500.02235174447
$SILENCE,14435.024790170764,-13435.946516507449,-5979.7174906393875,6347.694259607108,-187500.02235174447,-187500.02235174447,-187500.02235174447,-187500.02235174447
$SILENCE,14548.817521192734,-13322.801986074684,-5914.025713685241,6509.722055163629,-187500.02235174447,-187500.02235174447,-187500.02235174447,-187500.02235174447
$SILENCE,14533.841852407677,-13230.891612874462,-6166.488667307934,6634.020106079592,-187500.02235174447,-187500.02235174447,-187500.02235174447,-187500.02235174447
$SILENCE,14389.583693693125,-13391.5112485303,-6271.318348803324,6466.203208709146,-187500.02235174447,-187500.02235174447,-187500.02235174447,-187500.02235174447
$SILENCE,14417.746891706813,-13430.827967027184,-6013.066293366706,6370.202466273602,-187500.02235174447,-187500.02235174447,-187500.02235174447,-187500.02235174447
$SILENCE,14537.64164896508,-13332.882622824029,-5868.316396274137,6492.377101466311,-187500.02235174447,-187500.02235174447,-187500.02235174447,-187500.02235174447
$SILENCE,14540.882651911099,-13227.538851206167,-6089.5986663816775,6651.923853388293,-187500.02235174447,-187500.02235174447,-187500.02235174447,-187500.02235174447
$SILENCE,14405.006397367288,-13329.82043383365,-6258.644909697165,6527.067008860947,-187500.02235174447,-187500.02235174447,-187500.02235174447,-187500.02235174447
$SILENCE,14410.19200208092,-13419.22741165488,-6036.982659933885,6373.219951775069,-187500.02235174447,-187500.02235174447,-187500.02235174447,-187500.02235174447
$SILENCE,14523.627105191603,-13325.01480877576,-5864.49424797228,6495.506345690053,-187500.02235174447,-187500.02235174447,-187500.02235174447,-187500.02235174447
$SILENCE,14571.370431348138,-13194.346510690035,-6031.819406964709,6692.939304463781,-187500.02235174447,-187500.02235174447,-187500.02235174447,-187500.02235174447
$SILENCE,14423.37953130955,-13304.853535277074,-6291.881953702206,6561.443991833209,-187500.02235174447,-187500.02235174447,-187500.02235174447,-187500.02235174447
$SILENCE,14394.523429217748,-13417.752196520829,-6117.001905083884,6366.760297627485,-187500.02235174447,-187500.02235174447,-187500.02235174447,-187500.02235174447
$SILENCE,14509.612561418124,-13337.464730437367,-5876.251265555771,6458.223635938602,-187500.02235174447,-187500.02235174447,-187500.02235174447,-187500.02235174447
$SILENCE,14559.948689931476,-13207.399929451934,-5994.201421046427,6633.528367701575,-187500.02235174447,-187500.02235174447,-187500.02235174447,-187500.02235174447
$SILENCE,14442.780845496756,-13226.890650616962,-6279.029700640404,6584.689806066729,-187500.02235174447,-187500.02235174447,-187500.02235174447,-187500.02235174447
$SILENCE,14379.838333110612,-13394.752251476319,-6170.914312710084,6417.69992324113,-187500.02235174447,-187500.02235174447,-187500.02235174447,-187500.02235174447
$SILENCE,14502.214134003418,-13374.970957633372,-5867.265864284738,6483.548162406464,-187500.02235174447,-187500.02235174447,-187500.02235174447,-187500.02235174447
$SILENCE,14586.659024555567,-13217.972304579294,-5904.593277525101,6679.103574645946,-187500.02235174447,-187500.02235174447,-187500.02235174447,-187500.02235174447
$SILENCE,14490.524171653293,-13187.059841997605,-6216.735388843464,6698.9519237222585,-187500.02235174447,-187500.02235174447,-187500.02235174447,-187500.02235174447
$SILENCE,14371.456428939871,-13318.957486028372,-6182.738385526942,6450.668746312707,-187500.02235174447,-187500.02235174447,-187500.02235174447,-187500.02235174447
$SILENCE,14422.954848164898,-13378.4578297684,-5930.4095423709805,6402.187812589146,-187500.02235174447,-187500.02235174447,-187500.02235174447,-187500.02235174447
$SILENCE,14524.387064503082,-13253.377467796501,-5958.013946773284,6616.518690171086,-187500.02235174447,-187500.02235174447,-187500.02235174447,-187500.02235174447
$SILENCE,14503.8234596042,-13175.839266281042,-6205.335999171258,6718.576755354018,-187500.02235174447,-187500.02235174447,-187500.02235174447,-187500.02235174447
$SILENCE,14361.062867768154,-13351.21105327738,-6256.879121885196,6516.740502922596,-187500.02235174447,-187500.02235174447,-187500.02235174447,-187500.02235174447
$SILENCE,14431.38145582455,-13374.970957633372,-5951.196664714416,6438.487045584566,-187500.02235174447,-187500.02235174447,-187500.02235174447,-187500.02235174447
$SILENCE,14562.45208531047,-13226.577726194588,-5856.268806012727,6624.252393752622,-187500.02235174447,-187500.02235174447,-187500.02235174447,-187500.02235174447
$SILENCE,14509.411395718027,-13162.204702163304,-6149.724858966453,6750.830322603027,-187500.02235174447,-187500.02235174447,-187500.02235174447,-187500.02235174447
$SILENCE,14364.326222458629,-13296.717500295343,-6274.402889538156,6570.764669271072,-187500.02235174447,-187500.02235174447,-187500.02235174447,-187500.02235174447
$SILENCE,14382.878170356533,-13384.381042049055,-6065.123506203116,6432.69794377064,-187500.02235174447,-187500.02235174447,-187500.02235174447,-187500.02235174447
$SILENCE,14513.099433553152,-13276.220950629826,-5926.4756353468465,6587.081442723446,-187500.02235174447,-187500.02235174447,-187500.02235174447,-187500.02235174447
$SILENCE,14542.514329256337,-13123.4467772778,-6099.545192664289,6778.948817127803,-187500.02235174447,-187500.02235174447,-187500.02235174447,-187500.02235174447
$SILENCE,14465.065534718697,-13175.481638369756,-6150.283652577836,6722.130682722412,-187500.02235174447,-187500.02235174447,-187500.02235174447,-187500.02235174447
$SILENCE,14467.926558008976,-13294.191753171892,-5930.342487137615,6566.674300035751,-187500.02235174447,-187500.02235174447,-187500.02235174447,-187500.02235174447
$SILENCE,14437.349371594117,-13340.839843850119,-5972.810801602698,6505.542278950486,-187500.02235174447,-187500.02235174447,-187500.02235174447,-187500.02235174447
$SILENCE,14482.589302371658,-13183.908246029407,-6156.005699158394,6712.541784351085,-187500.02235174447,-187500.02235174447,-187500.02235174447,-187500.02235174447
$SILENCE,14403.486478744326,-13206.550563162633,-6341.63693685972,6671.9510164202475,-187500.02235174447,-187500.02235174447,-187500.02235174447,-187500.02235174447
$SILENCE,14340.231041935807,-13360.777599904251,-6181.531391326355,6471.7911448229725,-187500.02235174447,-187500.02235174447,-187500.02235174447,-187500.02235174447
$SILENCE,14493.899285066043,-13278.634939030999,-5881.861553414054,6571.189352415723,-187500.02235174447,-187500.02235174447,-187500.02235174447,-187500.02235174447
$SILENCE,14532.388989018082,-13136.522547784156,-6013.110996855617,6758.944005840302,-187500.02235174447,-187500.02235174447,-187500.02235174447,-187500.02235174447
$SILENCE,14411.04136837022,-13195.173525234883,-6324.090817462304,6731.04902876008,-187500.02235174447,-187500.02235174447,-187500.02235174447,-187500.02235174447
$SILENCE,14246.353715223519,-13441.75797006583,-6327.287116919412,6434.664897282708,-187500.02235174447,-187500.02235174447,-187500.02235174447,-187500.02235174447
$SILENCE,14422.530165020247,-13335.028390291738,-5960.785563085743,6526.8434914163945,-187500.02235174447,-187500.02235174447,-187500.02235174447,-187500.02235174447
$SILENCE,14589.69886180149,-13099.239838032705,-5934.231690672838,6786.950741642802,-187500.02235174447,-187500.02235174447,-187500.02235174447,-187500.02235174447
$SILENCE,14408.225048568851,-13201.588475893555,-6304.711855019553,6736.994592785191,-187500.02235174447,-187500.02235174447,-187500.02235174447,-187500.02235174447
$SILENCE,14267.163189311408,-13407.22452488238,-6279.588494251788,6493.785261366995,-187500.02235174447,-187500.02235174447,-187500.02235174447,-187500.02235174447
$SILENCE,14374.65272839698,-13366.477294740354,-6013.043941622251,6481.76002285004,-187500.02235174447,-187500.02235174447,-187500.02235174447,-187500.02235174447
$SILENCE,14425.637057499536,-13236.90423213294,-6043.107037914639,6633.908347357315,-187500.02235174447,-187500.02235174447,-187500.02235174447,-187500.02235174447
$SILENCE,14394.724594917847,-13176.17454244787,-6285.109375132248,6730.199662470778,-187500.02235174447,-187500.02235174447,-187500.02235174447,-187500.02235174447
$SILENCE,14302.25542810624,-13327.58525938812,-6339.982907770027,6548.301166093489,-187500.02235174447,-187500.02235174447,-187500.02235174447,-187500.02235174447
$SILENCE,14321.50028008226,-13418.735673276864,-6095.365416451146,6433.033219937471,-187500.02235174447,-187500.02235174447,-187500.02235174447,-187500.02235174447
$SILENCE,14387.773202392245,-13330.06630302266,-6019.391837047558,6567.613073302874,-187500.02235174447,-187500.02235174447,-187500.02235174447,-187500.02235174447
$SILENCE,14386.499152958293,-13211.490298687257,-6274.380537793701,6714.955772752259,-187500.02235174447,-187500.02235174447,-187500.02235174447,-187500.02235174447
$SILENCE,14261.843474131045,-13354.183835289936,-6391.861306650795,6545.842474203405,-187500.02235174447,-187500.02235174447,-187500.02235174447,-187500.02235174447
$SILENCE,14330.619791820025,-13403.648245769531,-6092.01265478285,6445.79606602145,-187500.02235174447,-187500.02235174447,-187500.02235174447,-187500.02235174447
$SILENCE,14422.932496420444,-13303.646541076487,-5980.388042973047,6553.509122551575,-187500.02235174447,-187500.02235174447,-187500.02235174447,-187500.02235174447
$SILENCE,14385.783897135723,-13223.359074993024,-6229.230013993981,6686.3902433383755,-187500.02235174447,-187500.02235174447,-187500.02235174447,-187500.02235174447
$SILENCE,14276.014480115711,-13323.45018666389,-6372.147068041214,6586.634407834341,-187500.02235174447,-187500.02235174447,-187500.02235174447,-187500.02235174447
$SILENCE,14276.930901638378,-13405.995178937339,-6160.967786427473,6441.549234574943,-187500.02235174447,-187500.02235174447,-187500.02235174447,-187500.02235174447
$SILENCE,14395.059871084675,-13329.663971622465,-5970.061537034695,6529.257479817567,-187500.02235174447,-187500.02235174447,-187500.02235174447,-187500.02235174447
$SILENCE,14411.466051514872,-13231.606868697032,-6139.152483839093,6679.260036857133,-187500.02235174447,-187500.02235174447,-187500.02235174447,-187500.02235174447
$SILENCE,14315.889992223978,-13298.148011940482,-6325.029590729427,6626.822844364982,-187500.02235174447,-187500.02235174447,-187500.02235174447,-187500.02235174447
$SILENCE,14281.06597436261,-13401.79305097974,-6184.548876827822,6445.684307299174,-187500.02235174447,-187500.02235174447,-187500.02235174447,-187500.02235174447
$SILENCE,14330.396274375473,-13389.879571185062,-6048.069125183717,6455.854351026339,-187500.02235174447,-187500.02235174447,-187500.02235174447,-187500.02235174447
$SILENCE,14403.665292699969,-13245.107322348038,-6144.114571108172,6661.98213839318,-187500.02235174447,-187500.02235174447,-187500.02235174447,-187500.02235174447
$SILENCE,14328.004637718754,-13265.939148180385,-6365.083916793337,6648.191112064256,-187500.02235174447,-187500.02235174447,-187500.02235174447,-187500.02235174447
$SILENCE,14227.444139414329,-13411.85133598463,-6233.812121607319,6441.571586319397,-187500.02235174447,-187500.02235174447,-187500.02235174447,-187500.02235174447
$SILENCE,14367.611928893559,-13370.12062908657,-5948.55915886869,6473.467525657121,-187500.02235174447,-187500.02235174447,-187500.02235174447,-187500.02235174447
$SILENCE,14392.690586172414,-13282.859418733051,-6137.565509982766,6602.817070819983,-187500.02235174447,-187500.02235174447,-187500.02235174447,-187500.02235174447
$SILENCE,14309.743262498769,-13260.664136488931,-6386.519239725976,6661.624510481895,-187500.02235174447,-187500.02235174447,-187500.02235174447,-187500.02235174447
$SILENCE,14251.002878070221,-13378.346071046124,-6322.123863950237,6486.252723485556,-187500.02235174447,-187500.02235174447,-187500.02235174447,-187500.02235174447
$SILENCE,14291.727756467792,-13464.824970343707,-6073.237189440392,6386.049853092415,-187500.02235174447,-187500.02235174447,-187500.02235174447,-187500.02235174447
$SILENCE,14402.726519432847,-13284.669910033932,-6015.167357345505,6605.298114454522,-187500.02235174447,-187500.02235174447,-187500.02235174447,-187500.02235174447
$SILENCE,14373.490437685305,-13224.297848260147,-6252.051145082849,6734.1112177504565,-187500.02235174447,-187500.02235174447,-187500.02235174447,-187500.02235174447
$SILENCE,14243.068008788588,-13376.513228000787,-6361.820562102862,6522.082569847414,-187500.02235174447,-187500.02235174447,-187500.02235174447,-187500.02235174447
$SILENCE,14371.679946384425,-13329.842785578106,-6036.356811089136,6499.373197480822,-187500.02235174447,-187500.02235174447,-187500.02235174447,-187500.02235174447
$SILENCE,14361.17462649043,-13335.765997858764,-6043.777590248298,6545.998936414592,-187500.02235174447,-187500.02235174447,-187500.02235174447,-187500.02235174447
$SILENCE,14346.26601293874,-13286.636863545998,-6220.624592378687,6680.914065946826,-187500.02235174447,-187500.02235174447,-187500.02235174447,-187500.02235174447
$SILENCE,14215.731825319746,-13392.628835753065,-6374.538704697932,6521.367314024844,-187500.02235174447,-187500.02235174447,-187500.02235174447,-187500.02235174447
$SILENCE,14238.910584319901,-13435.097150218147,-6206.766510816397,6408.312190569901,-187500.02235174447,-187500.02235174447,-187500.02235174447,-187500.02235174447
$SILENCE,14393.60700769508,-13305.68054982192,-5999.096453082139,6577.537247841031,-187500.02235174447,-187500.02235174447,-187500.02235174447,-187500.02235174447
$SILENCE,14387.393222736506,-13248.19186308287,-6175.9434552125285,6709.233726171699,-187500.02235174447,-187500.02235174447,-187500.02235174447,-187500.02235174447
$SILENCE,14232.741502850236,-13369.181855819448,-6416.090597640347,6553.5538260404865,-187500.02235174447,-187500.02235174447,-187500.02235174447,-187500.02235174447
$SILENCE,14220.828023055557,-13467.395420956067,-6253.280491027891,6396.488117753043,-187500.02235174447,-187500.02235174447,-187500.02235174447,-187500.02235174447
$SILENCE,14363.096876513586,-13364.331527272645,-6020.531776014778,6508.760930152051,-187500.02235174447,-187500.02235174447,-187500.02235174447,-187500.02235174447
$SILENCE,14408.739138691324,-13222.688522659366,-6147.7132019654755,6705.0539499585575,-187500.02235174447,-187500.02235174447,-187500.02235174447,-187500.02235174447
$SILENCE,14295.929884425388,-13283.887598977995,-6357.037288789426,6644.078391084479,-187500.02235174447,-187500.02235174447,-187500.02235174447,-187500.02235174447
$SILENCE,14296.242808847763,-13366.700812184909,-6154.7540014688975,6500.848412614872,-187500.02235174447,-187500.02235174447,-187500.02235174447,-187500.02235174447
$SILENCE,14343.248527437274,-13358.967108603372,-6014.005066633829,6501.138985292791,-187500.02235174447,-187500.02235174447,-187500.02235174447,-187500.02235174447
$SILENCE,14365.644975381492,-13291.442488603889,-6126.16612031056,6655.477780756686,-187500.02235174447,-187500.02235174447,-187500.02235174447,-187500.02235174447
$SILENCE,14277.82497141659,-13313.704826081375,-6391.50367873951,6649.59927196494,-187500.02235174447,-187500.02235174447,-187500.02235174447,-187500.02235174447
$SILENCE,14225.678351602359,-13424.189498923959,-6319.799282526885,6450.2440631680565,-187500.02235174447,-187500.02235174447,-187500.02235174447,-187500.02235174447
$SILENCE,14299.21559086032,-13423.764815779306,-6058.753259033354,6438.710563029118,-187500.02235174447,-187500.02235174447,-187500.02235174447,-187500.02235174447
$SILENCE,14372.708126629368,-13293.275331649225,-6084.34600643468,6640.032725338069,-187500.02235174447,-187500.02235174447,-187500.02235174447,-187500.02235174447
$SILENCE,14332.340876143084,-13249.220043327814,-6328.002372741982,6702.818775513027,-187500.02235174447,-187500.02235174447,-187500.02235174447,-187500.02235174447
$SILENCE,14234.842566829035,-13396.719204988385,-6286.383424566201,6501.80953762645,-187500.02235174447,-187500.02235174447,-187500.02235174447,-187500.02235174447
$SILENCE,14317.007579446743,-13401.45777481291,-6031.037095908773,6461.196417951157,-187500.02235174447,-187500.02235174447,-187500.02235174447,-187500.02235174447
$SILENCE,14400.737214176324,-13281.875941977018,-6044.515197815323,6619.69263788374,-187500.02235174447,-187500.02235174447,-187500.02235174447,-187500.02235174447
$SILENCE,14357.777161333224,-13241.061656601627,-6299.0345119279045,6729.976145026225,-187500.02235174447,-187500.02235174447,-187500.02235174447,-187500.02235174447
$SILENCE,14232.67444761687,-13395.869838699084,-6315.686561547108,6531.336192051911,-187500.02235174447,-187500.02235174447,-187500.02235174447,-187500.02235174447
$SILENCE,14302.635407761982,-13427.721074547897,-6018.006028891329,6448.098295700347,-187500.02235174447,-187500.02235174447,-187500.02235174447,-187500.02235174447
$SILENCE,14360.660536367957,-13329.842785578106,-6060.496695100867,6559.253520876589,-187500.02235174447,-187500.02235174447,-187500.02235174447,-187500.02235174447
$SILENCE,14346.333068172107,-13234.713761176321,-6305.6729800311305,6702.528202835108,-187500.02235174447,-187500.02235174447,-187500.02235174447,-187500.02235174447
$SILENCE,14229.992238282233,-13340.683381638932,-6409.720350470585,6562.092192422413,-187500.02235174447,-187500.02235174447,-187500.02235174447,-187500.02235174447
$SILENCE,14330.30686739765,-13364.398582506012,-6087.363491936147,6486.789165352484,-187500.02235174447,-187500.02235174447,-187500.02235174447,-187500.02235174447
$SILENCE,14350.289326940696,-13350.629907921542,-6021.3364388151695,6527.24582281659,-187500.02235174447,-187500.02235174447,-187500.02235174447,-187500.02235174447
$SILENCE,14356.659574110457,-13261.982889411795,-6203.749025314931,6703.243458657677,-187500.02235174447,-187500.02235174447,-187500.02235174447,-187500.02235174447
$SILENCE,14257.507235706717,-13321.349122685091,-6366.827352860851,6608.561469144996,-187500.02235174447,-187500.02235174447,-187500.02235174447,-187500.02235174447
$SILENCE,14223.174956223364,-13454.09613300516,-6205.268943937891,6415.576507517875,-187500.02235174447,-187500.02235174447,-187500.02235174447,-187500.02235174447
$SILENCE,14357.285422955207,-13377.273187312268,-6006.383121774569,6526.888194905305,-187500.02235174447,-187500.02235174447,-187500.02235174447,-187500.02235174447
$SILENCE,14438.735179750345,-13209.523345175188,-6086.022387268828,6746.04704928959,-187500.02235174447,-187500.02235174447,-187500.02235174447,-187500.02235174447
$SILENCE,14290.096079122553,-13279.81958148713,-6382.45122223511,6641.060905583014,-187500.02235174447,-187500.02235174447,-187500.02235174447,-187500.02235174447
$SILENCE,14202.276075157652,-13450.18457772548,-6305.7847387534075,6399.5279549989655,-187500.02235174447,-187500.02235174447,-187500.02235174447,-187500.02235174447
$SILENCE,14329.457501108349,-13395.042824154238,-6034.456912810435,6469.243045955068,-187500.02235174447,-187500.02235174447,-187500.02235174447,-187500.02235174447
$SILENCE,14402.100670588097,-13247.52131074921,-6102.741492121398,6684.9820834376915,-187500.02235174447,-187500.02235174447,-187500.02235174447,-187500.02235174447
$SILENCE,14324.36130337254,-13255.612642242033,-6338.753561824985,6698.236667899689,-187500.02235174447,-187500.02235174447,-187500.02235174447,-187500.02235174447
$SILENCE,14253.975660082777,-13377.988443134838,-6246.574967691299,6503.865898116338,-187500.02235174447,-187500.02235174447,-187500.02235174447,-187500.02235174447
$SILENCE,14321.142652170975,-13391.466545041389,-6016.374351546091,6466.113801731325,-187500.02235174447,-187500.02235174447,-187500.02235174447,-187500.02235174447
$SILENCE,14369.735344616813,-13310.06149173516,-6089.509259403856,6611.757768602106,-187500.02235174447,-187500.02235174447,-187500.02235174447,-187500.02235174447
$SILENCE,14326.484719095793,-13262.765200467731,-6334.082047233826,6698.549592322063,-187500.02235174447,-187500.02235174447,-187500.02235174447,-187500.02235174447
$SILENCE,14212.379063651451,-13400.02726316777,-6349.7506200969965,6490.678368887708,-187500.02235174447,-187500.02235174447,-187500.02235174447,-187500.02235174447
$SILENCE,14287.011538387722,-13416.03111219777,-6082.066128500239,6445.729010788084,-187500.02235174447,-187500.02235174447,-187500.02235174447,-187500.02235174447
$SILENCE,14395.506905973782,-13274.253997117758,-6030.299488341748,6637.641088681351,-187500.02235174447,-187500.02235174447,-187500.02235174447,-187500.02235174447
$SILENCE,14351.898652541478,-13226.644781427955,-6288.171564122626,6735.161749739856,-187500.02235174447,-187500.02235174447,-187500.02235174447,-187500.02235174447
$SILENCE,14258.423657229383,-13352.350992244601,-6325.029590729427,6553.620881273852,-187500.02235174447,-187500.02235174447,-187500.02235174447,-187500.02235174447
$SILENCE,14270.650061446437,-13429.643324571052,-6122.478082475434,6428.831091979872,-187500.02235174447,-187500.02235174447,-187500.02235174447,-187500.02235174447
$SILENCE,14354.089123498097,-13339.565794416165,-6050.192540906971,6546.177750370235,-187500.02235174447,-187500.02235174447,-187500.02235174447,-187500.02235174447
$SILENCE,14370.964690561856,-13228.656438428932,-6240.852921110741,6715.782787297105,-187500.02235174447,-187500.02235174447,-187500.02235174447,-187500.02235174447
$SILENCE,14244.990258811744,-13347.187739275425,-6366.961463327582,6581.784079287539,-187500.02235174447,-187500.02235174447,-187500.02235174447,-187500.02235174447
$SILENCE,14268.593700956548,-13417.685141287464,-6133.273975047347,6453.909749258727,-187500.02235174447,-187500.02235174447,-187500.02235174447,-187500.02235174447
$SILENCE,14365.108533514564,-13328.993419288805,-5997.777700159276,6557.040698175514,-187500.02235174447,-187500.02235174447,-187500.02235174447,-187500.02235174447
$SILENCE,14372.864588840555,-13230.04224658516,-6212.287391696857,6711.401845383864,-187500.02235174447,-187500.02235174447,-187500.02235174447,-187500.02235174447
$SILENCE,14255.517930450194,-13309.815622546152,-6384.932265869649,6621.436073951254,-187500.02235174447,-187500.02235174447,-187500.02235174447,-187500.02235174447
$SILENCE,14293.44884079085,-13379.217789079881,-6104.39552121109,6500.9601713371485,-187500.02235174447,-187500.02235174447,-187500.02235174447,-187500.02235174447
$SILENCE,14333.324352899117,-13366.723163929364,-6052.204197907949,6506.7716248955285,-187500.02235174447,-187500.02235174447,-187500.02235174447,-187500.02235174447
$SILENCE,14340.78983554719,-13271.124752894015,-6236.002592563938,6657.735306946673,-187500.02235174447,-187500.02235174447,-187500.02235174447,-187500.02235174447
$SILENCE,14275.25452080423,-13304.361796899057,-6410.904992926717,6645.821827151994,-187500.02235174447,-187500.02235174447,-187500.02235174447,-187500.02235174447
$SILENCE,14224.136081234943,-13428.101054203637,-6265.506895244944,6450.8922637572605,-187500.02235174447,-187500.02235174447,-187500.02235174447,-187500.02235174447
$SILENCE,14320.74032077078,-13381.072983869672,-6023.996296405351,6500.937819592693,-187500.02235174447,-187500.02235174447,-187500.02235174447,-187500.02235174447
$SILENCE,14405.989874123321,-13234.37848500949,-6067.91747426003,6718.397941398375,-187500.02235174447,-187500.02235174447,-187500.02235174447,-187500.02235174447
$SILENCE,14320.114471926032,-13254.472703274812,-6321.207442427569,6694.436871342286,-187500.02235174447,-187500.02235174447,-187500.02235174447,-187500.02235174447
$SILENCE,14225.164261479888,-13392.69589098643,-6292.217229869036,6479.055461770948,-187500.02235174447,-187500.02235174447,-187500.02235174447,-187500.02235174447
$SILENCE,14310.21264913233,-13388.22554209537,-6054.349965375658,6472.551104134453,-187500.02235174447,-187500.02235174447,-187500.02235174447,-187500.02235174447
$SILENCE,14397.719728674858,-13265.156837124448,-6061.569578834722,6654.181379578278,-187500.02235174447,-187500.02235174447,-187500.02235174447,-187500.02235174447
$SILENCE,14307.999826431254,-13266.363831325036,-6352.678698620642,6695.509755076141,-187500.02235174447,-187500.02235174447,-187500.02235174447,-187500.02235174447
$SILENCE,14212.66963632937,-13407.626856282575,-6355.427963188644,6499.0826248029025,-187500.02235174447,-187500.02235174447,-187500.02235174447,-187500.02235174447
$SILENCE,14278.897855150444,-13411.13608016206,-6091.386805938102,6444.99140322106,-187500.02235174447,-187500.02235174447,-187500.02235174447,-187500.02235174447
$SILENCE,14400.8489728986,-13263.167531867926,-6016.910793413019,6643.3631352619095,-187500.02235174447,-187500.02235174447,-187500.02235174447,-187500.02235174447
$SILENCE,14353.575033375626,-13216.988827823261,-6281.287226830391,6745.532959167119,-187500.02235174447,-187500.02235174447,-187500.02235174447,-187500.02235174447
$SILENCE,14194.341205876019,-13394.55108577622,-6410.279144081967,6523.982468126115,-187500.02235174447,-187500.02235174447,-187500.02235174447,-187500.02235174447
$SILENCE,14254.355639738518,-13430.738560049364,-6138.325469294246,6429.613403035808,-187500.02235174447,-187500.02235174447,-187500.02235174447,-187500.02235174447
$SILENCE,14384.956882590877,-13298.527991596222,-6008.171261330994,6595.552753872008,-187500.02235174447,-187500.02235174447,-187500.02235174447,-187500.02235174447
$SILENCE,14373.043402796198,-13201.297903215636,-6242.551653689344,6745.845883589493,-187500.02235174447,-187500.02235174447,-187500.02235174447,-187500.02235174447
$SILENCE,14228.181746981354,-13321.662047107464,-6401.405501533211,6586.768518301073,-187500.02235174447,-187500.02235174447,-187500.02235174447,-187500.02235174447
$SILENCE,14226.10303474701,-13432.437292627967,-6182.313702382291,6432.764999004006,-187500.02235174447,-187500.02235174447,-187500.02235174447,-187500.02235174447
$SILENCE,14352.368039175039,-13333.687285624419,-6006.76310143031,6566.495486080109,-187500.02235174447,-187500.02235174447,-187500.02235174447,-187500.02235174447
$SILENCE,14381.17943777793,-13208.428109696879,-6189.89094375264,6740.548520153585,-187500.02235174447,-187500.02235174447,-187500.02235174447,-187500.02235174447
$SILENCE,14255.875558361478,-13298.572695085133,-6375.321015753868,6635.316507258,-187500.02235174447,-187500.02235174447,-187500.02235174447,-187500.02235174447
$SILENCE,14274.807485915124,-13378.770754190775,-6133.519844236355,6497.406243968755,-187500.02235174447,-187500.02235174447,-187500.02235174447,-187500.02235174447
$SILENCE,14347.517710628237,-13326.579430887632,-6003.7232641843875,6546.669488748252,-187500.02235174447,-187500.02235174447,-187500.02235174447,-187500.02235174447
$SILENCE,14329.323390641617,-13270.498904049267,-6215.550746387333,6664.574940749996,-187500.02235174447,-187500.02235174447,-187500.02235174447,-187500.02235174447
$SILENCE,14239.938764564844,-13300.562000341655,-6425.433626822666,6643.921928873293,-187500.02235174447,-187500.02235174447,-187500.02235174447,-187500.02235174447
$SILENCE,14226.952401036311,-13409.683216772464,-6241.7469908889525,6473.04284251247,-187500.02235174447,-187500.02235174447,-187500.02235174447,-187500.02235174447
$SILENCE,14302.836573462078,-13377.630815223554,-6044.470494326412,6493.3829299668,-187500.02235174447,-187500.02235174447,-187500.02235174447,-187500.02235174447
$SILENCE,14346.89186178349,-13257.825464943107,-6141.879396662641,6668.821772196505,-187500.02235174447,-187500.02235174447,-187500.02235174447,-187500.02235174447
$SILENCE,14290.677224478392,-13244.727342692298,-6352.857512576284,6705.389226125387,-187500.02235174447,-187500.02235174447,-187500.02235174447,-187500.02235174447
$SILENCE,14218.637552098937,-13395.154582876514,-6294.295942103379,6496.8474503573725,-187500.02235174447,-187500.02235174447,-187500.02235174447,-187500.02235174447
$SILENCE,14278.651985961436,-13393.411146809,-6070.599683594666,6471.18764772268,-187500.02235174447,-187500.02235174447,-187500.02235174447,-187500.02235174447
$SILENCE,14346.400123405472,-13276.265654118735,-6110.430492214024,6633.1483880458345,-187500.02235174447,-187500.02235174447,-187500.02235174447,-187500.02235174447
$SILENCE,14282.9211691524,-13253.310412563136,-6375.8127541318845,6694.883906231393,-187500.02235174447,-187500.02235174447,-187500.02235174447,-187500.02235174447
$SILENCE,14190.943740718812,-13380.335376302646,-6357.931358567639,6511.219622042135,-187500.02235174447,-187500.02235174447,-187500.02235174447,-187500.02235174447
talvez,14301.383710072483,-13362.230463293847,-6042.928223958997,6480.351862949356,-187500.02235174447,-187500.02235174447,-187500.02235174447,-187500.02235174447
talvez,14371.925815573433,-13288.5367618247,-5999.52113622679,6626.2640507536,-187500.02235174447,-187500.02235174447,-187500.02235174447,-187500.02235174447
talvez,14326.015332462232,-13221.079197058583,-6317.1170731922475,6727.740970580694,-187500.02235174447,-187500.02235174447,-187500.02235174447,-187500.02235174447
talvez,14220.380988166451,-13336.704771125886,-6413.944830172638,6559.030003432036,-187500.02235174447,-187500.02235174447,-187500.02235174447,-187500.02235174447
talvez,14199.079775700544,-13464.735563365884,-6195.7247490554755,6399.192678832135,-187500.02235174447,-187500.02235174447,-187500.02235174447,-187500.02235174447
talvez,14336.207727933852,-13320.16448022896,-6034.568671532711,6581.582913587441,-187500.02235174447,-187500.02235174447,-187500.02235174447,-187500.02235174447
talvez,14376.239702253308,-13202.191972993849,-6202.676141581076,6766.2753780216435,-187500.02235174447,-187500.02235174447,-187500.02235174447,-187500.02235174447
talvez,14254.936785094356,-13305.97112249984,-6382.853553635306,6616.697504126729,-187500.02235174447,-187500.02235174447,-187500.02235174447,-187500.02235174447
talvez,14226.795938825124,-13439.120464220103,-6205.984199760462,6414.481272039566,-187500.02235174447,-187500.02235174447,-187500.02235174447,-187500.02235174447
talvez,14316.001750946254,-13358.78829464773,-6047.443276338969,6517.075779089425,-187500.02235174447,-187500.02235174447,-187500.02235174447,-187500.02235174447
talvez,14380.642995911003,-13209.791566108654,-6180.056176192305,6738.268642219144,-187500.02235174447,-187500.02235174447,-187500.02235174447,-187500.02235174447
talvez,14243.336229722052,-13314.688302837409,-6413.74366447254,6625.101760041924,-187500.02235174447,-187500.02235174447,-187500.02235174447,-187500.02235174447
talvez,14218.637552098937,-13425.552955335732,-6226.771322103897,6451.674574813196,-187500.02235174447,-187500.02235174447,-187500.02235174447,-187500.02235174447
talvez,14305.183506629886,-13371.64054770953,-6032.020572664806,6509.252668530067,-187500.02235174447,-187500.02235174447,-187500.02235174447,-187500.02235174447
talvez,14366.9413765599,-13233.037380342172,-6163.091202150727,6707.624400570918,-187500.02235174447,-187500.02235174447,-187500.02235174447,-187500.02235174447
talvez,14274.807485915124,-13260.284156833191,-6394.476460752066,6680.243513613166,-187500.02235174447,-187500.02235174447,-187500.02235174447,-187500.02235174447
talvez,14210.121537461466,-13404.832888225663,-6275.878104672206,6457.888359771772,-187500.02235174447,-187500.02235174447,-187500.02235174447,-187500.02235174447
talvez,14308.580971787092,-13384.31398681569,-6022.454026037935,6485.04572928497,-187500.02235174447,-187500.02235174447,-187500.02235174447,-187500.02235174447
talvez,14369.958862061367,-13247.38720028248,-6087.452898913968,6688.156031150345,-187500.02235174447,-187500.02235174447,-187500.02235174447,-187500.02235174447
talvez,14290.476058778295,-13241.173415323903,-6367.475553450055,6714.7993105410715,-187500.02235174447,-187500.02235174447,-187500.02235174447,-187500.02235174447
talvez,14194.788240765125,-13399.446117811933,-6331.131616965726,6493.315874733434,-187500.02235174447,-187500.02235174447,-187500.02235174447,-187500.02235174447
talvez,14279.099020850543,-13399.960207934406,-6062.709517801943,6481.625912383308,-187500.02235174447,-187500.02235174447,-187500.02235174447,-187500.02235174447
talvez,14366.673155626435,-13270.901235449463,-6074.332424918703,6657.310623802022,-187500.02235174447,-187500.02235174447,-187500.02235174447,-187500.02235174447
talvez,14252.00870657071,-13285.116944923038,-6398.276257309468,6669.581731507985,-187500.02235174447,-187500.02235174447,-187500.02235174447,-187500.02235174447
talvez,14165.149827617388,-13401.70364400192,-6403.9312486566605,6486.677406630208,-187500.02235174447,-187500.02235174447,-187500.02235174447,-187500.02235174447
talvez,14251.24874725923,-13419.339170377156,-6116.152538794582,6432.787350748462,-187500.02235174447,-187500.02235174447,-187500.02235174447,-187500.02235174447
talvez,14361.308736957162,-13289.430831602911,-6047.644442039066,6621.458425695709,-187500.02235174447,-187500.02235174447,-187500.02235174447,-187500.02235174447
talvez,14342.063884981142,-13200.247371226236,-6285.891686188184,6752.283185992621,-187500.02235174447,-187500.02235174447,-187500.02235174447,-187500.02235174447
talvez,14209.473336872261,-13353.937966100928,-6388.486193238044,6555.990166186115,-187500.02235174447,-187500.02235174447,-187500.02235174447,-187500.02235174447
talvez,14216.022397997665,-13450.4751504034,-6173.5965220447215,6415.017713906493,-187500.02235174447,-187500.02235174447,-187500.02235174447,-187500.02235174447
talvez,14341.907422769955,-13317.370512172045,-6026.387933062069,6578.58777983043,-187500.02235174447,-187500.02235174447,-187500.02235174447,-187500.02235174447
talvez,14377.022013309243,-13191.261969955203,-6185.264132650392,6756.619424416951,-187500.02235174447,-187500.02235174447,-187500.02235174447,-187500.02235174447
talvez,14219.173993965864,-13342.717390384363,-6405.115891112792,6586.500297367608,-187500.02235174447,-187500.02235174447,-187500.02235174447,-187500.02235174447
talvez,14194.005929709188,-13458.275909218302,-6225.7207901144975,6406.725216713574,-187500.02235174447,-187500.02235174447,-187500.02235174447,-187500.02235174447
talvez,14306.345797341563,-13350.361686988079,-6041.184787891482,6528.832796672917,-187500.02235174447,-187500.02235174447,-187500.02235174447,-187500.02235174447
talvez,14347.830635050612,-13221.19095578086,-6219.842281322752,6722.153034466867,-187500.02235174447,-187500.02235174447,-187500.02235174447,-187500.02235174447
talvez,14239.625840142471,-13298.438584618401,-6422.371437832289,6630.577937433474,-187500.02235174447,-187500.02235174447,-187500.02235174447,-187500.02235174447
talvez,14213.76487180768,-13432.549051350243,-6237.8130838648185,6438.174121162191,-187500.02235174447,-187500.02235174447,-187500.02235174447,-187500.02235174447
talvez,14321.58968706008,-13364.465637739379,-6023.370447560603,6518.19336631219,-187500.02235174447,-187500.02235174447,-187500.02235174447,-187500.02235174447
talvez,14351.31750718564,-13240.61462171252,-6143.533425752334,6697.968446966225,-187500.02235174447,-187500.02235174447,-187500.02235174447,-187500.02235174447
talvez,14238.307087219608,-13296.96336948435,-6407.842803936339,6648.07935334198,-187500.02235174447,-187500.02235174447,-187500.02235174447,-187500.02235174447
talvez,14178.985557435222,-13423.317780890202,-6316.625334814231,6454.334432403378,-187500.02235174447,-187500.02235174447,-187500.02235174447,-187500.02235174447
talvez,14307.93277119789,-13361.179931304447,-6038.748447745854,6516.226412800123,-187500.02235174447,-187500.02235174447,-187500.02235174447,-187500.02235174447
talvez,14331.178585431408,-13276.667985518932,-6130.5470622238,6648.9957748646475,-187500.02235174447,-187500.02235174447,-187500.02235174447,-187500.02235174447
talvez,14235.222546484774,-13282.501790821767,-6412.693132483141,6659.992833136658,-187500.02235174447,-187500.02235174447,-187500.02235174447,-187500.02235174447
talvez,14196.755194277192,-13402.955341691417,-6328.471759375544,6486.90092407476,-187500.02235174447,-187500.02235174447,-187500.02235174447,-187500.02235174447
talvez,14261.307032264118,-13427.251687914335,-6071.8737330286185,6446.936004988672,-187500.02235174447,-187500.02235174447,-187500.02235174447,-187500.02235174447
talvez,14332.78791103219,-13301.277256164225,-6105.870736345141,6612.830652335961,-187500.02235174447,-187500.02235174447,-187500.02235174447,-187500.02235174447
talvez,14287.63738723247,-13248.705953205343,-6379.791364644929,6706.998551726169,-187500.02235174447,-187500.02235174447,-187500.02235174447,-187500.02235174447
talvez,14175.05165041109,-13384.93983566044,-6377.2209140325685,6527.916375150249,-187500.02235174447,-187500.02235174447,-187500.02235174447,-187500.02235174447
talvez,14235.9601540518,-13428.123405948092,-6099.545192664289,6444.298499142945,-187500.02235174447,-187500.02235174447,-187500.02235174447,-187500.02235174447
talvez,14325.59064931758,-13316.990532516305,-6086.894105302586,6599.531364385052,-187500.02235174447,-187500.02235174447,-187500.02235174447,-187500.02235174447
talvez,14305.474079307805,-13236.412493754924,-6325.610736085265,6725.841072301993,-187500.02235174447,-187500.02235174447,-187500.02235174447,-187500.02235174447
talvez,14183.210037137276,-13370.41120176449,-6416.090597640347,6542.19913985719,-187500.02235174447,-187500.02235174447,-187500.02235174447,-187500.02235174447
talvez,14213.943685763323,-13438.829891542184,-6171.003719687906,6420.94092618715,-187500.02235174447,-187500.02235174447,-187500.02235174447,-187500.02235174447
talvez,14318.996884703265,-13327.16057624347,-6041.274194869304,6567.501314580598,-187500.02235174447,-187500.02235174447,-187500.02235174447,-187500.02235174447
talvez,14327.669361551925,-13216.631199911977,-6241.456418211033,6735.385267184409,-187500.02235174447,-187500.02235174447,-187500.02235174447,-187500.02235174447
talvez,14216.469432886772,-13322.533765141221,-6401.472556766576,6605.92396329927,-187500.02235174447,-187500.02235174447,-187500.02235174447,-187500.02235174447
talvez,14204.220676925264,-13426.290562902757,-6170.824905732264,6444.209092165124,-187500.02235174447,-187500.02235174447,-187500.02235174447,-187500.02235174447
talvez,14296.376919314494,-13356.597823691109,-6046.7503722608535,6528.855148417372,-187500.02235174447,-187500.02235174447,-187500.02235174447,-187500.02235174447
talvez,14313.185431144886,-13253.042191629673,-6250.128895059693,6693.453394586253,-187500.02235174447,-187500.02235174447,-187500.02235174447,-187500.02235174447
talvez,14200.33147339004,-13325.864175065062,-6456.077868470892,6616.630448893363,-187500.02235174447,-187500.02235174447,-187500.02235174447,-187500.02235174447
talvez,14193.938874475823,-13423.384836123567,-6254.822761395307,6448.344164889356,-187500.02235174447,-187500.02235174447,-187500.02235174447,-187500.02235174447
talvez,14292.599474501549,-13381.967053647882,-6040.357773346636,6503.485918460598,-187500.02235174447,-187500.02235174447,-187500.02235174447,-187500.02235174447
talvez,14338.621716335025,-13268.24137785928,-6163.247664361914,6691.732310263194,-187500.02235174447,-187500.02235174447,-187500.02235174447,-187500.02235174447
talvez,14247.761875124203,-13286.458049590356,-6406.03231263546,6682.366929336421,-187500.02235174447,-187500.02235174447,-187500.02235174447,-187500.02235174447
talvez,14201.42670886835,-13411.694873773442,-6273.754688948952,6466.672595342708,-187500.02235174447,-187500.02235174447,-187500.02235174447,-187500.02235174447
talvez,14291.325425067596,-13396.719204988385,-6029.539529030268,6476.105031502847,-187500.02235174447,-187500.02235174447,-187500.02235174447,-187500.02235174447
talvez,14330.55273658666,-13290.168439169936,-6113.11270154866,6643.407838750821,-187500.02235174447,-187500.02235174447,-187500.02235174447,-187500.02235174447
talvez,14259.764761896702,-13262.452276045356,-6385.379300758756,6705.121005191923,-187500.02235174447,-187500.02235174447,-187500.02235174447,-187500.02235174447
talvez,14196.017586710166,-13356.866044624574,-6333.836178044818,6527.782264683517,-187500.02235174447,-187500.02235174447,-187500.02235174447,-187500.02235174447
talvez,14216.715302075781,-13442.584984610676,-6072.566637106734,6428.65227802423,-187500.02235174447,-187500.02235174447,-187500.02235174447,-187500.02235174447
talvez,14294.141744868964,-13320.343294184602,-6099.724006619931,6611.444844179731,-187500.02235174447,-187500.02235174447,-187500.02235174447,-187500.02235174447
talvez,14259.25067177423,-13254.562110252633,-6401.807832933407,6700.628304556407,-187500.02235174447,-187500.02235174447,-187500.02235174447,-187500.02235174447
talvez,14156.723219957736,-13398.12736488907,-6415.710617984608,6506.548107450975,-187500.02235174447,-187500.02235174447,-187500.02235174447,-187500.02235174447
talvez,14202.544296091117,-13444.909566034028,-6157.369155570168,6424.204280877624,-187500.02235174447,-187500.02235174447,-187500.02235174447,-187500.02235174447
talvez,14308.960951442832,-13329.909840811473,-6076.701709830965,6586.030910734047,-187500.02235174447,-187500.02235174447,-187500.02235174447,-187500.02235174447
talvez,14311.285532866184,-13236.725418177299,-6294.00536942546,6733.239499716699,-187500.02235174447,-187500.02235174447,-187500.02235174447,-187500.02235174447
talvez,14206.679368815348,-13334.626058891543,-6369.5319139399435,6593.5858003599415,-187500.02235174447,-187500.02235174447,-187500.02235174447,-187500.02235174447
talvez,14216.692950331326,-13420.747330277842,-6097.533535663311,6462.582226107386,-187500.02235174447,-187500.02235174447,-187500.02235174447,-187500.02235174447
talvez,14306.949294441856,-13328.21110823287,-6045.699840271454,6567.3001488805,-187500.02235174447,-187500.02235174447,-187500.02235174447,-187500.02235174447
talvez,14287.100945365542,-13239.295868789659,-6304.197764897081,6707.020903470624,-187500.02235174447,-187500.02235174447,-187500.02235174447,-187500.02235174447
talvez,14168.413182307862,-13357.760114402785,-6456.9942899935595,6579.057166463991,-187500.02235174447,-187500.02235174447,-187500.02235174447,-187500.02235174447
talvez,14150.107103598966,-13486.841438632184,-6264.299901044357,6389.6708356941745,-187500.02235174447,-187500.02235174447,-187500.02235174447,-187500.02235174447
talvez,14299.707329238336,-13367.326661029658,-6035.95447968894,6535.471264776143,-187500.02235174447,-187500.02235174447,-187500.02235174447,-187500.02235174447
talvez,14346.333068172107,-13224.454310471334,-6174.647054034121,6745.063572533557,-187500.02235174447,-187500.02235174447,-187500.02235174447,-187500.02235174447
talvez,14187.747441261703,-13337.554137415187,-6429.568699546898,6631.002620578125,-187500.02235174447,-187500.02235174447,-187500.02235174447,-187500.02235174447
talvez,14176.61627252296,-13447.27885094629,-6234.885005341173,6456.502551615543,-187500.02235174447,-187500.02235174447,-187500.02235174447,-187500.02235174447
talvez,14273.801657414635,-13376.937911145438,-6063.223607924415,6505.09524406138,-187500.02235174447,-187500.02235174447,-187500.02235174447,-187500.02235174447
talvez,14306.144631641464,-13263.77102896822,-6208.577002117277,6669.93935941927,-187500.02235174447,-187500.02235174447,-187500.02235174447,-187500.02235174447
talvez,14199.61621756747,-13309.145070212493,-6452.7698102915065,6628.163949032301,-187500.02235174447,-187500.02235174447,-187500.02235174447,-187500.02235174447
talvez,14153.146940844887,-13458.119447007115,-6319.061674959859,6440.141074674258,-187500.02235174447,-187500.02235174447,-187500.02235174447,-187500.02235174447
talvez,14262.938709609356,-13414.108862174615,-6053.72411653091,6488.823174097917,-187500.02235174447,-187500.02235174447,-187500.02235174447,-187500.02235174447
talvez,14354.133826987008,-13253.846854430063,-6085.575352379722,6696.180307409801,-187500.02235174447,-187500.02235174447,-187500.02235174447,-187500.02235174447
talvez,14257.239014773253,-13267.4814185478,-6373.6446349197195,6714.016999485136,-187500.02235174447,-187500.02235174447,-187500.02235174447,-187500.02235174447
talvez,14156.365592046452,-13414.265324385802,-6349.325936952346,6493.360578222344,-187500.02235174447,-187500.02235174447,-187500.02235174447,-187500.02235174447
talvez,14227.511194647694,-13423.697760545941,-6119.371189996146,6442.622118308797,-187500.02235174447,-187500.02235174447,-187500.02235174447,-187500.02235174447
talvez,14294.789945458167,-13311.11202372456,-6121.82988188623,6607.0862540109465,-187500.02235174447,-187500.02235174447,-187500.02235174447,-187500.02235174447
talvez,14297.270989092707,-13242.089836846571,-6336.183111212625,6723.225918200722,-187500.02235174447,-187500.02235174447,-187500.02235174447,-187500.02235174447
talvez,14134.550289458071,-13415.159394164015,-6415.755321473518,6501.876592859816,-187500.02235174447,-187500.02235174447,-187500.02235174447,-187500.02235174447
talvez,14174.649319010892,-13475.687918148986,-6156.497437536412,6407.909859169706,-187500.02235174447,-187500.02235174447,-187500.02235174447,-187500.02235174447
talvez,14364.393277691994,-13292.671834548932,-6003.857374651119,6634.9141758578035,-187500.02235174447,-187500.02235174447,-187500.02235174447,-187500.02235174447
talvez,14282.563541241116,-13272.91289245044,-6327.711800064064,6702.103519690457,-187500.02235174447,-187500.02235174447,-187500.02235174447,-187500.02235174447
talvez,14149.637716965404,-13391.399489808022,-6443.918519487205,6534.018401386547,-187500.02235174447,-187500.02235174447,-187500.02235174447,-187500.02235174447
talvez,14175.252816111186,-13473.944482081472,-6179.899713981118,6418.504586041521,-187500.02235174447,-187500.02235174447,-187500.02235174447,-187500.02235174447
talvez,14272.01351785821,-13374.479219255356,-6063.044793968773,6543.227320102134,-187500.02235174447,-187500.02235174447,-187500.02235174447,-187500.02235174447
talvez,14310.190297387875,-13249.041229372173,-6268.792601679874,6715.46986287473,-187500.02235174447,-187500.02235174447,-187500.02235174447,-187500.02235174447
talvez,14184.975824949244,-13354.586166690133,-6447.047763710948,6588.266085179578,-187500.02235174447,-187500.02235174447,-187500.02235174447,-187500.02235174447
talvez,14171.810647465069,-13468.736525623384,-6238.058953053827,6422.103216898825,-187500.02235174447,-187500.02235174447,-187500.02235174447,-187500.02235174447
talvez,14262.312860764607,-13407.112766160104,-6083.027253511817,6505.139947550291,-187500.02235174447,-187500.02235174447,-187500.02235174447,-187500.02235174447
talvez,14318.885125980989,-13268.934281937396,-6222.882118568674,6704.204583669256,-187500.02235174447,-187500.02235174447,-187500.02235174447,-187500.02235174447
talvez,14211.976732251256,-13330.982724545327,-6437.458865339621,6625.9287745867705,-187500.02235174447,-187500.02235174447,-187500.02235174447,-187500.02235174447
talvez,14194.81059250958,-13443.076722988693,-6261.7070986875415,6441.191606663658,-187500.02235174447,-187500.02235174447,-187500.02235174447,-187500.02235174447
talvez,14267.185541055864,-13416.500498831332,-6060.831971267698,6473.601636123853,-187500.02235174447,-187500.02235174447,-187500.02235174447,-187500.02235174447
talvez,14308.73743399828,-13305.904067266472,-6174.132963911648,6656.751830190638,-187500.02235174447,-187500.02235174447,-187500.02235174447,-187500.02235174447
talvez,14229.254630715208,-13316.230573204824,-6402.8136614338955,6655.634242967873,-187500.02235174447,-187500.02235174447,-187500.02235174447,-187500.02235174447
talvez,14143.155711073365,-13474.771496626317,-6327.085951219315,6438.107065928825,-187500.02235174447,-187500.02235174447,-187500.02235174447,-187500.02235174447
talvez,14242.576270410571,-13442.920260777506,-6084.189544223493,6452.926272502694,-187500.02235174447,-187500.02235174447,-187500.02235174447,-187500.02235174447
talvez,14328.272858652219,-13301.120793953038,-6128.557756967278,6637.0822950699685,-187500.02235174447,-187500.02235174447,-187500.02235174447,-187500.02235174447
talvez,14237.368313952484,-13287.083898435105,-6402.7019027116185,6682.9257229478035,-187500.02235174447,-187500.02235174447,-187500.02235174447,-187500.02235174447
talvez,14159.830112437025,-13439.90277527604,-6364.905102837694,6484.6433978847745,-187500.02235174447,-187500.02235174447,-187500.02235174447,-187500.02235174447
talvez,14243.693857633336,-13445.244842200857,-6079.920361032529,6447.986536978071,-187500.02235174447,-187500.02235174447,-187500.02235174447,-187500.02235174447
talvez,14314.97357070131,-13307.15576495597,-6081.864962800141,6609.343780200932,-187500.02235174447,-187500.02235174447,-187500.02235174447,-187500.02235174447
talvez,14260.368258996996,-13288.29089263569,-6360.881788835739,6679.4612025572305,-187500.02235174447,-187500.02235174447,-187500.02235174447,-187500.02235174447
talvez,14135.623173191927,-13432.973734494894,-6417.677571496674,6484.017549040026,-187500.02235174447,-187500.02235174447,-187500.02235174447,-187500.02235174447
talvez,14199.303293145096,-13465.830798844196,-6140.225367572948,6420.98562967606,-187500.02235174447,-187500.02235174447,-187500.02235174447,-187500.02235174447
talvez,14289.581989000082,-13341.108064783582,-6066.330500403703,6573.49158209462,-187500.02235174447,-187500.02235174447,-187500.02235174447,-187500.02235174447
talvez,14292.465364034817,-13260.57472951111,-6292.060767657848,6717.883851275904,-187500.02235174447,-187500.02235174447,-187500.02235174447,-187500.02235174447
talvez,14163.048763638588,-13398.283827100257,-6415.5541557734205,6555.744296997106,-187500.02235174447,-187500.02235174447,-187500.02235174447,-187500.02235174447
talvez,14178.739688246214,-13474.816200115229,-6183.297179138324,6413.0284086499705,-187500.02235174447,-187500.02235174447,-187500.02235174447,-187500.02235174447
talvez,14291.660701234425,-13359.660012681486,-6053.6794130419985,6520.249726802079,-187500.02235174447,-187500.02235174447,-187500.02235174447,-187500.02235174447
talvez,14296.086346636575,-13251.768142195719,-6252.744049160963,6705.389226125387,-187500.02235174447,-187500.02235174447,-187500.02235174447,-187500.02235174447
talvez,14162.065286882555,-13375.730916944853,-6433.7484757600405,6581.672320565262,-187500.02235174447,-187500.02235174447,-187500.02235174447,-187500.02235174447
talvez,14158.0419728806,-13474.436220459489,-6227.732447115475,6419.89039419775,-187500.02235174447,-187500.02235174447,-187500.02235174447,-187500.02235174447
talvez,14273.712250436814,-13395.243989854336,-6037.34028784517,6509.967924352637,-187500.02235174447,-187500.02235174447,-187500.02235174447,-187500.02235174447
talvez,14317.208745146841,-13285.921607723429,-6200.08333922426,6673.985025165681,-187500.02235174447,-187500.02235174447,-187500.02235174447,-187500.02235174447
talvez,14173.643490510403,-13354.742628901318,-6439.247004896046,6595.865678294383,-187500.02235174447,-187500.02235174447,-187500.02235174447,-187500.02235174447
talvez,14135.84669063648,-13490.708290422952,-6283.254180342457,6405.227649835068,-187500.02235174447,-187500.02235174447,-187500.02235174447,-187500.02235174447
talvez,14248.186558268853,-13423.921277990494,-6046.996241449862,6480.083642015892,-187500.02235174447,-187500.02235174447,-187500.02235174447,-187500.02235174447
talvez,14302.098965895053,-13273.114058150537,-6141.633527473632,6633.237795023656,-187500.02235174447,-187500.02235174447,-187500.02235174447,-187500.02235174447
talvez,14204.265380414176,-13332.167367001459,-6425.053647166926,6593.965780015681,-187500.02235174447,-187500.02235174447,-187500.02235174447,-187500.02235174447
talvez,14142.328696528519,-13460.824008086207,-6335.870186790251,6401.629018977764,-187500.02235174447,-187500.02235174447,-187500.02235174447,-187500.02235174447
talvez,14245.303183234118,-13425.865879758107,-6038.457875067935,6398.253905565012,-187500.02235174447,-187500.02235174447,-187500.02235174447,-187500.02235174447
talvez,14299.126183882498,-13338.090579282116,-6113.716198648954,6571.546980327008,-187500.02235174447,-187500.02235174447,-187500.02235174447,-187500.02235174447
talvez,14247.359543724007,-13310.709692324364,-6379.88077162275,6615.311695970499,-187500.02235174447,-187500.02235174447,-187500.02235174447,-187500.02235174447
talvez,14121.496870696172,-13498.24082830439,-6359.11600102377,6365.329785982345,-187500.02235174447,-187500.02235174447,-187500.02235174447,-187500.02235174447
talvez,14208.28869441613,-13479.24184551738,-6102.853250843675,6372.839972119328,-187500.02235174447,-187500.02235174447,-187500.02235174447,-187500.02235174447
talvez,14302.188372872875,-13356.664878924475,-6102.5179746768445,6548.748200982595,-187500.02235174447,-187500.02235174447,-187500.02235174447,-187500.02235174447
talvez,14262.983413098267,-13306.082881222115,-6354.891521321717,6675.8849234443815,-187500.02235174447,-187500.02235174447,-187500.02235174447,-187500.02235174447
talvez,14143.759208173658,-13459.147627252058,-6396.331655541856,6451.026374223992,-187500.02235174447,-187500.02235174447,-187500.02235174447,-187500.02235174447
talvez,14188.485048828728,-13506.242752819391,-6140.940623395518,6279.00734889595,-187500.02235174447,-187500.02235174447,-187500.02235174447,-187500.02235174447
talvez,14292.845343690557,-13392.159449119503,-6052.003032207851,6440.453999096632,-187500.02235174447,-187500.02235174447,-187500.02235174447,-187500.02235174447
talvez,14302.635407761982,-13299.4891166078,-6271.117183103226,6609.097911011924,-187500.02235174447,-187500.02235174447,-187500.02235174447,-187500.02235174447
talvez,14168.033202652123,-13443.255536944334,-6402.411330033699,6445.773714276996,-187500.02235174447,-187500.02235174447,-187500.02235174447,-187500.02235174447
talvez,14188.730918017736,-13497.972607370926,-6159.112591637682,6302.0296456849155,-187500.02235174447,-187500.02235174447,-187500.02235174447,-187500.02235174447
talvez,14297.069823392609,-13377.228483823357,-6020.487072525868,6462.001080751548,-187500.02235174447,-187500.02235174447,-187500.02235174447,-187500.02235174447
talvez,14328.339913885584,-13274.745735495775,-6197.17761244507,6643.631356195374,-187500.02235174447,-187500.02235174447,-187500.02235174447,-187500.02235174447
talvez,14181.533656303127,-13386.303292072213,-6408.535708014454,6490.454851443154,-187500.02235174447,-187500.02235174447,-187500.02235174447,-187500.02235174447
talvez,14153.66103096736,-13492.921113124028,-6221.13868250116,6296.799337482374,-187500.02235174447,-187500.02235174447,-187500.02235174447,-187500.02235174447
talvez,14273.332270781073,-13406.88924871555,-6018.721284713899,6384.574637958364,-187500.02235174447,-187500.02235174447,-187500.02235174447,-187500.02235174447
talvez,14348.8364635511,-13265.000374913261,-6130.770579668353,6622.1736815182785,-187500.02235174447,-187500.02235174447,-187500.02235174447,-187500.02235174447
talvez,14250.824064114579,-13312.855459792074,-6370.9400738406275,6571.859904749383,-187500.02235174447,-187500.02235174447,-187500.02235174447,-187500.02235174447
talvez,14184.595845293505,-13459.95229005245,-6253.280491027891,6356.724364367052,-187500.02235174447,-187500.02235174447,-187500.02235174447,-187500.02235174447
talvez,14273.689898692359,-13426.4693768584,-6030.47830229739,6421.8349959653615,-187500.02235174447,-187500.02235174447,-187500.02235174447,-187500.02235174447
talvez,14351.07163799663,-13279.372546598024,-6099.589896153199,6620.542004173041,-187500.02235174447,-187500.02235174447,-187500.02235174447,-187500.02235174447
talvez,14252.880424604467,-13295.063471205649,-6351.762277097974,6565.355547112888,-187500.02235174447,-187500.02235174447,-187500.02235174447,-187500.02235174447
talvez,14168.413182307862,-13453.872615560605,-6296.017026426438,6334.752599567485,-187500.02235174447,-187500.02235174447,-187500.02235174447,-187500.02235174447
talvez,14258.177788040375,-13456.778342339796,-6026.231470850882,6376.416251232177,-187500.02235174447,-187500.02235174447,-187500.02235174447,-187500.02235174447
talvez,14346.377771661017,-13270.543607538177,-6072.387823151091,6569.53532332603,-187500.02235174447,-187500.02235174447,-187500.02235174447,-187500.02235174447
talvez,14289.269064577707,-13258.652479487953,-6321.095683705293,6613.255335480611,-187500.02235174447,-187500.02235174447,-187500.02235174447,-187500.02235174447
talvez,14198.118650688964,-13424.033036712772,-6307.528174820921,6409.541536514943,-187500.02235174447,-187500.02235174447,-187500.02235174447,-187500.02235174447
talvez,14277.154419082932,-13438.204042697436,-6035.999183177851,6378.964350100083,-187500.02235174447,-187500.02235174447,-187500.02235174447,-187500.02235174447
talvez,14358.961803789354,-13282.166514654937,-6014.988543389863,6593.965780015681,-187500.02235174447,-187500.02235174447,-187500.02235174447,-187500.02235174447
talvez,14307.016349675221,-13251.499921262255,-6275.855752927751,6653.60023422244,-187500.02235174447,-187500.02235174447,-187500.02235174447,-187500.02235174447
talvez,14180.751345247192,-13411.359597606612,-6333.791474555907,6473.221656468112,-187500.02235174447,-187500.02235174447,-187500.02235174447,-187500.02235174447
talvez,14222.48205214525,-13424.79299602425,-6106.697750889987,6385.893390881228,-187500.02235174447,-187500.02235174447,-187500.02235174447,-187500.02235174447
talvez,14324.808338261646,-13318.242230205802,-6017.782511446776,6512.3372092649,-187500.02235174447,-187500.02235174447,-187500.02235174447,-187500.02235174447
talvez,14326.819995262624,-13208.875144585985,-6226.23488023697,6667.391260551365,-187500.02235174447,-187500.02235174447,-187500.02235174447,-187500.02235174447
talvez,14195.771717521158,-13344.796102618708,-6375.477477965054,6503.552973693964,-187500.02235174447,-187500.02235174447,-187500.02235174447,-187500.02235174447
talvez,14205.718243803769,-13461.852188331151,-6137.364344282669,6375.321015753868,-187500.02235174447,-187500.02235174447,-187500.02235174447,-187500.02235174447
talvez,14331.200937175863,-13362.677498182953,-5963.490124164835,6529.212776328657,-187500.02235174447,-187500.02235174447,-187500.02235174447,-187500.02235174447
talvez,14355.69844909888,-13218.396987723945,-6158.3973358151125,6664.440830283264,-187500.02235174447,-187500.02235174447,-187500.02235174447,-187500.02235174447
talvez,14215.15067996391,-13312.58723885861,-6386.318074025879,6549.664622505263,-187500.02235174447,-187500.02235174447,-187500.02235174447,-187500.02235174447
talvez,14191.882513985935,-13432.057312972227,-6195.814156033297,6383.948789113616,-187500.02235174447,-187500.02235174447,-187500.02235174447,-187500.02235174447
talvez,14321.41087310444,-13338.492910682311,-5967.200513744416,6505.363464994844,-187500.02235174447,-187500.02235174447,-187500.02235174447,-187500.02235174447
talvez,14359.855873567567,-13229.170528551404,-6110.944582336496,6703.04229295758,-187500.02235174447,-187500.02235174447,-187500.02235174447,-187500.02235174447
talvez,14258.557767696115,-13275.751563996264,-6357.976062056549,6673.537990276574,-187500.02235174447,-187500.02235174447,-187500.02235174447,-187500.02235174447
talvez,14166.155656117877,-13445.37895266759,-6266.892703401173,6433.614365293309,-187500.02235174447,-187500.02235174447,-187500.02235174447,-187500.02235174447
talvez,14271.901759135933,-13385.36451880509,-6036.155645389038,6443.851464253839,-187500.02235174447,-187500.02235174447,-187500.02235174447,-187500.02235174447
talvez,14369.333013216617,-13220.386292980469,-6081.686148844498,6677.56130427853,-187500.02235174447,-187500.02235174447,-187500.02235174447,-187500.02235174447
talvez,14287.458573276828,-13221.70504590333,-6344.050925260893,6689.474784073208,-187500.02235174447,-187500.02235174447,-187500.02235174447,-187500.02235174447
talvez,14221.09624398902,-13353.535634700733,-6238.796560620852,6499.909639347749,-187500.02235174447,-187500.02235174447,-187500.02235174447,-187500.02235174447
talvez,14224.851337057513,-13435.968868251904,-6039.933090201985,6434.12845541578,-187500.02235174447,-187500.02235174447,-187500.02235174447,-187500.02235174447
talvez,14353.105646742064,-13253.66804047442,-6033.5404912877675,6673.716804232216,-187500.02235174447,-187500.02235174447,-187500.02235174447,-187500.02235174447
talvez,14311.464346821827,-13187.149248975427,-6318.636991815209,6753.557235426573,-187500.02235174447,-187500.02235174447,-187500.02235174447,-187500.02235174447
talvez,14127.88946961039,-13399.982559678861,-6413.296629583434,6474.2498367130565,-187500.02235174447,-187500.02235174447,-187500.02235174447,-187500.02235174447
talvez,14229.81342432659,-13401.636588768553,-6112.151576537082,6440.006964207526,-187500.02235174447,-187500.02235174447,-187500.02235174447,-187500.02235174447
talvez,14327.69171329638,-13258.33955506558,-6056.227511909904,6637.730495659172,-187500.02235174447,-187500.02235174447,-187500.02235174447,-187500.02235174447
talvez,14273.958119625822,-13242.492168246767,-6321.3415528943015,6717.28035417561,-187500.02235174447,-187500.02235174447,-187500.02235174447,-187500.02235174447
talvez,14154.778618190125,-13380.514190258287,-6413.810719705906,6537.952308410681,-187500.02235174447,-187500.02235174447,-187500.02235174447,-187500.02235174447
talvez,14205.450022870305,-13402.977693435872,-6139.219539072459,6471.522923889509,-187500.02235174447,-187500.02235174447,-187500.02235174447,-187500.02235174447
talvez,14406.794536923711,-13165.713926042787,-5923.167577167461,6690.748833507161,-187500.02235174447,-187500.02235174447,-187500.02235174447,-187500.02235174447
talvez,14201.493764101717,-13276.667985518932,-6355.0926870218145,6642.469065483698,-187500.02235174447,-187500.02235174447,-187500.02235174447,-187500.02235174447
talvez,14094.808887816536,-13429.866842015606,-6466.113801731325,6517.81338665645,-187500.02235174447,-187500.02235174447,-187500.02235174447,-187500.02235174447
talvez,14129.185870788799,-13477.587816427687,-6243.535130445377,6396.957504386605,-187500.02235174447,-187500.02235174447,-187500.02235174447,-187500.02235174447
talvez,14260.43531423036,-13366.253777295802,-6076.433488897502,6533.034924630514,-187500.02235174447,-187500.02235174447,-187500.02235174447,-187500.02235174447
talvez,14286.720965709803,-13218.441691212856,-6271.519514503421,6697.677874288306,-187500.02235174447,-187500.02235174447,-187500.02235174447,-187500.02235174447
talvez,14198.632740811438,-13303.02069223174,-6347.090762506815,6645.978289363181,-187500.02235174447,-187500.02235174447,-187500.02235174447,-187500.02235174447
talvez,14194.162391920376,-13408.789146994251,-6142.92992865204,6485.202191496157,-187500.02235174447,-187500.02235174447,-187500.02235174447,-187500.02235174447
talvez,14234.909622062401,-13339.83401534963,-6130.658820946076,6507.8892121182935,-187500.02235174447,-187500.02235174447,-187500.02235174447,-187500.02235174447
talvez,14214.167203207875,-13294.527029338722,-6307.997561454483,6641.88792012786,-187500.02235174447,-187500.02235174447,-187500.02235174447,-187500.02235174447
talvez,14070.892521249358,-13400.519001545788,-6530.084494362413,6553.285605107022,-187500.02235174447,-187500.02235174447,-187500.02235174447,-187500.02235174447
talvez,14070.780762527082,-13490.931807867504,-6319.6428203156975,6392.665969451185,-187500.02235174447,-187500.02235174447,-187500.02235174447,-187500.02235174447
talvez,14182.13715340342,-13433.420769384,-6104.820204355741,6438.710563029118,-187500.02235174447,-187500.02235174447,-187500.02235174447,-187500.02235174447
talvez,14271.54413122465,-13258.6301277435,-6126.411989499568,6676.309606589032,-187500.02235174447,-187500.02235174447,-187500.02235174447,-187500.02235174447
talvez,14190.250836640696,-13271.035345916194,-6422.594955276842,6708.026731971113,-187500.02235174447,-187500.02235174447,-187500.02235174447,-187500.02235174447
talvez,14044.785683725559,-13457.448894673455,-6462.783391807484,6409.206260348113,-187500.02235174447,-187500.02235174447,-187500.02235174447,-187500.02235174447
talvez,14133.767978402137,-13458.052391773748,-6175.049385434317,6398.432719520655,-187500.02235174447,-187500.02235174447,-187500.02235174447,-187500.02235174447
talvez,14238.374142452973,-13299.53382009671,-6150.797742700308,6609.857870323404,-187500.02235174447,-187500.02235174447,-187500.02235174447,-187500.02235174447
talvez,14174.00111842169,-13277.472648319323,-6443.806760764928,6660.1492953478455,-187500.02235174447,-187500.02235174447,-187500.02235174447,-187500.02235174447
talvez,14112.042082791577,-13406.062234170704,-6387.659178693197,6487.526772919509,-187500.02235174447,-187500.02235174447,-187500.02235174447,-187500.02235174447
talvez,14192.508362830684,-13420.590868066654,-6096.751224607376,6444.209092165124,-187500.02235174447,-187500.02235174447,-187500.02235174447,-187500.02235174447
talvez,14168.480237541227,-13396.383928821557,-6194.830679277263,6507.308066762455,-187500.02235174447,-187500.02235174447,-187500.02235174447,-187500.02235174447
talvez,14173.598787021494,-13303.557134098666,-6418.392827319244,6654.427248767287,-187500.02235174447,-187500.02235174447,-187500.02235174447,-187500.02235174447
talvez,14069.797285771047,-13431.789092038762,-6491.594790410375,6487.23620024159,-187500.02235174447,-187500.02235174447,-187500.02235174447,-187500.02235174447
$SILENCE,14132.136301056898,-13478.884217606095,-6201.871478780685,6390.4084432612,-187500.02235174447,-187500.02235174447,-187500.02235174447,-187500.02235174447
$SILENCE,14237.927107563866,-13349.713486398876,-6088.548134392278,6566.070802935458,-187500.02235174447,-187500.02235174447,-187500.02235174447,-187500.02235174447
$SILENCE,14250.086456547555,-13211.266781242703,-6293.781851980907,6739.565043397552,-187500.02235174447,-187500.02235174447,-187500.02235174447,-187500.02235174447
$SILENCE,14075.340518395964,-13393.321739831179,-6468.706604088141,6553.330308595933,-187500.02235174447,-187500.02235174447,-187500.02235174447,-187500.02235174447
$SILENCE,14061.996526956145,-13516.68101748002,-6247.111409558226,6378.919646611172,-187500.02235174447,-187500.02235174447,-187500.02235174447,-187500.02235174447
$SILENCE,14200.264418156674,-13395.22163810988,-6108.977628824428,6504.670560916729,-187500.02235174447,-187500.02235174447,-187500.02235174447,-187500.02235174447
$SILENCE,14221.409168411396,-13265.246244102269,-6300.53207880641,6678.500077545653,-187500.02235174447,-187500.02235174447,-187500.02235174447,-187500.02235174447
$SILENCE,14080.88375102088,-13373.518094243776,-6531.872633918838,6565.064974434969,-187500.02235174447,-187500.02235174447,-187500.02235174447,-187500.02235174447
$SILENCE,14068.210311914721,-13499.604284716164,-6328.203538442081,6402.0537021224145,-187500.02235174447,-187500.02235174447,-187500.02235174447,-187500.02235174447
$SILENCE,14193.961226220277,-13407.716263260398,-6102.406215954568,6501.42955797071,-187500.02235174447,-187500.02235174447,-187500.02235174447,-187500.02235174447
$SILENCE,14210.725034561758,-13286.994491457282,-6251.71586891602,6685.496173560164,-187500.02235174447,-187500.02235174447,-187500.02235174447,-187500.02235174447
$SILENCE,14144.161539573854,-13312.207259202869,-6455.317909159411,6659.6799087142845,-187500.02235174447,-187500.02235174447,-187500.02235174447,-187500.02235174447
$SILENCE,14077.665099819316,-13463.99795579886,-6344.676774105642,6437.548272317443,-187500.02235174447,-187500.02235174447,-187500.02235174447,-187500.02235174447
$SILENCE,14130.191699289287,-13476.984319327394,-6122.433378986523,6439.716391529607,-187500.02235174447,-187500.02235174447,-187500.02235174447,-187500.02235174447
$SILENCE,14225.38777892444,-13313.078977236626,-6193.690740310042,6663.971443649703,-187500.02235174447,-187500.02235174447,-187500.02235174447,-187500.02235174447
$SILENCE,14125.27431550912,-13315.895297037996,-6478.206095481646,6671.168705364312,-187500.02235174447,-187500.02235174447,-187500.02235174447,-187500.02235174447
$SILENCE,14018.522383990572,-13477.81133387224,-6446.3101561439225,6432.541481559454,-187500.02235174447,-187500.02235174447,-187500.02235174447,-187500.02235174447
$SILENCE,14116.110100282443,-13457.292432462267,-6170.690795265531,6422.103216898825,-187500.02235174447,-187500.02235174447,-187500.02235174447,-187500.02235174447
$SILENCE,14222.660866100892,-13328.054646021683,-6143.175797841049,6639.451579982231,-187500.02235174447,-187500.02235174447,-187500.02235174447,-187500.02235174447
$SILENCE,14200.018548967666,-13281.808886743653,-6335.646669345698,6740.973203298236,-187500.02235174447,-187500.02235174447,-187500.02235174447,-187500.02235174447
$SILENCE,14071.898349749847,-13425.240030913357,-6411.754359216018,6523.133101836813,-187500.02235174447,-187500.02235174447,-187500.02235174447,-187500.02235174447
$SILENCE,14115.998341560167,-13465.853150588651,-6187.052272206816,6434.955469960627,-187500.02235174447,-187500.02235174447,-187500.02235174447,-187500.02235174447
$SILENCE,14187.345109861508,-13373.875722155062,-6177.686891280043,6577.693710052217,-187500.02235174447,-187500.02235174447,-187500.02235174447,-187500.02235174447
$SILENCE,14153.459865267261,-13318.197526716893,-6424.472501811088,6678.723594990206,-187500.02235174447,-187500.02235174447,-187500.02235174447,-187500.02235174447
$SILENCE,14058.152026909833,-13440.975659009893,-6465.75617382004,6519.646229701785,-187500.02235174447,-187500.02235174447,-187500.02235174447,-187500.02235174447
$SILENCE,14114.07609153701,-13483.779249641806,-6189.421557119079,6430.887452469761,-187500.02235174447,-187500.02235174447,-187500.02235174447,-187500.02235174447
$SILENCE,14220.358636421995,-13371.864065154085,-6064.810581780742,6567.121334924857,-187500.02235174447,-187500.02235174447,-187500.02235174447,-187500.02235174447
$SILENCE,14210.501517117205,-13267.4814185478,-6332.249204188491,6722.175386211323,-187500.02235174447,-187500.02235174447,-187500.02235174447,-187500.02235174447
$SILENCE,14055.425114086285,-13414.533545319266,-6512.8736511318275,6547.831779459927,-187500.02235174447,-187500.02235174447,-187500.02235174447,-187500.02235174447
$SILENCE,14077.061602719023,-13490.328310767212,-6236.784903619874,6418.728103486073,-187500.02235174447,-187500.02235174447,-187500.02235174447,-187500.02235174447
$SILENCE,14193.983577964733,-13394.416975309488,-6064.140029447082,6538.622860744341,-187500.02235174447,-187500.02235174447,-187500.02235174447,-187500.02235174447
$SILENCE,14184.394679593406,-13314.509488881766,-6308.19872715458,6688.84893522846,-187500.02235174447,-187500.02235174447,-187500.02235174447,-187500.02235174447
$SILENCE,14101.201486730753,-13372.758134932297,-6477.42378442571,6620.005562306114,-187500.02235174447,-187500.02235174447,-187500.02235174447,-187500.02235174447
$SILENCE,14058.330840865476,-13498.643159704587,-6314.814843513352,6416.7835017184625,-187500.02235174447,-187500.02235174447,-187500.02235174447,-187500.02235174447
$SILENCE,14151.13528384391,-13436.125330463092,-6101.087463031705,6481.156525749747,-187500.02235174447,-187500.02235174447,-187500.02235174447,-187500.02235174447
$SILENCE,14216.134156719943,-13290.928398481417,-6218.903508055629,6693.095766674968,-187500.02235174447,-187500.02235174447,-187500.02235174447,-187500.02235174447
$SILENCE,14106.811774589036,-13350.629907921542,-6463.364537163322,6642.625527694885,-187500.02235174447,-187500.02235174447,-187500.02235174447,-187500.02235174447
$SILENCE,14064.030535701579,-13471.083458791192,-6331.377486154734,6452.99332773606,-187500.02235174447,-187500.02235174447,-187500.02235174447,-187500.02235174447
$SILENCE,14138.059513337555,-13458.253557473847,-6101.266276987348,6456.971938249104,-187500.02235174447,-187500.02235174447,-187500.02235174447,-187500.02235174447
$SILENCE,14206.165278692875,-13329.663971622465,-6189.17568793007,6658.472914513697,-187500.02235174447,-187500.02235174447,-187500.02235174447,-187500.02235174447
$SILENCE,14141.188757561298,-13315.649427848986,-6457.620138838308,6692.51462131913,-187500.02235174447,-187500.02235174447,-187500.02235174447,-187500.02235174447
$SILENCE,14061.750657767137,-13448.865824802617,-6381.959483857094,6478.340205948378,-187500.02235174447,-187500.02235174447,-187500.02235174447,-187500.02235174447
$SILENCE,14132.873908623924,-13466.791923855773,-6119.505300462878,6435.715429272107,-187500.02235174447,-187500.02235174447,-187500.02235174447,-187500.02235174447
$SILENCE,14251.874596103979,-13325.260677964769,-6056.987471221384,6662.496228515653,-187500.02235174447,-187500.02235174447,-187500.02235174447,-187500.02235174447
$SILENCE,14152.498740255684,-13296.941017739895,-6409.116853370292,6704.808080769549,-187500.02235174447,-187500.02235174447,-187500.02235174447,-187500.02235174447
$SILENCE,14061.817713000502,-13421.261420400313,-6443.9632229761155,6503.754139394062,-187500.02235174447,-187500.02235174447,-187500.02235174447,-187500.02235174447
$SILENCE,14091.567884870516,-13491.825877645717,-6172.367176099679,6413.31898132789,-187500.02235174447,-187500.02235174447,-187500.02235174447,-187500.02235174447
$SILENCE,14210.523868861661,-13364.577396461655,-6099.6345996421105,6591.663550336784,-187500.02235174447,-187500.02235174447,-187500.02235174447,-187500.02235174447
$SILENCE,14190.13907791842,-13267.593177270077,-6365.285082493435,6725.550499624074,-187500.02235174447,-187500.02235174447,-187500.02235174447,-187500.02235174447
$SILENCE,14028.40185503982,-13447.122388735103,-6493.449985200165,6499.306142247456,-187500.02235174447,-187500.02235174447,-187500.02235174447,-187500.02235174447
$SILENCE,14085.264692934119,-13498.084366093204,-6207.794691061341,6409.943867915138,-187500.02235174447,-187500.02235174447,-187500.02235174447,-187500.02235174447
$SILENCE,14196.129345432442,-13371.439382009434,-6087.475250658424,6579.504201353097,-187500.02235174447,-187500.02235174447,-187500.02235174447,-187500.02235174447
$SILENCE,14211.328531662051,-13262.899310934463,-6301.783776495908,6740.14618875339,-187500.02235174447,-187500.02235174447,-187500.02235174447,-187500.02235174447
$SILENCE,14101.134431497389,-13371.17116107597,-6436.877719983783,6591.551791614508,-187500.02235174447,-187500.02235174447,-187500.02235174447,-187500.02235174447
$SILENCE,14110.343350212974,-13471.776362869306,-6179.27386513637,6450.177007934691,-187500.02235174447,-187500.02235174447,-187500.02235174447,-187500.02235174447
$SILENCE,14215.105976474999,-13396.473335799377,-6017.71545621341,6545.149570125291,-187500.02235174447,-187500.02235174447,-187500.02235174447,-187500.02235174447
$SILENCE,14200.53263909014,-13280.400726842969,-6294.474756059022,6694.481574831197,-187500.02235174447,-187500.02235174447,-187500.02235174447,-187500.02235174447
$SILENCE,14087.030480746089,-13364.756210417298,-6514.617087199341,6607.600344133419,-187500.02235174447,-187500.02235174447,-187500.02235174447,-187500.02235174447
$SILENCE,14056.743867009149,-13494.463383491444,-6326.8624337747615,6410.390902804244,-187500.02235174447,-187500.02235174447,-187500.02235174447,-187500.02235174447
$SILENCE,14164.61338575046,-13440.61803109861,-6086.91645704704,6489.404319453754,-187500.02235174447,-187500.02235174447,-187500.02235174447,-187500.02235174447
$SILENCE,14219.9563050218,-13297.879791007017,-6185.286484394847,6699.644827800373,-187500.02235174447,-187500.02235174447,-187500.02235174447,-187500.02235174447
$SILENCE,14119.239344506186,-13334.201375746892,-6460.61527259532,6668.106516373935,-187500.02235174447,-187500.02235174447,-187500.02235174447,-187500.02235174447
$SILENCE,14073.753544539637,-13465.048487788259,-6337.233643202025,6460.592920850864,-187500.02235174447,-187500.02235174447,-187500.02235174447,-187500.02235174447
$SILENCE,14182.941816203811,-13417.551030820732,-6033.048752909751,6505.586982439397,-187500.02235174447,-187500.02235174447,-187500.02235174447,-187500.02235174447
$SILENCE,14287.302111065641,-13250.471741017313,-6075.427660397013,6724.701133334772,-187500.02235174447,-187500.02235174447,-187500.02235174447,-187500.02235174447
$SILENCE,14145.167368074342,-13297.231590417814,-6458.983595250082,6690.726481762706,-187500.02235174447,-187500.02235174447,-187500.02235174447,-187500.02235174447
$SILENCE,14007.257104785098,-13502.062976606248,-6441.258661897024,6433.971993204594,-187500.02235174447,-187500.02235174447,-187500.02235174447,-187500.02235174447
$SILENCE,14126.011923076145,-13473.028060558803,-6132.134036080127,6449.104124200836,-187500.02235174447,-187500.02235174447,-187500.02235174447,-187500.02235174447
$SILENCE,14243.939726822344,-13308.988608001306,-6114.900841105085,6654.762524934116,-187500.02235174447,-187500.02235174447,-187500.02235174447,-187500.02235174447
$SILENCE,14167.161484618366,-13289.587293814098,-6409.720350470585,6696.962618465736,-187500.02235174447,-187500.02235174447,-187500.02235174447,-187500.02235174447
$SILENCE,14063.807018257025,-13454.945499294461,-6426.7076762566185,6498.032092813503,-187500.02235174447,-187500.02235174447,-187500.02235174447,-187500.02235174447
$SILENCE,14126.056626565056,-13487.243770032379,-6126.769617410853,6438.218824651101,-187500.02235174447,-187500.02235174447,-187500.02235174447,-187500.02235174447
$SILENCE,14232.67444761687,-13336.660067636976,-6069.593855094177,6628.700390899228,-187500.02235174447,-187500.02235174447,-187500.02235174447,-187500.02235174447
$SILENCE,14204.019511225166,-13263.167531867926,-6369.286044750935,6734.312383450554,-187500.02235174447,-187500.02235174447,-187500.02235174447,-187500.02235174447
$SILENCE,14067.092724691955,-13419.495632588343,-6484.621046140319,6545.753067225584,-187500.02235174447,-187500.02235174447,-187500.02235174447,-187500.02235174447
$SILENCE,14096.30645469504,-13487.735508410397,-6215.32722894278,6438.397638606744,-187500.02235174447,-187500.02235174447,-187500.02235174447,-187500.02235174447
$SILENCE,14206.724072304258,-13368.556006974699,-6085.351834935169,6582.387576387832,-187500.02235174447,-187500.02235174447,-187500.02235174447,-187500.02235174447
$SILENCE,14220.470395144272,-13257.467837031823,-6283.164773364637,6752.685517392817,-187500.02235174447,-187500.02235174447,-187500.02235174447,-187500.02235174447
$SILENCE,14115.484251437694,-13363.728030172353,-6418.146958130236,6624.11828328589,-187500.02235174447,-187500.02235174447,-187500.02235174447,-187500.02235174447
$SILENCE,14095.367681427919,-13472.446915202967,-6232.04633379535,6446.377211377288,-187500.02235174447,-187500.02235174447,-187500.02235174447,-187500.02235174447
$SILENCE,14227.198270225319,-13368.556006974699,-6045.699840271454,6562.1815994002345,-187500.02235174447,-187500.02235174447,-187500.02235174447,-187500.02235174447
$SILENCE,14264.279814276673,-13235.518423976711,-6220.691647612053,6756.708831394772,-187500.02235174447,-187500.02235174447,-187500.02235174447,-187500.02235174447
$SILENCE,14073.530027095083,-13389.879571185062,-6513.767720910039,6608.606172633908,-187500.02235174447,-187500.02235174447,-187500.02235174447,-187500.02235174447
$SILENCE,14021.942200892236,-13517.262162835857,-6356.143219011214,6406.03231263546,-187500.02235174447,-187500.02235174447,-187500.02235174447,-187500.02235174447
$SILENCE,14153.549272245084,-13427.251687914335,-6100.707483375965,6508.135081307302,-187500.02235174447,-187500.02235174447,-187500.02235174447,-187500.02235174447
$SILENCE,14234.417883684384,-13280.959520454351,-6188.348673385224,6714.553441352063,-187500.02235174447,-187500.02235174447,-187500.02235174447,-187500.02235174447
$SILENCE,14147.51430124215,-13318.890430795007,-6431.960336203616,6693.2522288861555,-187500.02235174447,-187500.02235174447,-187500.02235174447,-187500.02235174447
$SILENCE,14088.17041971331,-13442.026190999293,-6322.68265756162,6492.6229706553195,-187500.02235174447,-187500.02235174447,-187500.02235174447,-187500.02235174447
