WORD,Channel_1,Channel_2,Channel_3,Channel_4,Channel_5,Channel_6,Channel_7,Channel_8
não,34511.4957703943,-12426.631143883604,-5250.178903362621,39835.39072697052,-187500.02235174447,-187500.02235174447,-187500.02235174447,-187500.02235174447
não,33935.49131578104,-12167.373259946497,-5892.7245012193325,40033.96362471147,-187500.02235174447,-187500.02235174447,-187500.02235174447,-187500.02235174447
não,32653.17173638007,-12132.661000807406,-6662.093897115457,40007.85678718767,-187500.02235174447,-187500.02235174447,-187500.02235174447,-187500.02235174447
não,33142.786698673575,-12418.31629494623,-6027.550223773745,39788.04973221418,-187500.02235174447,-187500.02235174447,-187500.02235174447,-187500.02235174447
não,34427.073231586604,-12434.923641076522,-5245.350926560274,39822.02438378625,-187500.02235174447,-187500.02235174447,-187500.02235174447,-187500.02235174447
não,34154.225487020674,-12188.070975312112,-5694.12925173393,40019.16676988206,-187500.02235174447,-187500.02235174447,-187500.02235174447,-187500.02235174447
não,32802.190816663606,-12079.57560772605,-6581.3146926539775,40052.11324120918,-187500.02235174447,-187500.02235174447,-187500.02235174447,-187500.02235174447
não,32938.55880958543,-12341.53805274225,-6165.661652763088,39853.38388125705,-187500.02235174447,-187500.02235174447,-187500.02235174447,-187500.02235174447
não,34336.39220433142,-12418.65157111306,-5262.986452935512,39855.64140744703,-187500.02235174447,-187500.02235174447,-187500.02235174447,-187500.02235174447
não,34351.41257660539,-12198.486888228284,-5542.070334204475,40035.10356367869,-187500.02235174447,-187500.02235174447,-187500.02235174447,-187500.02235174447
não,33024.50126701609,-12037.353162449976,-6489.851354342861,40104.08104706777,-187500.02235174447,-187500.02235174447,-187500.02235174447,-187500.02235174447
não,32773.75939771645,-12277.388546155518,-6359.987719057527,39879.60247750312,-187500.02235174447,-187500.02235174447,-187500.02235174447,-187500.02235174447
não,34146.31296948349,-12421.713760103436,-5357.3331662813625,39827.88054083354,-187500.02235174447,-187500.02235174447,-187500.02235174447,-187500.02235174447
não,34500.18578769991,-12216.770615192727,-5384.244666605552,40008.01324939886,-187500.02235174447,-187500.02235174447,-187500.02235174447,-187500.02235174447
não,33265.20720305529,-12012.743891804683,-6328.382352397723,40120.286061797866,-187500.02235174447,-187500.02235174447,-187500.02235174447,-187500.02235174447
não,32686.162911196105,-12214.75895819175,-6446.399563121744,39930.78797230578,-187500.02235174447,-187500.02235174447,-187500.02235174447,-187500.02235174447
não,33921.58853072984,-12419.143309491075,-5486.146269577297,39809.57446212464,-187500.02235174447,-187500.02235174447,-187500.02235174447,-187500.02235174447
não,34554.14289881503,-12263.955147737879,-5300.962066765078,39959.979350564405,-187500.02235174447,-187500.02235174447,-187500.02235174447,-187500.02235174447
não,33510.51759845229,-12031.854633313971,-6179.4079756031015,40114.966346617504,-187500.02235174447,-187500.02235174447,-187500.02235174447,-187500.02235174447
não,32618.97356736345,-12146.519082369696,-6557.420677831255,39979.067740329236,-187500.02235174447,-187500.02235174447,-187500.02235174447,-187500.02235174447
não,33688.638650016626,-12404.212344194932,-5615.853442651444,39806.199348711896,-187500.02235174447,-187500.02235174447,-187500.02235174447,-187500.02235174447
não,34619.7229170469,-12313.888944851034,-5205.408359218641,39930.072716483206,-187500.02235174447,-187500.02235174447,-187500.02235174447,-187500.02235174447
não,33717.24888291942,-12063.392944740408,-6050.237244395882,40103.54460520084,-187500.02235174447,-187500.02235174447,-187500.02235174447,-187500.02235174447
não,32588.530491415324,-12085.275302562155,-6650.023955109591,40042.07730794875,-187500.02235174447,-187500.02235174447,-187500.02235174447,-187500.02235174447
não,33392.075704583614,-12368.606015277626,-5846.054058796652,39825.623014643556,-187500.02235174447,-187500.02235174447,-187500.02235174447,-187500.02235174447
não,34572.02429437927,-12344.734352199359,-5175.479373392985,39895.33810559966,-187500.02235174447,-187500.02235174447,-187500.02235174447,-187500.02235174447
não,34036.36473850784,-12097.702872479305,-5789.928828469376,40058.7070058235,-187500.02235174447,-187500.02235174447,-187500.02235174447,-187500.02235174447
não,32691.16970195409,-12051.993555068202,-6641.0162020941025,40039.5515608253,-187500.02235174447,-187500.02235174447,-187500.02235174447,-187500.02235174447
não,33182.818672993024,-12344.801407432726,-6012.328685799681,39830.62980540154,-187500.02235174447,-187500.02235174447,-187500.02235174447,-187500.02235174447
não,34445.22284808431,-12377.189085148464,-5241.908757914157,39860.5587912272,-187500.02235174447,-187500.02235174447,-187500.02235174447,-187500.02235174447
não,34203.55578703353,-12142.384009645464,-5656.533617560103,40054.54958135481,-187500.02235174447,-187500.02235174447,-187500.02235174447,-187500.02235174447
não,32837.01483452497,-12038.515453161652,-6570.429393104243,40074.55439264231,-187500.02235174447,-187500.02235174447,-187500.02235174447,-187500.02235174447
não,32949.958199257635,-12304.568267413171,-6185.3982431171235,39859.999997615814,-187500.02235174447,-187500.02235174447,-187500.02235174447,-187500.02235174447
não,34327.384451315935,-12383.06759394021,-5289.920305004157,39849.47232597737,-187500.02235174447,-187500.02235174447,-187500.02235174447,-187500.02235174447
não,34401.81576035211,-12168.423791935897,-5505.659342486781,40027.079287419234,-187500.02235174447,-187500.02235174447,-187500.02235174447,-187500.02235174447
não,33073.89862226231,-12008.877040013915,-6435.447208338644,40093.575727173775,-187500.02235174447,-187500.02235174447,-187500.02235174447,-187500.02235174447
não,32744.880943880195,-12242.139845149499,-6367.766126127974,39884.966896172395,-187500.02235174447,-187500.02235174447,-187500.02235174447,-187500.02235174447
não,34120.250835448605,-12390.823649266202,-5391.240762620064,39823.92428206495,-187500.02235174447,-187500.02235174447,-187500.02235174447,-187500.02235174447
não,34579.89210842754,-12210.84740291207,-5303.890145288724,40014.60701401318,-187500.02235174447,-187500.02235174447,-187500.02235174447,-187500.02235174447
não,33339.996140002746,-12007.155955690856,-6291.971360680028,40109.579576203774,-187500.02235174447,-187500.02235174447,-187500.02235174447,-187500.02235174447
não,32638.777212950852,-12149.804788804626,-6524.295392548489,39956.15720226255,-187500.02235174447,-187500.02235174447,-187500.02235174447,-187500.02235174447
não,33915.77707717146,-12361.453457051928,-5471.438821725706,39843.34794799661,-187500.02235174447,-187500.02235174447,-187500.02235174447,-187500.02235174447
não,34633.67040558701,-12219.89985941647,-5206.168318530121,39994.33398179221,-187500.02235174447,-187500.02235174447,-187500.02235174447,-187500.02235174447
não,33599.54459661777,-11985.65357752485,-6091.6550268715655,40148.71748074502,-187500.02235174447,-187500.02235174447,-187500.02235174447,-187500.02235174447
não,32652.277666601858,-12083.285997305633,-6518.14866282328,40031.05789793228,-187500.02235174447,-187500.02235174447,-187500.02235174447,-187500.02235174447
não,33726.74837431293,-12332.642058449037,-5576.760241599112,39874.70744546741,-187500.02235174447,-187500.02235174447,-187500.02235174447,-187500.02235174447
não,34683.090112577695,-12215.764786692238,-5135.737971751449,40018.697383248495,-187500.02235174447,-187500.02235174447,-187500.02235174447,-187500.02235174447
não,33896.01813507296,-11961.491341768664,-5877.122983589528,40194.9855917675,-187500.02235174447,-187500.02235174447,-187500.02235174447,-187500.02235174447
não,32764.505775511956,-11996.56122881904,-6482.944665306171,40114.74282917295,-187500.02235174447,-187500.02235174447,-187500.02235174447,-187500.02235174447
não,33526.47674399337,-12262.077601203633,-5698.979580280731,39942.924969545005,-187500.02235174447,-187500.02235174447,-187500.02235174447,-187500.02235174447
não,34707.78879020081,-12206.198240065365,-5033.478740868419,40048.15698244059,-187500.02235174447,-187500.02235174447,-187500.02235174447,-187500.02235174447
não,34216.96683370672,-11946.64978345034,-5607.9185733698105,40246.70752843709,-187500.02235174447,-187500.02235174447,-187500.02235174447,-187500.02235174447
não,32906.059373147415,-11883.573160597463,-6401.181984088658,40252.92131339566,-187500.02235174447,-187500.02235174447,-187500.02235174447,-187500.02235174447
não,33361.40911119093,-12151.056486494123,-5779.848191720032,40062.35034016971,-187500.02235174447,-187500.02235174447,-187500.02235174447,-187500.02235174447
não,34693.32721153822,-12152.866977795004,-4968.613978459118,40127.43862002357,-187500.02235174447,-187500.02235174447,-187500.02235174447,-187500.02235174447
não,34546.0515673222,-11897.140669481834,-5308.159328479687,40355.09113730087,-187500.02235174447,-187500.02235174447,-187500.02235174447,-187500.02235174447
não,33198.53194934511,-11768.171103974713,-6206.721807327486,40414.36796359634,-187500.02235174447,-187500.02235174447,-187500.02235174447,-187500.02235174447
não,33288.117741121976,-12008.452356869264,-5822.361209674026,40235.24108353151,-187500.02235174447,-187500.02235174447,-187500.02235174447,-187500.02235174447
não,34728.3970985886,-12063.370592995954,-4834.615270449552,40259.962112899084,-187500.02235174447,-187500.02235174447,-187500.02235174447,-187500.02235174447
não,34868.341370623275,-11820.63064821132,-5007.081330666701,40469.82264158996,-187500.02235174447,-187500.02235174447,-187500.02235174447,-187500.02235174447
não,33580.74677953086,-11617.565049834855,-5940.4454756314135,40586.007009268644,-187500.02235174447,-187500.02235174447,-187500.02235174447,-187500.02235174447
não,33296.0079069147,-11797.071909555425,-5832.82182607911,40440.16187669777,-187500.02235174447,-187500.02235174447,-187500.02235174447,-187500.02235174447
não,34702.022040131335,-11928.03078031907,-4769.459935362332,40412.44571357319,-187500.02235174447,-187500.02235174447,-187500.02235174447,-187500.02235174447
não,35181.131682530846,-11704.98272239956,-4691.921733846872,40633.68328019181,-187500.02235174447,-187500.02235174447,-187500.02235174447,-187500.02235174447
não,34025.4794389581,-11448.317640819268,-5584.270427736095,40810.06089568864,-187500.02235174447,-187500.02235174447,-187500.02235174447,-187500.02235174447
não,33389.50525397125,-11570.805200434352,-5750.433296016848,40685.53932732813,-187500.02235174447,-187500.02235174447,-187500.02235174447,-187500.02235174447
não,34654.90456281955,-11736.610440803819,-4719.906117904916,40606.995297312176,-187500.02235174447,-187500.02235174447,-187500.02235174447,-187500.02235174447
não,35405.54319686213,-11574.225017336013,-4440.375201746846,40779.99779939625,-187500.02235174447,-187500.02235174447,-187500.02235174447,-187500.02235174447
não,34451.79426095418,-11331.663886507022,-5251.385897563207,40956.755394548825,-187500.02235174447,-187500.02235174447,-187500.02235174447,-187500.02235174447
não,33496.503054678804,-11394.226419237426,-5695.917391290354,40851.92571305343,-187500.02235174447,-187500.02235174447,-187500.02235174447,-187500.02235174447
não,34517.66485186396,-11610.323084631334,-4767.716499294817,40730.10870577201,-187500.02235174447,-187500.02235174447,-187500.02235174447,-187500.02235174447
não,35529.885951267,-11505.985141513962,-4258.588464091833,40874.56803018666,-187500.02235174447,-187500.02235174447,-187500.02235174447,-187500.02235174447
não,34792.904233086614,-11260.048897272218,-4980.393347787064,41050.07392764973,-187500.02235174447,-187500.02235174447,-187500.02235174447,-187500.02235174447
não,33594.40369539305,-11271.023603799773,-5652.040916924586,40968.06537724321,-187500.02235174447,-187500.02235174447,-187500.02235174447,-187500.02235174447
não,34322.89175068042,-11536.718790140008,-4888.818250753671,40775.34863654955,-187500.02235174447,-187500.02235174447,-187500.02235174447,-187500.02235174447
não,35503.84616897657,-11504.487574635456,-4238.226024893049,40854.13853575451,-187500.02235174447,-187500.02235174447,-187500.02235174447,-187500.02235174447
não,35000.17195942068,-11275.046917801728,-4836.828093150627,41025.039973859784,-187500.02235174447,-187500.02235174447,-187500.02235174447,-187500.02235174447
não,33668.38796954012,-11229.851690513098,-5664.289672886094,40996.653258401544,-187500.02235174447,-187500.02235174447,-187500.02235174447,-187500.02235174447
não,34033.97310185112,-11509.18144097107,-5130.217090870988,40772.28644755918,-187500.02235174447,-187500.02235174447,-187500.02235174447,-187500.02235174447
não,35371.38973133442,-11542.217319276015,-4278.459164912601,40811.84903524507,-187500.02235174447,-187500.02235174447,-187500.02235174447,-187500.02235174447
não,35209.45134275572,-11322.991409658362,-4660.383422420433,40977.162537236516,-187500.02235174447,-187500.02235174447,-187500.02235174447,-187500.02235174447
não,33815.01541316693,-11223.41438810997,-5624.078884610997,40993.21108975543,-187500.02235174447,-187500.02235174447,-187500.02235174447,-187500.02235174447
não,33759.67249389559,-11489.668368061588,-5375.192210101153,40753.801554894635,-187500.02235174447,-187500.02235174447,-187500.02235174447,-187500.02235174447
não,35136.38349013132,-11617.63210506822,-4428.260556252069,40709.32158342857,-187500.02235174447,-187500.02235174447,-187500.02235174447,-187500.02235174447
não,35272.86324177543,-11436.046533113305,-4610.807253218562,40850.02581477473,-187500.02235174447,-187500.02235174447,-187500.02235174447,-187500.02235174447
não,34000.06550551242,-11296.102261078628,-5543.500845849615,40905.81576893518,-187500.02235174447,-187500.02235174447,-187500.02235174447,-187500.02235174447
não,33600.57277686272,-11502.520621123389,-5561.382241413861,40700.38088564645,-187500.02235174447,-187500.02235174447,-187500.02235174447,-187500.02235174447
não,34860.093576919266,-11699.618303730287,-4604.504061282166,40594.187747739285,-187500.02235174447,-187500.02235174447,-187500.02235174447,-187500.02235174447
não,35339.18086757432,-11534.349505227747,-4553.989118813171,40738.915293087404,-187500.02235174447,-187500.02235174447,-187500.02235174447,-187500.02235174447
não,34057.57654399592,-11352.853340250653,-5572.200485730229,40814.195968412874,-187500.02235174447,-187500.02235174447,-187500.02235174447,-187500.02235174447
não,33308.949566954325,-11515.775205585385,-5839.527349415702,40647.608416987474,-187500.02235174447,-187500.02235174447,-187500.02235174447,-187500.02235174447
não,34447.23450508529,-11757.218749191612,-4895.188497923434,40499.08107508196,-187500.02235174447,-187500.02235174447,-187500.02235174447,-187500.02235174447
não,35195.0568193265,-11652.456122929589,-4625.402942347878,40612.873806103926,-187500.02235174447,-187500.02235174447,-187500.02235174447,-187500.02235174447
não,34230.355528635446,-11436.180643580037,-5468.220170524141,40735.85310409703,-187500.02235174447,-187500.02235174447,-187500.02235174447,-187500.02235174447
não,33209.48430412821,-11529.677990636586,-5964.317138709681,40605.27421298912,-187500.02235174447,-187500.02235174447,-187500.02235174447,-187500.02235174447
não,34166.29542902654,-11803.755081147561,-5093.940209620025,40417.96659445365,-187500.02235174447,-187500.02235174447,-187500.02235174447,-187500.02235174447
não,35176.57192666196,-11733.74941751354,-4596.613895489442,40521.566930003995,-187500.02235174447,-187500.02235174447,-187500.02235174447,-187500.02235174447
não,34430.44834499936,-11496.977388498473,-5338.781218383458,40676.688036523825,-187500.02235174447,-187500.02235174447,-187500.02235174447,-187500.02235174447
não,33192.63108880891,-11525.118234767704,-6055.422849109513,40597.87578557441,-187500.02235174447,-187500.02235174447,-187500.02235174447,-187500.02235174447
não,33855.98616075351,-11811.421729495733,-5328.365305467285,40378.672227701216,-187500.02235174447,-187500.02235174447,-187500.02235174447,-187500.02235174447
não,35055.31371299192,-11799.57530493442,-4651.845056038506,40437.30085340749,-187500.02235174447,-187500.02235174447,-187500.02235174447,-187500.02235174447
não,34621.60046358114,-11560.679860196098,-5189.113937510721,40617.210044528256,-187500.02235174447,-187500.02235174447,-187500.02235174447,-187500.02235174447
não,33280.65225847391,-11497.960865254507,-6046.124523416105,40596.95936405175,-187500.02235174447,-187500.02235174447,-187500.02235174447,-187500.02235174447
não,33597.62234659462,-11780.196342491668,-5534.1354649228415,40377.73345443409,-187500.02235174447,-187500.02235174447,-187500.02235174447,-187500.02235174447
não,34928.35580448578,-11832.611183239364,-4690.2230012682685,40405.784893725504,-187500.02235174447,-187500.02235174447,-187500.02235174447,-187500.02235174447
não,34805.6670791706,-11611.48537534301,-5056.836313824215,40577.423939397806,-187500.02235174447,-187500.02235174447,-187500.02235174447,-187500.02235174447
não,33444.57995230913,-11495.390414642146,-5990.736900655855,40610.839797358494,-187500.02235174447,-187500.02235174447,-187500.02235174447,-187500.02235174447
não,33377.34590498757,-11746.445208364155,-5733.177749297351,40395.301925575965,-187500.02235174447,-187500.02235174447,-187500.02235174447,-187500.02235174447
não,34773.30175319931,-11861.377878353343,-4761.592121314064,40361.70725365964,-187500.02235174447,-187500.02235174447,-187500.02235174447,-187500.02235174447
não,34950.50638324099,-11661.285061989434,-4918.59077436814,40524.9643951612,-187500.02235174447,-187500.02235174447,-187500.02235174447,-187500.02235174447
não,33632.066384800244,-11483.566341825288,-5889.930533162419,40627.38008825542,-187500.02235174447,-187500.02235174447,-187500.02235174447,-187500.02235174447
não,33204.70103081477,-11696.019672872982,-5905.97908568133,40424.82858000143,-187500.02235174447,-187500.02235174447,-187500.02235174447,-187500.02235174447
não,34528.728965369344,-11881.181523940746,-4917.294373189732,40323.79869506344,-187500.02235174447,-187500.02235174447,-187500.02235174447,-187500.02235174447
não,35038.1699249947,-11713.476385292577,-4832.156578559468,40488.79927263252,-187500.02235174447,-187500.02235174447,-187500.02235174447,-187500.02235174447
não,33883.32234422235,-11488.014338971894,-5742.297261035116,40626.55307371057,-187500.02235174447,-187500.02235174447,-187500.02235174447,-187500.02235174447
não,33108.07443953448,-11631.49018663051,-6023.459854538424,40468.68270262274,-187500.02235174447,-187500.02235174447,-187500.02235174447,-187500.02235174447
não,34274.09789253448,-11884.489582120132,-5068.950959318991,40304.73265704306,-187500.02235174447,-187500.02235174447,-187500.02235174447,-187500.02235174447
não,35083.4322075167,-11761.845560293861,-4748.918682207905,40444.11813546636,-187500.02235174447,-187500.02235174447,-187500.02235174447,-187500.02235174447
não,34166.67540868228,-11520.312609709814,-5550.4522383752155,40610.41511421384,-187500.02235174447,-187500.02235174447,-187500.02235174447,-187500.02235174447
não,33175.59905953396,-11611.217154409547,-6054.327613631202,40490.92268835577,-187500.02235174447,-187500.02235174447,-187500.02235174447,-187500.02235174447
não,34021.00909006704,-11852.437180571222,-5257.331461588319,40322.97168051859,-187500.02235174447,-187500.02235174447,-187500.02235174447,-187500.02235174447
não,35030.41386966871,-11779.145810502268,-4725.69521971884,40424.58271081242,-187500.02235174447,-187500.02235174447,-187500.02235174447,-187500.02235174447
não,34310.84416041901,-11559.942252629073,-5452.4845424276045,40571.903058517346,-187500.02235174447,-187500.02235174447,-187500.02235174447,-187500.02235174447
não,33070.72467454966,-11578.33773831579,-6180.324397125769,40500.69040068274,-187500.02235174447,-187500.02235174447,-187500.02235174447,-187500.02235174447
não,33708.397592115114,-11863.814218498972,-5467.661376912758,40289.533470813454,-187500.02235174447,-187500.02235174447,-187500.02235174447,-187500.02235174447
não,34970.77941546195,-11850.91726194826,-4732.914833177904,40364.545925205464,-187500.02235174447,-187500.02235174447,-187500.02235174447,-187500.02235174447
não,34576.5616985037,-11608.423186352633,-5265.42279308114,40555.09454668695,-187500.02235174447,-187500.02235174447,-187500.02235174447,-187500.02235174447
não,33227.11983050345,-11537.165825029115,-6124.400332498591,40550.53479081807,-187500.02235174447,-187500.02235174447,-187500.02235174447,-187500.02235174447
não,33491.98800229884,-11814.193345808191,-5640.485065041193,40318.1660554607,-187500.02235174447,-187500.02235174447,-187500.02235174447,-187500.02235174447
não,34852.15870763764,-11867.457552845188,-4760.60864455803,40336.159209747224,-187500.02235174447,-187500.02235174447,-187500.02235174447,-187500.02235174447
não,34791.11609353019,-11628.11507321776,-5073.8236396102475,40542.59992153644,-187500.02235174447,-187500.02235174447,-187500.02235174447,-187500.02235174447
não,33432.889989959,-11506.387472914157,-6031.1935581199605,40583.861241800936,-187500.02235174447,-187500.02235174447,-187500.02235174447,-187500.02235174447
não,33271.24217405822,-11791.975711819616,-5860.5603409481455,40324.31278518591,-187500.02235174447,-187500.02235174447,-187500.02235174447,-187500.02235174447
não,34641.627626613095,-11934.98217284467,-4903.570402094174,40266.332360068845,-187500.02235174447,-187500.02235174447,-187500.02235174447,-187500.02235174447
não,34898.136245982205,-11730.664876778708,-4992.306827581743,40455.495173394105,-187500.02235174447,-187500.02235174447,-187500.02235174447,-187500.02235174447
não,33637.386099980606,-11541.703229153542,-5930.767170282265,40563.81172702453,-187500.02235174447,-187500.02235174447,-187500.02235174447,-187500.02235174447
não,33103.5146836656,-11763.723106828107,-6017.961325402418,40347.759765119525,-187500.02235174447,-187500.02235174447,-187500.02235174447,-187500.02235174447
não,34459.84088895808,-11917.88308833636,-4984.886048422582,40285.08547366685,-187500.02235174447,-187500.02235174447,-187500.02235174447,-187500.02235174447
não,35052.36328272382,-11723.668780764197,-4825.987497089804,40474.04712129201,-187500.02235174447,-187500.02235174447,-187500.02235174447,-187500.02235174447
não,33945.99663567503,-11517.451586419535,-5740.732638923245,40602.92727982131,-187500.02235174447,-187500.02235174447,-187500.02235174447,-187500.02235174447
não,33017.68398495722,-11757.71048756963,-6177.619836046677,40357.41571872422,-187500.02235174447,-187500.02235174447,-187500.02235174447,-187500.02235174447
não,34161.53450745756,-11988.626359537408,-5201.7873766168805,40224.869874104246,-187500.02235174447,-187500.02235174447,-187500.02235174447,-187500.02235174447
não,35016.68989857315,-11837.282697830522,-4831.8660058815485,40387.679980716704,-187500.02235174447,-187500.02235174447,-187500.02235174447,-187500.02235174447
não,34140.032129291554,-11588.77600297642,-5632.505492270648,40569.22084918271,-187500.02235174447,-187500.02235174447,-187500.02235174447,-187500.02235174447
não,33014.37592677783,-11713.163460870202,-6227.464226182012,40414.92675720772,-187500.02235174447,-187500.02235174447,-187500.02235174447,-187500.02235174447
não,33915.77707717146,-11986.860571725438,-5362.407012272717,40234.21290328657,-187500.02235174447,-187500.02235174447,-187500.02235174447,-187500.02235174447
não,35023.79775330994,-11921.772291871583,-4791.766976328728,40338.617901637306,-187500.02235174447,-187500.02235174447,-187500.02235174447,-187500.02235174447
não,34372.758492560206,-11666.470666703066,-5464.308615244462,40524.65147073883,-187500.02235174447,-187500.02235174447,-187500.02235174447,-187500.02235174447
não,33107.470942434185,-11660.435695700133,-6220.132854000671,40476.90814458229,-187500.02235174447,-187500.02235174447,-187500.02235174447,-187500.02235174447
não,33700.08274317774,-11952.84121666446,-5524.926546207255,40281.33038059835,-187500.02235174447,-187500.02235174447,-187500.02235174447,-187500.02235174447
não,34941.051595336394,-11962.854798180439,-4783.988569258281,40331.44299166715,-187500.02235174447,-187500.02235174447,-187500.02235174447,-187500.02235174447
não,34540.21776201937,-11750.110894454825,-5323.447921687117,40490.54270870003,-187500.02235174447,-187500.02235174447,-187500.02235174447,-187500.02235174447
não,33222.76124033466,-11653.193730496614,-6187.789879773842,40500.48923498264,-187500.02235174447,-187500.02235174447,-187500.02235174447,-187500.02235174447
não,33437.53915280571,-11943.252318293133,-5735.99406909872,40248.74153718252,-187500.02235174447,-187500.02235174447,-187500.02235174447,-187500.02235174447
não,34770.1054537422,-12063.504703462686,-4895.59082932363,40225.2945572489,-187500.02235174447,-187500.02235174447,-187500.02235174447,-187500.02235174447
não,34740.064709194274,-11842.244785099601,-5179.681501350582,40430.394164370795,-187500.02235174447,-187500.02235174447,-187500.02235174447,-187500.02235174447
não,33404.927957645414,-11703.440452032144,-6105.133128778116,40487.793444132025,-187500.02235174447,-187500.02235174447,-187500.02235174447,-187500.02235174447
não,33239.7932696096,-11950.784856174572,-5906.582582781623,40264.61127574579,-187500.02235174447,-187500.02235174447,-187500.02235174447,-187500.02235174447
não,34596.7676754913,-12094.238352088732,-4952.833646873671,40207.79314134039,-187500.02235174447,-187500.02235174447,-187500.02235174447,-187500.02235174447
não,34888.0332574884,-11897.095965992925,-5022.481682596407,40407.684792004206,-187500.02235174447,-187500.02235174447,-187500.02235174447,-187500.02235174447
não,33663.42588227104,-11696.131431595259,-5937.718562807866,40549.08192742848,-187500.02235174447,-187500.02235174447,-187500.02235174447,-187500.02235174447
não,33124.34650949795,-11917.301942980523,-6054.841703753675,40331.17477073369,-187500.02235174447,-187500.02235174447,-187500.02235174447,-187500.02235174447
não,34395.400809693434,-12136.30433515362,-5091.190945052022,40190.537594620895,-187500.02235174447,-187500.02235174447,-187500.02235174447,-187500.02235174447
não,34954.64145596522,-11990.839182238482,-4940.6295944010735,40344.29524472896,-187500.02235174447,-187500.02235174447,-187500.02235174447,-187500.02235174447
não,33856.72376832054,-11781.090412269881,-5842.991869806275,40487.30170575401,-187500.02235174447,-187500.02235174447,-187500.02235174447,-187500.02235174447
não,33017.5945779794,-11905.902553308315,-6179.855010492207,40336.583892891875,-187500.02235174447,-187500.02235174447,-187500.02235174447,-187500.02235174447
não,34131.94079779873,-12148.039000992656,-5219.17703380311,40181.038103227394,-187500.02235174447,-187500.02235174447,-187500.02235174447,-187500.02235174447
não,35012.80069503793,-12059.682555160827,-4854.284805570222,40320.35652641732,-187500.02235174447,-187500.02235174447,-187500.02235174447,-187500.02235174447
não,34126.330509940446,-11831.158319849768,-5660.2216553952285,40483.56896442997,-187500.02235174447,-187500.02235174447,-187500.02235174447,-187500.02235174447
não,33007.73745867461,-11894.860791547393,-6262.62352021021,40354.331177989385,-187500.02235174447,-187500.02235174447,-187500.02235174447,-187500.02235174447
não,33862.08818698981,-12176.738640873271,-5450.8975685712785,40149.589198778776,-187500.02235174447,-187500.02235174447,-187500.02235174447,-187500.02235174447
não,34933.653167921686,-12129.487053094752,-4849.412125278965,40274.3566363283,-187500.02235174447,-187500.02235174447,-187500.02235174447,-187500.02235174447
não,34402.64277489696,-11894.860791547393,-5474.903342116278,40476.81873760447,-187500.02235174447,-187500.02235174447,-187500.02235174447,-187500.02235174447
não,33130.51559096761,-11895.3078264365,-6211.236859707458,40414.54677755199,-187500.02235174447,-187500.02235174447,-187500.02235174447,-187500.02235174447
não,33635.75442263537,-12210.422719767419,-5534.448389345216,40150.3268063458,-187500.02235174447,-187500.02235174447,-187500.02235174447,-187500.02235174447
não,34855.51146930593,-12222.85028968457,-4809.961296315348,40141.65432949714,-187500.02235174447,-187500.02235174447,-187500.02235174447,-187500.02235174447
não,34617.55479783473,-11992.269693883622,-5253.665775497649,40393.11145461934,-187500.02235174447,-187500.02235174447,-187500.02235174447,-187500.02235174447
não,33220.034327511115,-11921.280553493567,-6164.812286473785,40315.8638257818,-187500.02235174447,-187500.02235174447,-187500.02235174447,-187500.02235174447
não,33371.46739619582,-12204.432452253397,-5723.030057314641,40005.420447042045,-187500.02235174447,-187500.02235174447,-187500.02235174447,-187500.02235174447
não,34720.17165662905,-12266.659708816971,-4822.14299704349,39985.16976656554,-187500.02235174447,-187500.02235174447,-187500.02235174447,-187500.02235174447
não,34597.304117358224,-12161.31593719911,-5290.322636404352,40016.037525658314,-187500.02235174447,-187500.02235174447,-187500.02235174447,-187500.02235174447
não,33311.85529373351,-11914.351512712421,-6161.772449227864,40166.3306553758,-187500.02235174447,-187500.02235174447,-187500.02235174447,-187500.02235174447
não,33143.814878918514,-12051.680630645827,-5926.766208024766,39991.651772457575,-187500.02235174447,-187500.02235174447,-187500.02235174447,-187500.02235174447
não,34388.918803801396,-12256.601423812082,-5032.830540279215,39893.438207320956,-187500.02235174447,-187500.02235174447,-187500.02235174447,-187500.02235174447
não,34712.61676700315,-12083.151886838901,-5059.160895247566,40087.89838408213,-187500.02235174447,-187500.02235174447,-187500.02235174447,-187500.02235174447
não,33499.0064500578,-11887.931750766249,-6037.42969482299,40192.59395511079,-187500.02235174447,-187500.02235174447,-187500.02235174447,-187500.02235174447
não,32910.8649982053,-12070.165523310367,-6207.660580594609,39942.74615558936,-187500.02235174447,-187500.02235174447,-187500.02235174447,-187500.02235174447
não,34157.98058008916,-12185.969911333314,-5223.759141416448,39807.8980812905,-187500.02235174447,-187500.02235174447,-187500.02235174447,-187500.02235174447
não,34741.741090028416,-12044.081037531023,-5032.070580967735,39925.49060886987,-187500.02235174447,-187500.02235174447,-187500.02235174447,-187500.02235174447
não,33687.029324415846,-11829.034904126514,-5830.698410355855,40095.74384638594,-187500.02235174447,-187500.02235174447,-187500.02235174447,-187500.02235174447
não,32896.1128468648,-11923.023989561081,-6097.198259496482,40079.114148511195,-187500.02235174447,-187500.02235174447,-187500.02235174447,-187500.02235174447
não,33980.574784347395,-12102.352035326008,-5251.18473186311,39951.15041150456,-187500.02235174447,-187500.02235174447,-187500.02235174447,-187500.02235174447
não,34826.677718958585,-11977.361080331932,-4913.047541743224,40061.143345969125,-187500.02235174447,-187500.02235174447,-187500.02235174447,-187500.02235174447
não,33985.53687161647,-11744.65706880773,-5651.727992502212,40224.13226653722,-187500.02235174447,-187500.02235174447,-187500.02235174447,-187500.02235174447
não,32890.59196598434,-11712.783481214463,-6223.3738569466905,40194.113873733746,-187500.02235174447,-187500.02235174447,-187500.02235174447,-187500.02235174447
não,33728.15653421361,-11950.516635241109,-5404.0036087040435,39955.352539462154,-187500.02235174447,-187500.02235174447,-187500.02235174447,-187500.02235174447
não,34920.19741775959,-11886.121259465368,-4727.706876719818,40091.966401572994,-187500.02235174447,-187500.02235174447,-187500.02235174447,-187500.02235174447
não,34329.44081180583,-11705.250943333023,-5374.320492067396,40360.634369925785,-187500.02235174447,-187500.02235174447,-187500.02235174447,-187500.02235174447
não,33062.20865991219,-11632.11603547526,-6128.4012947560905,40346.64217789676,-187500.02235174447,-187500.02235174447,-187500.02235174447,-187500.02235174447
não,33556.20456411893,-11887.3059019215,-5506.9557436651885,40134.99350964946,-187500.02235174447,-187500.02235174447,-187500.02235174447,-187500.02235174447
não,34837.94299816406,-11911.557544655509,-4741.743772237751,40182.96035325055,-187500.02235174447,-187500.02235174447,-187500.02235174447,-187500.02235174447
não,34613.44207685495,-11594.252180367968,-5115.7331604639485,40442.93349301023,-187500.02235174447,-187500.02235174447,-187500.02235174447,-187500.02235174447
não,33307.18377914235,-11467.562492795289,-5947.620385601567,40495.30363026901,-187500.02235174447,-187500.02235174447,-187500.02235174447,-187500.02235174447
não,33427.81614396765,-11755.65412707974,-5584.8515730919335,40279.98927593104,-187500.02235174447,-187500.02235174447,-187500.02235174447,-187500.02235174447
não,34794.69237264304,-11831.359485549867,-4658.170599719358,40274.714264239585,-187500.02235174447,-187500.02235174447,-187500.02235174447,-187500.02235174447
não,34835.618416740705,-11621.566012092355,-4881.978616950348,40464.07824326494,-187500.02235174447,-187500.02235174447,-187500.02235174447,-187500.02235174447
não,33547.129755870075,-11426.07765508624,-5844.265919240227,40594.92535530631,-187500.02235174447,-187500.02235174447,-187500.02235174447,-187500.02235174447
não,33312.615253045,-11663.296718990412,-5716.302182233594,40369.26214328553,-187500.02235174447,-187500.02235174447,-187500.02235174447,-187500.02235174447
não,34649.33897845018,-11803.911543358749,-4751.17620839789,40290.248726636026,-187500.02235174447,-187500.02235174447,-187500.02235174447,-187500.02235174447
não,35049.41285245572,-11575.09673536977,-4694.469832714776,40543.89632271485,-187500.02235174447,-187500.02235174447,-187500.02235174447,-187500.02235174447
$SILENCE,33881.69066687711,-11362.933976999997,-5558.700032079224,40719.17870273336,-187500.02235174447,-187500.02235174447,-187500.02235174447,-187500.02235174447
$SILENCE,33298.13132263796,-11537.724618640497,-5725.645211415913,40497.650563436815,-187500.02235174447,-187500.02235174447,-187500.02235174447,-187500.02235174447
$SILENCE,34557.76388141679,-11736.99042045956,-4739.285080347667,40385.534213249,-187500.02235174447,-187500.02235174447,-187500.02235174447,-187500.02235174447
$SILENCE,35174.47086268316,-11613.877011999728,-4557.833618859484,40566.80686078154,-187500.02235174447,-187500.02235174447,-187500.02235174447,-187500.02235174447
$SILENCE,34108.024431231555,-11391.164230247048,-5416.364123387829,40720.22923472276,-187500.02235174447,-187500.02235174447,-187500.02235174447,-187500.02235174447
$SILENCE,33218.46970539924,-11503.593504857243,-5830.430189422392,40567.18684043728,-187500.02235174447,-187500.02235174447,-187500.02235174447,-187500.02235174447
$SILENCE,34253.44488065778,-11742.600708317841,-4955.761725397316,40389.46812027313,-187500.02235174447,-187500.02235174447,-187500.02235174447,-187500.02235174447
$SILENCE,35156.54476363001,-11655.339497964324,-4535.70539184873,40506.032467607554,-187500.02235174447,-187500.02235174447,-187500.02235174447,-187500.02235174447
$SILENCE,34369.24926868072,-11428.6481056986,-5256.996185421489,40695.374094888466,-187500.02235174447,-187500.02235174447,-187500.02235174447,-187500.02235174447
$SILENCE,33227.72332760374,-11465.640242772131,-5865.768297406233,40586.69991334676,-187500.02235174447,-187500.02235174447,-187500.02235174447,-187500.02235174447
$SILENCE,34011.777819607,-11725.3675133428,-5121.142282622133,40346.53041917449,-187500.02235174447,-187500.02235174447,-187500.02235174447,-187500.02235174447
$SILENCE,35155.69539734071,-11668.795248126418,-4489.169059892781,40429.94712948169,-187500.02235174447,-187500.02235174447,-187500.02235174447,-187500.02235174447
$SILENCE,34609.754039019834,-11484.348652881225,-5060.211427236966,40651.92230366734,-187500.02235174447,-187500.02235174447,-187500.02235174447,-187500.02235174447
$SILENCE,33316.63856704695,-11466.869588717174,-5852.49136119978,40612.62793691492,-187500.02235174447,-187500.02235174447,-187500.02235174447,-187500.02235174447
$SILENCE,33732.22455170447,-11737.817435004406,-5334.892014848235,40375.76650092203,-187500.02235174447,-187500.02235174447,-187500.02235174447,-187500.02235174447
$SILENCE,34993.19821515062,-11743.383019373778,-4562.572188684009,40406.90248094827,-187500.02235174447,-187500.02235174447,-187500.02235174447,-187500.02235174447
$SILENCE,34795.295869743335,-11505.538106624856,-4930.683068118461,40597.60756464095,-187500.02235174447,-187500.02235174447,-187500.02235174447,-187500.02235174447
$SILENCE,33494.267880233274,-11403.100061786183,-5774.439069561848,40654.179829857334,-187500.02235174447,-187500.02235174447,-187500.02235174447,-187500.02235174447
$SILENCE,33564.09472991165,-11660.16747476667,-5465.135629789309,40410.85873971686,-187500.02235174447,-187500.02235174447,-187500.02235174447,-187500.02235174447
$SILENCE,34899.54440588289,-11764.639528350775,-4598.62555249042,40398.8335011999,-187500.02235174447,-187500.02235174447,-187500.02235174447,-187500.02235174447
$SILENCE,34974.64626725272,-11538.551633185343,-4764.251978904245,40610.19159676929,-187500.02235174447,-187500.02235174447,-187500.02235174447,-187500.02235174447
$SILENCE,33679.407379556586,-11400.730776873921,-5664.580245564013,40664.036949162124,-187500.02235174447,-187500.02235174447,-187500.02235174447,-187500.02235174447
$SILENCE,33386.59952719206,-11638.978021023038,-5634.092466126975,40422.66046078926,-187500.02235174447,-187500.02235174447,-187500.02235174447,-187500.02235174447
$SILENCE,34694.82477841673,-11787.035976294992,-4702.628219440963,40346.88804708577,-187500.02235174447,-187500.02235174447,-187500.02235174447,-187500.02235174447
$SILENCE,35075.832614401894,-11622.840061526307,-4670.821687081062,40527.82541845148,-187500.02235174447,-187500.02235174447,-187500.02235174447,-187500.02235174447
$SILENCE,33897.09101880682,-11435.577146479744,-5553.760296554601,40641.171114584344,-187500.02235174447,-187500.02235174447,-187500.02235174447,-187500.02235174447
$SILENCE,33239.86032484297,-11619.800224280385,-5787.470136579292,40430.90825449327,-187500.02235174447,-187500.02235174447,-187500.02235174447,-187500.02235174447
$SILENCE,34439.83607767059,-11839.786093209517,-4875.608369780585,40285.3089911114,-187500.02235174447,-187500.02235174447,-187500.02235174447,-187500.02235174447
$SILENCE,35079.74416968157,-11719.041969661948,-4653.029698494637,40433.65751906127,-187500.02235174447,-187500.02235174447,-187500.02235174447,-187500.02235174447
$SILENCE,34076.08378840492,-11494.384586141658,-5460.084135542409,40594.053637272555,-187500.02235174447,-187500.02235174447,-187500.02235174447,-187500.02235174447
$SILENCE,33171.68750425428,-11588.552485531865,-5890.466975029347,40451.091879736414,-187500.02235174447,-187500.02235174447,-187500.02235174447,-187500.02235174447
$SILENCE,34177.96303963221,-11841.328363576933,-5048.655575353572,40254.17301108516,-187500.02235174447,-187500.02235174447,-187500.02235174447,-187500.02235174447
$SILENCE,35104.509902538055,-11761.018545749015,-4586.980293629204,40364.0765385719,-187500.02235174447,-187500.02235174447,-187500.02235174447,-187500.02235174447
$SILENCE,34354.0053789622,-11531.108502281726,-5267.836781482313,40531.66991849779,-187500.02235174447,-187500.02235174447,-187500.02235174447,-187500.02235174447
$SILENCE,33221.062507756054,-11572.995671390972,-5917.356123609081,40444.162838955264,-187500.02235174447,-187500.02235174447,-187500.02235174447,-187500.02235174447
$SILENCE,33950.511688055005,-11837.640325741808,-5199.641609149171,40246.52871448144,-187500.02235174447,-187500.02235174447,-187500.02235174447,-187500.02235174447
$SILENCE,35048.74230012206,-11814.550973719475,-4586.846183162473,40319.44010489465,-187500.02235174447,-187500.02235174447,-187500.02235174447,-187500.02235174447
$SILENCE,34547.61618943408,-11587.77017447593,-5142.108218921211,40500.48923498264,-187500.02235174447,-187500.02235174447,-187500.02235174447,-187500.02235174447
$SILENCE,33293.68332549135,-11541.658525664632,-5909.041274671707,40471.81194684648,-187500.02235174447,-187500.02235174447,-187500.02235174447,-187500.02235174447
$SILENCE,33691.991411684925,-11810.14768006178,-5402.8860214812785,40256.51994425296,-187500.02235174447,-187500.02235174447,-187500.02235174447,-187500.02235174447
$SILENCE,34947.91358088417,-11864.127142921347,-4637.897567498394,40289.91345046919,-187500.02235174447,-187500.02235174447,-187500.02235174447,-187500.02235174447
$SILENCE,34760.56125885979,-11636.005239010483,-4994.787871216282,40485.3571039864,-187500.02235174447,-187500.02235174447,-187500.02235174447,-187500.02235174447
$SILENCE,33431.03479516921,-11518.94915329804,-5866.528256717713,40490.16272904429,-187500.02235174447,-187500.02235174447,-187500.02235174447,-187500.02235174447
$SILENCE,33435.28162661572,-11805.029130581515,-5607.784462903079,40226.81447587186,-187500.02235174447,-187500.02235174447,-187500.02235174447,-187500.02235174447
$SILENCE,34749.87712501015,-11910.104681265913,-4732.870129688994,40211.369420453244,-187500.02235174447,-187500.02235174447,-187500.02235174447,-187500.02235174447
$SILENCE,34862.03817868688,-11708.536649767953,-4893.7356345338385,40400.398123311774,-187500.02235174447,-187500.02235174447,-187500.02235174447,-187500.02235174447
$SILENCE,33617.56010264875,-11546.106522811238,-5769.007595659208,40484.57479293046,-187500.02235174447,-187500.02235174447,-187500.02235174447,-187500.02235174447
$SILENCE,33291.604613257005,-11755.318850912912,-5741.559653468091,40267.941685669626,-187500.02235174447,-187500.02235174447,-187500.02235174447,-187500.02235174447
$SILENCE,34582.149634617526,-11905.58962888594,-4813.962258572848,40193.823301055825,-187500.02235174447,-187500.02235174447,-187500.02235174447,-187500.02235174447
$SILENCE,34964.78914794793,-11750.736743299574,-4796.103214753058,40366.19995429515,-187500.02235174447,-187500.02235174447,-187500.02235174447,-187500.02235174447
$SILENCE,33814.00958466644,-11575.610825492244,-5668.000062465676,40486.02765632006,-187500.02235174447,-187500.02235174447,-187500.02235174447,-187500.02235174447
$SILENCE,33155.10250986845,-11730.910745967716,-5888.656483728467,40304.285622153955,-187500.02235174447,-187500.02235174447,-187500.02235174447,-187500.02235174447
$SILENCE,34316.36504129947,-11944.526367727085,-4987.948237412958,40144.78357372088,-187500.02235174447,-187500.02235174447,-187500.02235174447,-187500.02235174447
$SILENCE,34999.32259313138,-11812.695778929685,-4746.817618229105,40290.1593196582,-187500.02235174447,-187500.02235174447,-187500.02235174447,-187500.02235174447
$SILENCE,34036.02946234101,-11587.837229709296,-5525.3288776074505,40452.991778015115,-187500.02235174447,-187500.02235174447,-187500.02235174447,-187500.02235174447
$SILENCE,33095.088076005944,-11683.279178533458,-5979.985711572852,40324.916282286205,-187500.02235174447,-187500.02235174447,-187500.02235174447,-187500.02235174447
$SILENCE,34050.22282007013,-11948.393219517853,-5168.6173878452055,40124.37643103319,-187500.02235174447,-187500.02235174447,-187500.02235174447,-187500.02235174447
$SILENCE,34980.770645233475,-11870.497390091108,-4715.234603313756,40234.68228992013,-187500.02235174447,-187500.02235174447,-187500.02235174447,-187500.02235174447
$SILENCE,34254.406005669356,-11628.673866829142,-5370.520695509994,40415.46319907465,-187500.02235174447,-187500.02235174447,-187500.02235174447,-187500.02235174447
$SILENCE,33117.59628267244,-11656.188864253625,-6000.124633327083,40346.64217789676,-187500.02235174447,-187500.02235174447,-187500.02235174447,-187500.02235174447
$SILENCE,33804.86772118422,-11934.155158299824,-5332.679192147159,40136.08874512777,-187500.02235174447,-187500.02235174447,-187500.02235174447,-187500.02235174447
$SILENCE,34913.782467100915,-11929.438940219754,-4723.728266206774,40188.07890273081,-187500.02235174447,-187500.02235174447,-187500.02235174447,-187500.02235174447
$SILENCE,34454.18589761089,-11690.610550714797,-5230.174092075121,40369.865640385826,-187500.02235174447,-187500.02235174447,-187500.02235174447,-187500.02235174447
$SILENCE,33195.78268477711,-11636.295811688402,-5995.542525713745,40368.56923920742,-187500.02235174447,-187500.02235174447,-187500.02235174447,-187500.02235174447
$SILENCE,33521.000566601826,-11914.731492368162,-5548.798209285523,40124.756410688926,-187500.02235174447,-187500.02235174447,-187500.02235174447,-187500.02235174447
$SILENCE,34785.0587707828,-11961.334879557477,-4776.165458698923,40151.667911013115,-187500.02235174447,-187500.02235174447,-187500.02235174447,-187500.02235174447
$SILENCE,34630.04942298525,-11737.213937904113,-5092.643808441617,40355.26995125651,-187500.02235174447,-187500.02235174447,-187500.02235174447,-187500.02235174447
$SILENCE,33331.10014570953,-11630.082026729826,-5943.50766462179,40385.444806271174,-187500.02235174447,-187500.02235174447,-187500.02235174447,-187500.02235174447
$SILENCE,33318.40435485892,-11896.961855526193,-5705.618048383957,40140.13441087418,-187500.02235174447,-187500.02235174447,-187500.02235174447,-187500.02235174447
$SILENCE,34613.889111744065,-11995.600103807463,-4843.645375209496,40092.79341611784,-187500.02235174447,-187500.02235174447,-187500.02235174447,-187500.02235174447
$SILENCE,34759.68954082603,-11800.603485179363,-4982.159135599034,40293.73559877105,-187500.02235174447,-187500.02235174447,-187500.02235174447,-187500.02235174447
$SILENCE,33511.76929614178,-11641.123788490748,-5868.025823596218,40383.52255624802,-187500.02235174447,-187500.02235174447,-187500.02235174447,-187500.02235174447
$SILENCE,33123.74301239765,-11856.281680617534,-5898.446547799891,40155.98179769299,-187500.02235174447,-187500.02235174447,-187500.02235174447,-187500.02235174447
$SILENCE,34389.969335790796,-12028.09954024548,-4986.875353679104,40062.462098891985,-187500.02235174447,-187500.02235174447,-187500.02235174447,-187500.02235174447
$SILENCE,34846.59312326826,-11865.602358055397,-4896.39549212402,40235.53165620943,-187500.02235174447,-187500.02235174447,-187500.02235174447,-187500.02235174447
$SILENCE,33744.51801115489,-11642.889576302718,-5716.011609555675,40387.6352772278,-187500.02235174447,-187500.02235174447,-187500.02235174447,-187500.02235174447
$SILENCE,33032.9949299091,-11813.947476619182,-5992.078005323173,40203.702772105076,-187500.02235174447,-187500.02235174447,-187500.02235174447,-187500.02235174447
$SILENCE,34141.46264093669,-12075.90992163538,-5147.807913757314,40020.88785420512,-187500.02235174447,-187500.02235174447,-187500.02235174447,-187500.02235174447
$SILENCE,34857.41136758463,-11937.55262345703,-4853.837770681116,40173.30439964586,-187500.02235174447,-187500.02235174447,-187500.02235174447,-187500.02235174447
$SILENCE,33938.62056000478,-11704.066300876893,-5590.618323161402,40354.86761985631,-187500.02235174447,-187500.02235174447,-187500.02235174447,-187500.02235174447
$SILENCE,32976.66853388173,-11788.555894917954,-6068.185695193493,40236.269263776456,-187500.02235174447,-187500.02235174447,-187500.02235174447,-187500.02235174447
$SILENCE,33887.70328613559,-12047.254985243677,-5298.950409764101,40035.95292996799,-187500.02235174447,-187500.02235174447,-187500.02235174447,-187500.02235174447
$SILENCE,34850.1246988922,-11974.254187852644,-4819.170215030935,40145.96821617702,-187500.02235174447,-187500.02235174447,-187500.02235174447,-187500.02235174447
$SILENCE,34163.54616445854,-11745.528786841487,-5442.046277766976,40325.20685496412,-187500.02235174447,-187500.02235174447,-187500.02235174447,-187500.02235174447
$SILENCE,32992.56062418946,-11757.062286980425,-6100.931000820518,40251.49080175052,-187500.02235174447,-187500.02235174447,-187500.02235174447,-187500.02235174447
$SILENCE,33627.596035909184,-12033.016924025647,-5479.731318918624,40021.781923983326,-187500.02235174447,-187500.02235174447,-187500.02235174447,-187500.02235174447
$SILENCE,34776.94508754553,-12032.636944369906,-4833.5647384601525,40091.49701493943,-187500.02235174447,-187500.02235174447,-187500.02235174447,-187500.02235174447
$SILENCE,34363.90720175591,-11796.28959849949,-5293.317770161363,40297.82596800637,-187500.02235174447,-187500.02235174447,-187500.02235174447,-187500.02235174447
$SILENCE,33094.12695099437,-11733.414141346711,-6072.924265018019,40290.96398245859,-187500.02235174447,-187500.02235174447,-187500.02235174447,-187500.02235174447
$SILENCE,33393.975602862316,-12010.151089447867,-5645.4248005658155,40048.64872081861,-187500.02235174447,-187500.02235174447,-187500.02235174447,-187500.02235174447
$SILENCE,34665.052254802256,-12064.53288370763,-4858.241064338811,40061.23275294695,-187500.02235174447,-187500.02235174447,-187500.02235174447,-187500.02235174447
$SILENCE,34542.47528820935,-11837.953250164182,-5157.754440039926,40262.465508278074,-187500.02235174447,-187500.02235174447,-187500.02235174447,-187500.02235174447
$SILENCE,33245.98470282373,-11720.338370840356,-6014.206232333927,40314.65683158122,-187500.02235174447,-187500.02235174447,-187500.02235174447,-187500.02235174447
$SILENCE,33170.01112342014,-11990.190981649279,-5835.526387158202,40061.38921515813,-187500.02235174447,-187500.02235174447,-187500.02235174447,-187500.02235174447
$SILENCE,34488.09349394959,-12112.276209864165,-4952.833646873671,40008.706153476975,-187500.02235174447,-187500.02235174447,-187500.02235174447,-187500.02235174447
$SILENCE,34673.791786884285,-11910.618771388385,-5044.7663718183485,40194.49385338949,-187500.02235174447,-187500.02235174447,-187500.02235174447,-187500.02235174447
$SILENCE,33428.218475367845,-11745.975821730593,-5926.050952202196,40292.618011548286,-187500.02235174447,-187500.02235174447,-187500.02235174447,-187500.02235174447
$SILENCE,32994.25935676806,-11946.761542172617,-5995.810746647209,40068.02768326136,-187500.02235174447,-187500.02235174447,-187500.02235174447,-187500.02235174447
$SILENCE,34283.08329380552,-12112.767948242183,-5067.498095929396,39986.77909216632,-187500.02235174447,-187500.02235174447,-187500.02235174447,-187500.02235174447
$SILENCE,34786.332820216754,-11951.097780596947,-4936.360411210109,40179.920516004626,-187500.02235174447,-187500.02235174447,-187500.02235174447,-187500.02235174447
$SILENCE,33677.21690859996,-11751.407295633233,-5776.026043418175,40318.1660554607,-187500.02235174447,-187500.02235174447,-187500.02235174447,-187500.02235174447
$SILENCE,32933.686129294176,-11894.838439802938,-6075.293549930281,40146.95169293305,-187500.02235174447,-187500.02235174447,-187500.02235174447,-187500.02235174447
$SILENCE,34038.242285042084,-12127.475396093774,-5219.93699311459,39971.1328710476,-187500.02235174447,-187500.02235174447,-187500.02235174447,-187500.02235174447
$SILENCE,34784.8576050827,-12022.422197153832,-4906.565535851185,40102.56112844481,-187500.02235174447,-187500.02235174447,-187500.02235174447,-187500.02235174447
$SILENCE,33882.0482947884,-11788.779412362506,-5639.054553396053,40270.221563604064,-187500.02235174447,-187500.02235174447,-187500.02235174447,-187500.02235174447
$SILENCE,32888.736771194555,-11855.186445139223,-6138.996021627906,40165.660103042144,-187500.02235174447,-187500.02235174447,-187500.02235174447,-187500.02235174447
$SILENCE,33762.60057241924,-12127.073064693579,-5392.626570776292,39964.3826442221,-187500.02235174447,-187500.02235174447,-187500.02235174447,-187500.02235174447
$SILENCE,34756.716758813476,-12077.72041293626,-4889.086471687135,40066.15013672711,-187500.02235174447,-187500.02235174447,-187500.02235174447,-187500.02235174447
$SILENCE,34112.695945822714,-11823.20109882368,-5482.9499701201885,40257.525772753455,-187500.02235174447,-187500.02235174447,-187500.02235174447,-187500.02235174447
$SILENCE,32917.950501197636,-11827.313819803456,-6171.406051088101,40193.30921093335,-187500.02235174447,-187500.02235174447,-187500.02235174447,-187500.02235174447
$SILENCE,33506.69545015043,-12108.029378417657,-5574.502715409126,39969.30002800227,-187500.02235174447,-187500.02235174447,-187500.02235174447,-187500.02235174447
$SILENCE,34691.44966500398,-12102.73201498175,-4888.594733309118,40037.49520033541,-187500.02235174447,-187500.02235174447,-187500.02235174447,-187500.02235174447
$SILENCE,34326.22216060426,-11863.76951501006,-5329.125264778765,40237.0962783213,-187500.02235174447,-187500.02235174447,-187500.02235174447,-187500.02235174447
$SILENCE,33031.54206651951,-11798.569476433931,-6133.184568069526,40232.067135818856,-187500.02235174447,-187500.02235174447,-187500.02235174447,-187500.02235174447
$SILENCE,33269.20816531279,-12073.831209401038,-5753.271967562672,39983.78395840931,-187500.02235174447,-187500.02235174447,-187500.02235174447,-187500.02235174447
$SILENCE,34562.703616941406,-12133.666829307895,-4944.854074103127,39988.231955555915,-187500.02235174447,-187500.02235174447,-187500.02235174447,-187500.02235174447
$SILENCE,34482.863185747054,-11918.084254036457,-5212.404455233152,40182.5356701059,-187500.02235174447,-187500.02235174447,-187500.02235174447,-187500.02235174447
$SILENCE,33178.88476596889,-11792.936836831193,-6074.466535385434,40243.10889757978,-187500.02235174447,-187500.02235174447,-187500.02235174447,-187500.02235174447
$SILENCE,33048.37293009435,-12061.023659828146,-5934.902243006497,39996.85972891566,-187500.02235174447,-187500.02235174447,-187500.02235174447,-187500.02235174447
$SILENCE,34376.17830946187,-12181.164286275422,-5048.029726508824,39951.08335627119,-187500.02235174447,-187500.02235174447,-187500.02235174447,-187500.02235174447
$SILENCE,34621.26518741431,-11979.216275121722,-5093.224953797455,40149.633902267684,-187500.02235174447,-187500.02235174447,-187500.02235174447,-187500.02235174447
$SILENCE,33394.89202438498,-11803.777432892017,-5957.611615373089,40257.90575240919,-187500.02235174447,-187500.02235174447,-187500.02235174447,-187500.02235174447
$SILENCE,32915.60356802983,-11992.023824694614,-6045.5210263158115,40058.63995059013,-187500.02235174447,-187500.02235174447,-187500.02235174447,-187500.02235174447
$SILENCE,34187.57428974799,-12163.796980833647,-5123.019829156378,39961.34280697618,-187500.02235174447,-187500.02235174447,-187500.02235174447,-187500.02235174447
$SILENCE,34716.52832228283,-12027.786615823105,-4985.154269356045,40113.55818671682,-187500.02235174447,-187500.02235174447,-187500.02235174447,-187500.02235174447
$SILENCE,33601.533901874296,-11831.180671594224,-5840.913157571931,40223.37230722574,-187500.02235174447,-187500.02235174447,-187500.02235174447,-187500.02235174447
$SILENCE,32826.017776252964,-11960.954899901737,-6161.213655616481,40055.66716857757,-187500.02235174447,-187500.02235174447,-187500.02235174447,-187500.02235174447
$SILENCE,33919.263949306485,-12203.583085964096,-5305.566526122871,39886.08448339516,-187500.02235174447,-187500.02235174447,-187500.02235174447,-187500.02235174447
$SILENCE,34710.40394430208,-12097.457003290298,-4969.753917426338,40025.693479263005,-187500.02235174447,-187500.02235174447,-187500.02235174447,-187500.02235174447
$SILENCE,33843.625646069726,-11860.215587641667,-5685.277960929628,40215.16921701065,-187500.02235174447,-187500.02235174447,-187500.02235174447,-187500.02235174447
$SILENCE,32810.55036908989,-11917.816033102994,-6214.366103931201,40105.98094534647,-187500.02235174447,-187500.02235174447,-187500.02235174447,-187500.02235174447
$SILENCE,33672.00895214188,-12185.522876444207,-5458.385402963806,39899.00379169033,-187500.02235174447,-187500.02235174447,-187500.02235174447,-187500.02235174447
$SILENCE,34688.00749635786,-12141.512291611707,-4949.056202060724,39980.54295546329,-187500.02235174447,-187500.02235174447,-187500.02235174447,-187500.02235174447
$SILENCE,34074.65327675978,-11893.117355479879,-5539.09755219192,40180.09932996027,-187500.02235174447,-187500.02235174447,-187500.02235174447,-187500.02235174447
$SILENCE,32871.16830005268,-11878.946349495214,-6216.288353954358,40148.583370278284,-187500.02235174447,-187500.02235174447,-187500.02235174447,-187500.02235174447
$SILENCE,33426.07270790014,-12168.759068102727,-5631.879643425899,39902.53536731427,-187500.02235174447,-187500.02235174447,-187500.02235174447,-187500.02235174447
$SILENCE,34714.606072259674,-12161.78532383267,-4875.340148847121,39960.1805162645,-187500.02235174447,-187500.02235174447,-187500.02235174447,-187500.02235174447
$SILENCE,34326.691547237824,-11908.718873109685,-5361.311776794408,40180.79223403838,-187500.02235174447,-187500.02235174447,-187500.02235174447,-187500.02235174447
$SILENCE,33032.391432808814,-11874.453648859699,-6162.957091683995,40164.676626286106,-187500.02235174447,-187500.02235174447,-187500.02235174447,-187500.02235174447
$SILENCE,33195.67092605483,-12146.653192836427,-5841.494302927769,39910.58199531818,-187500.02235174447,-187500.02235174447,-187500.02235174447,-187500.02235174447
$SILENCE,34473.27428737572,-12250.767618509248,-5036.093894969689,39860.26821854928,-187500.02235174447,-187500.02235174447,-187500.02235174447,-187500.02235174447
$SILENCE,34466.16643263894,-12003.065586455536,-5260.348947089786,40102.248204022435,-187500.02235174447,-187500.02235174447,-187500.02235174447,-187500.02235174447
$SILENCE,33171.84396646547,-11868.30691913449,-6098.248791485881,40174.71255954654,-187500.02235174447,-187500.02235174447,-187500.02235174447,-187500.02235174447
$SILENCE,33000.76371440455,-12096.451174789809,-5981.99736857383,39947.01533878033,-187500.02235174447,-187500.02235174447,-187500.02235174447,-187500.02235174447
$SILENCE,34267.25825873116,-12235.94841193538,-5127.557233280806,39866.2584860633,-187500.02235174447,-187500.02235174447,-187500.02235174447,-187500.02235174447
$SILENCE,34549.38197724605,-12025.640848355395,-5161.911864508613,40071.08987225174,-187500.02235174447,-187500.02235174447,-187500.02235174447,-187500.02235174447
$SILENCE,33315.029241446166,-11849.419695069755,-6037.139122145071,40190.962277765546,-187500.02235174447,-187500.02235174447,-187500.02235174447,-187500.02235174447
$SILENCE,32815.959491248075,-12044.57277590904,-6141.164140840071,39984.00747585386,-187500.02235174447,-187500.02235174447,-187500.02235174447,-187500.02235174447
$SILENCE,34061.4880992756,-12252.086371432111,-5229.950574630568,39850.76872715577,-187500.02235174447,-187500.02235174447,-187500.02235174447,-187500.02235174447
$SILENCE,34631.59169335267,-12104.006064415702,-5058.71386035846,40012.21537735646,-187500.02235174447,-187500.02235174447,-187500.02235174447,-187500.02235174447
$SILENCE,33588.12285520111,-11870.922073235759,-5867.198809051372,40169.72812053301,-187500.02235174447,-187500.02235174447,-187500.02235174447,-187500.02235174447
$SILENCE,32775.07815063932,-11992.314397372533,-6216.221298720992,40020.597281527196,-187500.02235174447,-187500.02235174447,-187500.02235174447,-187500.02235174447
$SILENCE,33835.26609364344,-12255.372077867041,-5386.815117217912,39836.7541833823,-187500.02235174447,-187500.02235174447,-187500.02235174447,-187500.02235174447
$SILENCE,34670.75194963836,-12153.649288850938,-5019.710066283949,39970.2835047583,-187500.02235174447,-187500.02235174447,-187500.02235174447,-187500.02235174447
$SILENCE,33839.71409079005,-11912.630428389362,-5714.491690932714,40160.966236706525,-187500.02235174447,-187500.02235174447,-187500.02235174447,-187500.02235174447
$SILENCE,32779.48144429701,-11972.466048296219,-6267.138572590181,40059.64577909062,-187500.02235174447,-187500.02235174447,-187500.02235174447,-187500.02235174447
$SILENCE,33580.21033766393,-12248.018353941245,-5553.425020387772,39833.244959502816,-187500.02235174447,-187500.02235174447,-187500.02235174447,-187500.02235174447
$SILENCE,34637.224332955404,-12191.580199191594,-4985.646007734062,39932.48670488438,-187500.02235174447,-187500.02235174447,-187500.02235174447,-187500.02235174447
$SILENCE,34065.93609642221,-11953.757638187128,-5560.532875124559,40121.11307634271,-187500.02235174447,-187500.02235174447,-187500.02235174447,-187500.02235174447
$SILENCE,32843.07215727236,-11929.774216386584,-6276.079270372305,40084.45621543601,-187500.02235174447,-187500.02235174447,-187500.02235174447,-187500.02235174447
$SILENCE,33360.805614090634,-12206.265295298732,-5709.283734474628,39856.40136675851,-187500.02235174447,-187500.02235174447,-187500.02235174447,-187500.02235174447
$SILENCE,34573.03012287976,-12221.911516417447,-5008.042455678279,39895.06988466619,-187500.02235174447,-187500.02235174447,-187500.02235174447,-187500.02235174447
$SILENCE,34264.44193892979,-11998.237609653188,-5423.919013013722,40085.86437533669,-187500.02235174447,-187500.02235174447,-187500.02235174447,-187500.02235174447
$SILENCE,32954.09327198187,-11926.421454718287,-6252.4758282275,40098.49311095395,-187500.02235174447,-187500.02235174447,-187500.02235174447,-187500.02235174447
$SILENCE,33124.234750775664,-12197.928094616902,-5900.637018756512,39863.5092214953,-187500.02235174447,-187500.02235174447,-187500.02235174447,-187500.02235174447
$SILENCE,34448.44149928588,-12256.400258111986,-5054.422325423041,39860.73760518284,-187500.02235174447,-187500.02235174447,-187500.02235174447,-187500.02235174447
$SILENCE,34432.392946766966,-12044.170444508845,-5286.992226480512,40045.54182833932,-187500.02235174447,-187500.02235174447,-187500.02235174447,-187500.02235174447
$SILENCE,33181.38816134789,-11937.284402523566,-6134.6821349480315,40090.446482950036,-187500.02235174447,-187500.02235174447,-187500.02235174447,-187500.02235174447
$SILENCE,33002.70831617216,-12154.006916762224,-6029.852453452641,39892.14180614255,-187500.02235174447,-187500.02235174447,-187500.02235174447,-187500.02235174447
$SILENCE,34274.54492742359,-12291.559552140183,-5145.885663734158,39824.7512966098,-187500.02235174447,-187500.02235174447,-187500.02235174447,-187500.02235174447
$SILENCE,34599.18166389247,-12096.607637000996,-5148.523169579884,40032.71192702198,-187500.02235174447,-187500.02235174447,-187500.02235174447,-187500.02235174447
$SILENCE,33362.929029813895,-11906.2601812196,-6040.849511724653,40141.050832396846,-187500.02235174447,-187500.02235174447,-187500.02235174447,-187500.02235174447
$SILENCE,32833.416203667664,-12093.67955847735,-6187.678121051565,39925.08827746967,-187500.02235174447,-187500.02235174447,-187500.02235174447,-187500.02235174447
$SILENCE,33993.024706009,-12310.312665738185,-5327.0465525444215,39783.06529320065,-187500.02235174447,-187500.02235174447,-187500.02235174447,-187500.02235174447
$SILENCE,34625.08733571617,-12161.226530221287,-5103.663218458083,39945.98715853538,-187500.02235174447,-187500.02235174447,-187500.02235174447,-187500.02235174447
$SILENCE,33516.61962468858,-11936.591498445452,-5957.835132817642,40100.37065748819,-187500.02235174447,-187500.02235174447,-187500.02235174447,-187500.02235174447
$SILENCE,32680.351457637724,-12057.134456292923,-6318.391122626201,39954.033786539294,-187500.02235174447,-187500.02235174447,-187500.02235174447,-187500.02235174447
$SILENCE,33733.520952882885,-12309.865630849079,-5473.539885704504,39794.66584857296,-187500.02235174447,-187500.02235174447,-187500.02235174447,-187500.02235174447
$SILENCE,34602.57912904968,-12207.338179032586,-5073.980101821435,39938.18639972048,-187500.02235174447,-187500.02235174447,-187500.02235174447,-187500.02235174447
$SILENCE,33783.633563951684,-11978.746888488162,-5772.986206172252,40096.63791616415,-187500.02235174447,-187500.02235174447,-187500.02235174447,-187500.02235174447
$SILENCE,32703.351402682234,-12022.243383198189,-6354.220968988057,39993.328153291724,-187500.02235174447,-187500.02235174447,-187500.02235174447,-187500.02235174447
$SILENCE,33503.923833837966,-12289.927874794947,-5638.272242340117,39782.46179610035,-187500.02235174447,-187500.02235174447,-187500.02235174447,-187500.02235174447
$SILENCE,34577.23225083736,-12256.37790636753,-5058.5573981472735,39863.308055795205,-187500.02235174447,-187500.02235174447,-187500.02235174447,-187500.02235174447
$SILENCE,34030.59798843837,-12011.268676670632,-5599.603724432436,40073.459157164,-187500.02235174447,-187500.02235174447,-187500.02235174447,-187500.02235174447
$SILENCE,32796.13349391621,-11988.492249070674,-6347.157817740181,40039.21628465847,-187500.02235174447,-187500.02235174447,-187500.02235174447,-187500.02235174447
$SILENCE,33269.40933101289,-12274.683985076426,-5816.013314248719,39796.476339873836,-187500.02235174447,-187500.02235174447,-187500.02235174447,-187500.02235174447
$SILENCE,34499.157607454974,-12289.458488161385,-5074.5835989217285,39839.01170957228,-187500.02235174447,-187500.02235174447,-187500.02235174447,-187500.02235174447
$SILENCE,34228.03094721209,-12063.05766857358,-5467.348452490384,40028.75566825338,-187500.02235174447,-187500.02235174447,-187500.02235174447,-187500.02235174447
$SILENCE,32907.042849903446,-11996.270656141121,-6324.515500606954,40015.5457872803,-187500.02235174447,-187500.02235174447,-187500.02235174447,-187500.02235174447
$SILENCE,33023.786011193515,-12252.309888876664,-6009.802938676231,39781.14304317749,-187500.02235174447,-187500.02235174447,-187500.02235174447,-187500.02235174447
$SILENCE,34344.55059105761,-12324.617782189582,-5160.168428441099,39786.70862754687,-187500.02235174447,-187500.02235174447,-187500.02235174447,-187500.02235174447
$SILENCE,34391.73512360277,-12119.384064600954,-5342.692773663137,39986.421464255036,-187500.02235174447,-187500.02235174447,-187500.02235174447,-187500.02235174447
$SILENCE,33120.27849200708,-11964.41942029231,-6203.190231703548,40071.82747981876,-187500.02235174447,-187500.02235174447,-187500.02235174447,-187500.02235174447
$SILENCE,32863.50165170451,-12198.218667294821,-6146.305042064791,39841.470401462364,-187500.02235174447,-187500.02235174447,-187500.02235174447,-187500.02235174447
$SILENCE,34160.26045802361,-12361.229939607376,-5251.9893946635,39771.91177271745,-187500.02235174447,-187500.02235174447,-187500.02235174447,-187500.02235174447
$SILENCE,34512.993337272805,-12167.216797735311,-5227.9612693740455,39959.46526044193,-187500.02235174447,-187500.02235174447,-187500.02235174447,-187500.02235174447
$SILENCE,33375.24484100877,-11988.55930430404,-6057.702727043954,40065.971322771475,-187500.02235174447,-187500.02235174447,-187500.02235174447,-187500.02235174447
$SILENCE,32820.854523283786,-12163.729925600283,-6232.023982050894,39874.12630011157,-187500.02235174447,-187500.02235174447,-187500.02235174447,-187500.02235174447
$SILENCE,33959.38533060376,-12370.818837978703,-5384.356425327829,39740.57462699111,-187500.02235174447,-187500.02235174447,-187500.02235174447,-187500.02235174447
$SILENCE,34611.89980648754,-12229.578164765617,-5147.271471890387,39903.69765802594,-187500.02235174447,-187500.02235174447,-187500.02235174447,-187500.02235174447
$SILENCE,33530.38829927305,-12010.642827825885,-5982.243237762837,40055.264837177376,-187500.02235174447,-187500.02235174447,-187500.02235174447,-187500.02235174447
$SILENCE,32716.024841788396,-12117.662980277895,-6335.356096667779,39914.73941978686,-187500.02235174447,-187500.02235174447,-187500.02235174447,-187500.02235174447
$SILENCE,33638.86131511466,-12361.945195429946,-5574.905046809322,39732.81857166512,-187500.02235174447,-187500.02235174447,-187500.02235174447,-187500.02235174447
$SILENCE,34509.32765118214,-12269.386621640519,-5156.569797583795,39855.93198012495,-187500.02235174447,-187500.02235174447,-187500.02235174447,-187500.02235174447
$SILENCE,33737.074880251275,-12043.119912519445,-5837.850968581554,40027.70513626398,-187500.02235174447,-187500.02235174447,-187500.02235174447,-187500.02235174447
$SILENCE,32645.79566070982,-12099.87099169147,-6430.351010602833,39931.391469406066,-187500.02235174447,-187500.02235174447,-187500.02235174447,-187500.02235174447
$SILENCE,33414.85213218357,-12365.1191431426,-5729.020324828663,39725.10721982804,-187500.02235174447,-187500.02235174447,-187500.02235174447,-187500.02235174447
$SILENCE,34516.92724429694,-12326.785901401747,-5133.614556028194,39808.81450281316,-187500.02235174447,-187500.02235174447,-187500.02235174447,-187500.02235174447
$SILENCE,33982.49703437055,-12089.499782264207,-5675.4208416248375,39998.11142660516,-187500.02235174447,-187500.02235174447,-187500.02235174447,-187500.02235174447
$SILENCE,32759.18606033159,-12035.117988004446,-6397.069263108881,39983.31457177574,-187500.02235174447,-187500.02235174447,-187500.02235174447,-187500.02235174447
$SILENCE,33197.74963828917,-12316.30293325221,-5883.582637737112,39742.630987480996,-187500.02235174447,-187500.02235174447,-187500.02235174447,-187500.02235174447
$SILENCE,34413.9751093358,-12364.87327395359,-5155.340451638753,39763.35105459107,-187500.02235174447,-187500.02235174447,-187500.02235174447,-187500.02235174447
$SILENCE,34186.23318508067,-12136.371390386987,-5522.289040361529,39974.798557138274,-187500.02235174447,-187500.02235174447,-187500.02235174447,-187500.02235174447
$SILENCE,32911.20027437214,-12019.583525608006,-6336.406628657178,40024.240615873416,-187500.02235174447,-187500.02235174447,-187500.02235174447,-187500.02235174447
$SILENCE,32974.38865594729,-12298.19802024341,-6063.849456769163,39762.50168830177,-187500.02235174447,-187500.02235174447,-187500.02235174447,-187500.02235174447
$SILENCE,34274.7907966126,-12392.857658011635,-5223.401513505163,39729.421106507914,-187500.02235174447,-187500.02235174447,-187500.02235174447,-187500.02235174447
$SILENCE,34345.154088157906,-12194.620036437516,-5386.144564884254,39926.4740856259,-187500.02235174447,-187500.02235174447,-187500.02235174447,-187500.02235174447
$SILENCE,33075.038561229536,-12044.997459053691,-6258.622557952709,40006.135702864616,-187500.02235174447,-187500.02235174447,-187500.02235174447,-187500.02235174447
não,32787.25985136746,-12258.478970346328,-6221.9656970460055,39782.81942401164,-187500.02235174447,-187500.02235174447,-187500.02235174447,-187500.02235174447
não,34078.78834948401,-12412.214268709931,-5326.219537999576,39703.403675961934,-187500.02235174447,-187500.02235174447,-187500.02235174447,-187500.02235174447
não,34452.21894409883,-12237.110702647054,-5289.3615113927735,39892.9688206874,-187500.02235174447,-187500.02235174447,-187500.02235174447,-187500.02235174447
não,33294.53269178065,-12042.069380530045,-6143.846350174707,40023.815932728765,-187500.02235174447,-187500.02235174447,-187500.02235174447,-187500.02235174447
não,32678.004524469918,-12207.673455199416,-6346.375506684245,39822.8513983311,-187500.02235174447,-187500.02235174447,-187500.02235174447,-187500.02235174447
não,33856.32143692034,-12421.199669980964,-5463.839228610901,39676.291009937646,-187500.02235174447,-187500.02235174447,-187500.02235174447,-187500.02235174447
não,34520.14589549851,-12276.62858684404,-5221.792187904381,39843.75027939681,-187500.02235174447,-187500.02235174447,-187500.02235174447,-187500.02235174447
não,33544.51460176881,-12076.088735591024,-5982.690272651944,39995.45156901498,-187500.02235174447,-187500.02235174447,-187500.02235174447,-187500.02235174447
não,32699.261033446914,-12171.55303615964,-6376.259789020991,39863.62098021758,-187500.02235174447,-187500.02235174447,-187500.02235174447,-187500.02235174447
não,33629.80885861026,-12404.50291687285,-5611.003114104643,39687.28806820966,-187500.02235174447,-187500.02235174447,-187500.02235174447,-187500.02235174447
não,34573.387750791044,-12347.237747578352,-5148.59022481325,39790.55312759318,-187500.02235174447,-187500.02235174447,-187500.02235174447,-187500.02235174447
não,33722.14391495513,-12097.322892823566,-5890.645788984989,39980.20767929646,-187500.02235174447,-187500.02235174447,-187500.02235174447,-187500.02235174447
não,32582.942555301495,-12133.532718841163,-6500.691950403685,39897.26035562281,-187500.02235174447,-187500.02235174447,-187500.02235174447,-187500.02235174447
não,33325.9145409959,-12395.629274324094,-5798.556601829124,39685.3658181865,-187500.02235174447,-187500.02235174447,-187500.02235174447,-187500.02235174447
não,34443.94879865036,-12374.059840924721,-5191.617332889716,39753.94097017538,-187500.02235174447,-187500.02235174447,-187500.02235174447,-187500.02235174447
não,33948.835307220856,-12147.435503892364,-5716.928031078342,39939.46044915443,-187500.02235174447,-187500.02235174447,-187500.02235174447,-187500.02235174447
não,32690.633260087165,-12103.670788248872,-6473.668691357218,39916.482855854374,-187500.02235174447,-187500.02235174447,-187500.02235174447,-187500.02235174447
não,33091.310631193,-12376.719698514904,-5976.744708626832,39680.5154896397,-187500.02235174447,-187500.02235174447,-187500.02235174447,-187500.02235174447
não,34352.485460339245,-12410.962571020435,-5217.701818669059,39716.3229842571,-187500.02235174447,-187500.02235174447,-187500.02235174447,-187500.02235174447
não,34166.586001704454,-12172.357698960031,-5549.379354641361,39931.19030370597,-187500.02235174447,-187500.02235174447,-187500.02235174447,-187500.02235174447
não,32869.53662270744,-12071.886607633425,-6392.7777281734625,39961.47691744291,-187500.02235174447,-187500.02235174447,-187500.02235174447,-187500.02235174447
não,32872.77762565346,-12347.036581878256,-6166.8462952192185,39686.72927459828,-187500.02235174447,-187500.02235174447,-187500.02235174447,-187500.02235174447
não,34191.53054851658,-12438.857548100657,-5298.212802197076,39660.197753929824,-187500.02235174447,-187500.02235174447,-187500.02235174447,-187500.02235174447
não,34315.69448896581,-12218.245830326776,-5429.305783427451,39883.625791505074,-187500.02235174447,-187500.02235174447,-187500.02235174447,-187500.02235174447
não,33037.24176135561,-12083.82243917256,-6312.646724301187,39970.01528382484,-187500.02235174447,-187500.02235174447,-187500.02235174447,-187500.02235174447
não,32696.914100279108,-12318.67221816447,-6319.240488915502,39730.44928675285,-187500.02235174447,-187500.02235174447,-187500.02235174447,-187500.02235174447
não,33994.79049382097,-12467.37837402563,-5406.26113489403,39639.76825949768,-187500.02235174447,-187500.02235174447,-187500.02235174447,-187500.02235174447
não,34417.26081577073,-12282.976482269345,-5334.824959614869,39829.109886778584,-187500.02235174447,-187500.02235174447,-187500.02235174447,-187500.02235174447
não,33261.22859254225,-12088.650415974906,-6188.885115252151,39956.33601621819,-187500.02235174447,-187500.02235174447,-187500.02235174447,-187500.02235174447
não,32593.380819962123,-12257.137865679011,-6424.204280877624,39766.457947070354,-187500.02235174447,-187500.02235174447,-187500.02235174447,-187500.02235174447
não,33781.15252031714,-12461.008126855866,-5522.601964783903,39631.07343090456,-187500.02235174447,-187500.02235174447,-187500.02235174447,-187500.02235174447
não,34471.888479219495,-12339.593450974638,-5272.083612928822,39778.81846175414,-187500.02235174447,-187500.02235174447,-187500.02235174447,-187500.02235174447
não,33493.664383132986,-12119.384064600954,-6054.215854908926,39938.96871077642,-187500.02235174447,-187500.02235174447,-187500.02235174447,-187500.02235174447
não,32554.712302054442,-12212.590838979584,-6506.9504388511705,39810.60264236959,-187500.02235174447,-187500.02235174447,-187500.02235174447,-187500.02235174447
não,33538.3678720436,-12466.551359480782,-5690.3294551765275,39623.36207906748,-187500.02235174447,-187500.02235174447,-187500.02235174447,-187500.02235174447
não,34565.51993674278,-12376.026794436788,-5178.496858894451,39748.75536546175,-187500.02235174447,-187500.02235174447,-187500.02235174447,-187500.02235174447
não,33765.796871876344,-12133.644477563439,-5885.102556360073,39938.83460030968,-187500.02235174447,-187500.02235174447,-187500.02235174447,-187500.02235174447
não,32648.097890388715,-12177.073917040101,-6493.114709033336,39849.6064364441,-187500.02235174447,-187500.02235174447,-187500.02235174447,-187500.02235174447
não,33265.78834841113,-12437.874071344624,-5896.88192568802,39627.87713144745,-187500.02235174447,-187500.02235174447,-187500.02235174447,-187500.02235174447
não,34410.73410638978,-12431.615582897137,-5248.435467295107,39691.91487931191,-187500.02235174447,-187500.02235174447,-187500.02235174447,-187500.02235174447
não,33913.89953063721,-12183.019481065212,-5766.1689241133845,39903.56354755921,-187500.02235174447,-187500.02235174447,-187500.02235174447,-187500.02235174447
não,32635.804430938297,-12139.1653584439,-6530.0174391290475,39885.74920722833,-187500.02235174447,-187500.02235174447,-187500.02235174447,-187500.02235174447
não,32979.820129849926,-12425.491204916383,-6078.378090665114,39639.41063158639,-187500.02235174447,-187500.02235174447,-187500.02235174447,-187500.02235174447
não,34264.956029052264,-12455.599004697682,-5292.535459105427,39675.41929190389,-187500.02235174447,-187500.02235174447,-187500.02235174447,-187500.02235174447
não,34124.56472212848,-12220.41394953894,-5600.274276766095,39877.143785613036,-187500.02235174447,-187500.02235174447,-187500.02235174447,-187500.02235174447
não,32813.992537736005,-12118.199422144822,-6457.441324882666,39900.03197193527,-187500.02235174447,-187500.02235174447,-187500.02235174447,-187500.02235174447
não,32781.269583853435,-12393.662320812025,-6245.055049068338,39642.741041510235,-187500.02235174447,-187500.02235174447,-187500.02235174447,-187500.02235174447
não,34115.624024346354,-12498.849630218701,-5374.991044401056,39612.63324172893,-187500.02235174447,-187500.02235174447,-187500.02235174447,-187500.02235174447
não,34267.21355524225,-12290.017281772767,-5491.711853946669,39816.30233720569,-187500.02235174447,-187500.02235174447,-187500.02235174447,-187500.02235174447
não,33009.90557788677,-12133.622125818983,-6367.54260868342,39906.80455050523,-187500.02235174447,-187500.02235174447,-187500.02235174447,-187500.02235174447
não,32642.46525078598,-12336.754779428815,-6373.4658209640775,39691.91487931191,-187500.02235174447,-187500.02235174447,-187500.02235174447,-187500.02235174447
não,33928.271702321974,-12494.982778427933,-5464.286263500007,39603.80430266909,-187500.02235174447,-187500.02235174447,-187500.02235174447,-187500.02235174447
não,34369.94217275884,-12332.73146542686,-5392.9618469431225,39783.91465948995,-187500.02235174447,-187500.02235174447,-187500.02235174447,-187500.02235174447
não,33245.87294410145,-12134.002105474723,-6221.585717390266,39925.602367592146,-187500.02235174447,-187500.02235174447,-187500.02235174447,-187500.02235174447
não,32538.90961872454,-12299.71793886637,-6489.694892131673,39732.7291646873,-187500.02235174447,-187500.02235174447,-187500.02235174447,-187500.02235174447
não,33697.62405128766,-12516.28399089384,-5610.041989093064,39590.437959484814,-187500.02235174447,-187500.02235174447,-187500.02235174447,-187500.02235174447
não,34421.15001930595,-12389.706062043437,-5320.788064096936,39739.74761244626,-187500.02235174447,-187500.02235174447,-187500.02235174447,-187500.02235174447
não,33471.491452633316,-12159.505445898229,-6086.91645704704,39891.09127415315,-187500.02235174447,-187500.02235174447,-187500.02235174447,-187500.02235174447
não,32508.19832184295,-12234.607307268061,-6556.772477242051,39766.413243581446,-187500.02235174447,-187500.02235174447,-187500.02235174447,-187500.02235174447
não,33442.21066739687,-12500.369548841662,-5763.8219909455765,39576.75869187817,-187500.02235174447,-187500.02235174447,-187500.02235174447,-187500.02235174447
não,34403.08980978606,-12434.99069630989,-5290.255581170986,39686.90808855392,-187500.02235174447,-187500.02235174447,-187500.02235174447,-187500.02235174447
não,33716.466571863486,-12190.820239880115,-5920.351257366092,39886.442111306445,-187500.02235174447,-187500.02235174447,-187500.02235174447,-187500.02235174447
não,32534.036938433284,-12212.344969790574,-6593.451689893209,39813.28485170422,-187500.02235174447,-187500.02235174447,-187500.02235174447,-187500.02235174447
não,33160.75750121564,-12506.628037289149,-5977.571723171678,39566.588648151,-187500.02235174447,-187500.02235174447,-187500.02235174447,-187500.02235174447
não,34330.26782635067,-12484.320996322751,-5318.57524139586,39640.66232927589,-187500.02235174447,-187500.02235174447,-187500.02235174447,-187500.02235174447
não,33922.59435923032,-12242.251603871777,-5783.402119088426,39839.235227016834,-187500.02235174447,-187500.02235174447,-187500.02235174447,-187500.02235174447
não,32705.474818405488,-12207.069958099122,-6523.334267536911,39814.93888079392,-187500.02235174447,-187500.02235174447,-187500.02235174447,-187500.02235174447
não,32970.25358322306,-12455.978984353422,-6131.105855835182,39588.31454376156,-187500.02235174447,-187500.02235174447,-187500.02235174447,-187500.02235174447
não,34261.84913657298,-12514.674665293058,-5318.932869307145,39605.90536664789,-187500.02235174447,-187500.02235174447,-187500.02235174447,-187500.02235174447
não,34110.12549521035,-12274.885150776525,-5637.691096984279,39827.61231990008,-187500.02235174447,-187500.02235174447,-187500.02235174447,-187500.02235174447
não,32741.036443833884,-12162.50057965524,-6530.7773984405285,39860.7599569273,-187500.02235174447,-187500.02235174447,-187500.02235174447,-187500.02235174447
não,32679.792664026343,-12426.74290260588,-6326.9741924970385,39611.71682020627,-187500.02235174447,-187500.02235174447,-187500.02235174447,-187500.02235174447
não,34019.55622667745,-12529.315057911284,-5433.060876495943,39586.19112803831,-187500.02235174447,-187500.02235174447,-187500.02235174447,-187500.02235174447
não,34222.64417679837,-12321.242668776831,-5517.572822281459,39783.735845534306,-187500.02235174447,-187500.02235174447,-187500.02235174447,-187500.02235174447
não,32968.89012681128,-12171.441277437363,-6408.312190569901,39861.00582611631,-187500.02235174447,-187500.02235174447,-187500.02235174447,-187500.02235174447
não,32557.77449104482,-12385.123954430099,-6456.435496382177,39641.5563990541,-187500.02235174447,-187500.02235174447,-187500.02235174447,-187500.02235174447
não,33842.39630012468,-12543.955450529511,-5530.805054999001,39557.7373573467,-187500.02235174447,-187500.02235174447,-187500.02235174447,-187500.02235174447
não,34303.73630568222,-12396.500992357851,-5444.661431868248,39713.03727782217,-187500.02235174447,-187500.02235174447,-187500.02235174447,-187500.02235174447
não,33184.919736971824,-12203.761899919737,-6296.419357826634,39840.39751772851,-187500.02235174447,-187500.02235174447,-187500.02235174447,-187500.02235174447
não,32474.96127783791,-12329.132834569555,-6562.494523822609,39683.354161185525,-187500.02235174447,-187500.02235174447,-187500.02235174447,-187500.02235174447
não,33610.72046884542,-12550.146883743631,-5677.588960837003,39551.434165410305,-187500.02235174447,-187500.02235174447,-187500.02235174447,-187500.02235174447
não,34361.42615812137,-12443.685524903003,-5372.44294553315,39693.077170023585,-187500.02235174447,-187500.02235174447,-187500.02235174447,-187500.02235174447
não,33451.03960645671,-12214.423682024919,-6112.6656666595545,39849.82995388865,-187500.02235174447,-187500.02235174447,-187500.02235174447,-187500.02235174447
não,32450.150841492516,-12283.222351458353,-6612.584783146952,39723.85552213854,-187500.02235174447,-187500.02235174447,-187500.02235174447,-187500.02235174447
não,33357.40814893343,-12544.96127903,-5837.292174970171,39525.997880220166,-187500.02235174447,-187500.02235174447,-187500.02235174447,-187500.02235174447
não,34349.5573818156,-12476.207313085475,-5352.259320290008,39635.36496583998,-187500.02235174447,-187500.02235174447,-187500.02235174447,-187500.02235174447
não,33694.53951055283,-12232.215670611344,-5963.490124164835,39841.44804971791,-187500.02235174447,-187500.02235174447,-187500.02235174447,-187500.02235174447
não,32491.747437923845,-12260.244758158298,-6651.253301054633,39763.84279296909,-187500.02235174447,-187500.02235174447,-187500.02235174447,-187500.02235174447
não,33120.50200945163,-12516.775729271858,-6010.138214843061,39547.29909268607,-187500.02235174447,-187500.02235174447,-187500.02235174447,-187500.02235174447
não,34295.577918956034,-12514.317037381774,-5336.836616615846,39604.65366895839,-187500.02235174447,-187500.02235174447,-187500.02235174447,-187500.02235174447
não,33876.817986585855,-12303.160107512487,-5826.585689376079,39781.81359551115,-187500.02235174447,-187500.02235174447,-187500.02235174447,-187500.02235174447
não,32603.126180544637,-12225.577202508117,-6616.250469237622,39797.5939270966,-187500.02235174447,-187500.02235174447,-187500.02235174447,-187500.02235174447
não,32863.278134259956,-12495.161592383576,-6202.877307281174,39549.0872322425,-187500.02235174447,-187500.02235174447,-187500.02235174447,-187500.02235174447
não,34139.339225213436,-12560.093410026242,-5415.537108842982,39547.92494153082,-187500.02235174447,-187500.02235174447,-187500.02235174447,-187500.02235174447
não,34056.66012247326,-12323.947229855923,-5689.949475520787,39763.2839993577,-187500.02235174447,-187500.02235174447,-187500.02235174447,-187500.02235174447
não,32770.54074651489,-12194.038891081678,-6543.227320102134,39837.26827350477,-187500.02235174447,-187500.02235174447,-187500.02235174447,-187500.02235174447
não,32666.247506886426,-12461.455161744972,-6376.237437276535,39585.83350012702,-187500.02235174447,-187500.02235174447,-187500.02235174447,-187500.02235174447
não,34045.998340368074,-12583.473334726494,-5432.211510206641,39541.44293563878,-187500.02235174447,-187500.02235174447,-187500.02235174447,-187500.02235174447
não,34278.99292457019,-12358.100695383633,-5523.831310728945,39762.88166795751,-187500.02235174447,-187500.02235174447,-187500.02235174447,-187500.02235174447
não,32929.1710769142,-12224.034932140701,-6487.973807808615,39825.466552432365,-187500.02235174447,-187500.02235174447,-187500.02235174447,-187500.02235174447
não,32460.678513130966,-12404.055881983744,-6555.587834785919,39632.83921871653,-187500.02235174447,-187500.02235174447,-187500.02235174447,-187500.02235174447
não,33750.48592692446,-12546.81647381979,-5620.033218864586,39568.51089817416,-187500.02235174447,-187500.02235174447,-187500.02235174447,-187500.02235174447
não,34259.39044468289,-12417.869260057123,-5495.0422638705095,39727.27533904021,-187500.02235174447,-187500.02235174447,-187500.02235174447,-187500.02235174447
não,33136.50585848163,-12247.28074637422,-6357.171399256158,39839.92813109495,-187500.02235174447,-187500.02235174447,-187500.02235174447,-187500.02235174447
não,32367.02470386323,-12353.384477303563,-6667.659481484829,39715.45126622335,-187500.02235174447,-187500.02235174447,-187500.02235174447,-187500.02235174447
não,33478.48754864783,-12551.935023300055,-5778.641197519445,39582.50309020318,-187500.02235174447,-187500.02235174447,-187500.02235174447,-187500.02235174447
não,34288.96180259727,-12415.991713522877,-5420.163919945231,39757.27138009923,-187500.02235174447,-187500.02235174447,-187500.02235174447,-187500.02235174447
não,33339.1691254579,-12231.053379899668,-6237.3436972312575,39887.64910550703,-187500.02235174447,-187500.02235174447,-187500.02235174447,-187500.02235174447
não,32307.01027000073,-12296.968674298369,-6782.145116584911,39778.572592565135,-187500.02235174447,-187500.02235174447,-187500.02235174447,-187500.02235174447
não,33232.10426951698,-12514.42879610405,-5962.439592175436,39626.021936657664,-187500.02235174447,-187500.02235174447,-187500.02235174447,-187500.02235174447
não,34216.40804009534,-12503.409386087584,-5476.155039805775,39699.4697689378,-187500.02235174447,-187500.02235174447,-187500.02235174447,-187500.02235174447
não,33530.79063067325,-12298.421537687962,-6125.11558832116,39860.89406739403,-187500.02235174447,-187500.02235174447,-187500.02235174447,-187500.02235174447
não,32320.60013062956,-12281.188342712921,-6838.784437034659,39813.30720344868,-187500.02235174447,-187500.02235174447,-187500.02235174447,-187500.02235174447
não,32933.30614963843,-12508.013845445377,-6203.726673570475,39608.4981690047,-187500.02235174447,-187500.02235174447,-187500.02235174447,-187500.02235174447
não,34197.230243352686,-12429.402760196062,-5438.425295165217,39724.459019238835,-187500.02235174447,-187500.02235174447,-187500.02235174447,-187500.02235174447
não,33816.24475911197,-12228.952315920867,-5909.130681649528,39898.22148063439,-187500.02235174447,-187500.02235174447,-187500.02235174447,-187500.02235174447
não,32448.966199036386,-12239.301173603675,-6782.234523562733,39848.44414573242,-187500.02235174447,-187500.02235174447,-187500.02235174447,-187500.02235174447
não,32591.369162961146,-12599.63364596768,-6487.593828152875,39533.50806635715,-187500.02235174447,-187500.02235174447,-187500.02235174447,-187500.02235174447
não,33969.48831909756,-12587.20607605053,-5592.451166206738,39611.470951017254,-187500.02235174447,-187500.02235174447,-187500.02235174447,-187500.02235174447
não,33965.263839395506,-12303.405976701497,-5781.055185920619,39872.04758787723,-187500.02235174447,-187500.02235174447,-187500.02235174447,-187500.02235174447
não,32629.16596283507,-12203.918362130924,-6678.298911845554,39903.988230703864,-187500.02235174447,-187500.02235174447,-187500.02235174447,-187500.02235174447
não,32467.451091700925,-12472.161647339064,-6582.454631621198,39635.32026235107,-187500.02235174447,-187500.02235174447,-187500.02235174447,-187500.02235174447
não,33823.30791035985,-12562.283880982863,-5659.1040681724635,39611.29213706162,-187500.02235174447,-187500.02235174447,-187500.02235174447,-187500.02235174447
não,34064.6396952438,-12369.768305989302,-5691.536449377114,39805.97583126734,-187500.02235174447,-187500.02235174447,-187500.02235174447,-187500.02235174447
não,32867.39085523973,-12171.240111737265,-6535.873596176338,39946.836524824685,-187500.02235174447,-187500.02235174447,-187500.02235174447,-187500.02235174447
não,32352.160793800453,-12396.299826657752,-6664.820809939005,39711.249138265746,-187500.02235174447,-187500.02235174447,-187500.02235174447,-187500.02235174447
não,33656.56389672326,-12531.080845723254,-5711.183632753329,39630.38052682645,-187500.02235174447,-187500.02235174447,-187500.02235174447,-187500.02235174447
não,34228.120354189916,-12355.753762215825,-5560.890503035844,39807.40634291248,-187500.02235174447,-187500.02235174447,-187500.02235174447,-187500.02235174447
não,33052.39624409631,-12299.092090021622,-6481.156525749747,39815.38591568302,-187500.02235174447,-187500.02235174447,-187500.02235174447,-187500.02235174447
não,32327.685633621888,-12387.537942831272,-6724.052932745569,39709.19277777586,-187500.02235174447,-187500.02235174447,-187500.02235174447,-187500.02235174447
não,33418.3390043186,-12526.297572409818,-5868.204637551861,39614.063753374074,-187500.02235174447,-187500.02235174447,-187500.02235174447,-187500.02235174447
não,34181.18169083377,-12476.475534018939,-5581.767032357101,39688.13743449896,-187500.02235174447,-187500.02235174447,-187500.02235174447,-187500.02235174447
não,33299.20420637181,-12260.222406413843,-6287.232790855503,39862.77161392828,-187500.02235174447,-187500.02235174447,-187500.02235174447,-187500.02235174447
não,32253.299028074627,-12295.605217886594,-6818.645515280427,39784.987543223804,-187500.02235174447,-187500.02235174447,-187500.02235174447,-187500.02235174447
não,33122.73718389716,-12548.515206398393,-6053.992337464373,39585.967610593754,-187500.02235174447,-187500.02235174447,-187500.02235174447,-187500.02235174447
não,34178.49948149914,-12484.410403300573,-5505.592287253415,39677.050969249125,-187500.02235174447,-187500.02235174447,-187500.02235174447,-187500.02235174447
não,33594.51545411533,-12241.581051538116,-6086.983512280406,39884.58691651665,-187500.02235174447,-187500.02235174447,-187500.02235174447,-187500.02235174447
não,32383.721456971343,-12220.883336172503,-6774.858447892481,39859.396500515526,-187500.02235174447,-187500.02235174447,-187500.02235174447,-187500.02235174447
não,32890.055524117415,-12502.80588898729,-6193.310760654302,39612.92381440685,-187500.02235174447,-187500.02235174447,-187500.02235174447,-187500.02235174447
não,34112.58418710044,-12516.462804849483,-5493.969380136655,39669.585486601056,-187500.02235174447,-187500.02235174447,-187500.02235174447,-187500.02235174447
não,33813.16021837714,-12293.682967863437,-5939.79727504221,39853.0039016013,-187500.02235174447,-187500.02235174447,-187500.02235174447,-187500.02235174447
não,32502.364516540114,-12222.93969666239,-6744.795351600093,39880.74241647034,-187500.02235174447,-187500.02235174447,-187500.02235174447,-187500.02235174447
não,32728.251246005446,-12457.007164598366,-6331.042209987904,39687.556289143125,-187500.02235174447,-187500.02235174447,-187500.02235174447,-187500.02235174447
não,34103.73289629613,-12463.37741176813,-5437.575928875915,39730.24812105276,-187500.02235174447,-187500.02235174447,-187500.02235174447,-187500.02235174447
não,34077.8942797058,-12278.416726400463,-5679.667673071346,39891.404198575525,-187500.02235174447,-187500.02235174447,-187500.02235174447,-187500.02235174447
não,32764.036388878394,-12191.736661402781,-6589.271913680067,39934.4760101409,-187500.02235174447,-187500.02235174447,-187500.02235174447,-187500.02235174447
não,32530.05832792024,-12455.666059931047,-6504.3352847499,39662.25411441972,-187500.02235174447,-187500.02235174447,-187500.02235174447,-187500.02235174447
não,33901.360201997784,-12606.249762326452,-5553.134447709853,39584.26887801515,-187500.02235174447,-187500.02235174447,-187500.02235174447,-187500.02235174447
não,34264.24077322969,-12406.358111662641,-5489.320217289951,39798.2421276858,-187500.02235174447,-187500.02235174447,-187500.02235174447,-187500.02235174447
não,33025.127115860836,-12333.312610782697,-6402.254867822513,39823.231377986835,-187500.02235174447,-187500.02235174447,-187500.02235174447,-187500.02235174447
não,32508.466542776412,-12510.181964657542,-6526.172939082735,39616.92477666435,-187500.02235174447,-187500.02235174447,-187500.02235174447,-187500.02235174447
não,33798.98921239248,-12640.157358665152,-5545.378392383861,39539.49833387117,-187500.02235174447,-187500.02235174447,-187500.02235174447,-187500.02235174447
não,34375.95479201732,-12446.479492959917,-5428.054085737955,39665.60687608801,-187500.02235174447,-187500.02235174447,-187500.02235174447,-187500.02235174447
não,33194.19571092078,-12337.9617736294,-6396.957504386605,39641.73521300974,-187500.02235174447,-187500.02235174447,-187500.02235174447,-187500.02235174447
não,32368.74578818629,-12530.007961989399,-6715.827490786015,39488.6704669798,-187500.02235174447,-187500.02235174447,-187500.02235174447,-187500.02235174447
não,33476.00650501329,-12720.109548581786,-5813.062883980619,39311.53289217149,-187500.02235174447,-187500.02235174447,-187500.02235174447,-187500.02235174447
não,34278.92586933683,-12667.113562478253,-5491.1083568463755,39473.203059816726,-187500.02235174447,-187500.02235174447,-187500.02235174447,-187500.02235174447
não,33464.54006010772,-12361.162884374009,-6203.816080548297,39669.74194881224,-187500.02235174447,-187500.02235174447,-187500.02235174447,-187500.02235174447
não,32473.217841770394,-12247.347801607586,-6651.3427080324545,39660.82360277457,-187500.02235174447,-187500.02235174447,-187500.02235174447,-187500.02235174447
não,33186.64082129489,-12564.787276361856,-6015.726150956888,39387.32765761944,-187500.02235174447,-187500.02235174447,-187500.02235174447,-187500.02235174447
não,34214.552845305545,-12609.043730383364,-5473.964568849155,39434.60159714241,-187500.02235174447,-187500.02235174447,-187500.02235174447,-187500.02235174447
não,33687.07402790475,-12350.67991622447,-5982.712624396399,39643.009262443695,-187500.02235174447,-187500.02235174447,-187500.02235174447,-187500.02235174447
não,32476.302382505226,-12342.275660309275,-6645.93358587427,39582.27957275863,-187500.02235174447,-187500.02235174447,-187500.02235174447,-187500.02235174447
não,32932.635597304776,-12515.166403671075,-6160.230178860447,39363.00895965206,-187500.02235174447,-187500.02235174447,-187500.02235174447,-187500.02235174447
não,34174.90085064183,-12496.457993561984,-5456.396097707284,39456.081623563965,-187500.02235174447,-187500.02235174447,-187500.02235174447,-187500.02235174447
não,33965.53206032897,-12263.150484937489,-5729.556766695591,39750.92348467392,-187500.02235174447,-187500.02235174447,-187500.02235174447,-187500.02235174447
não,32663.85587022971,-12130.224660661777,-6618.93267857226,39829.44516294541,-187500.02235174447,-187500.02235174447,-187500.02235174447,-187500.02235174447
não,32666.13574816415,-12461.388106511606,-6426.238289623057,39423.33631793694,-187500.02235174447,-187500.02235174447,-187500.02235174447,-187500.02235174447
não,34112.070096977965,-12461.142237322598,-5409.189213417675,39505.7248479992,-187500.02235174447,-187500.02235174447,-187500.02235174447,-187500.02235174447
não,34184.89208041335,-12216.99413263728,-5603.917611112311,39777.455005342366,-187500.02235174447,-187500.02235174447,-187500.02235174447,-187500.02235174447
não,32924.41015534522,-12009.27937141411,-6439.068190940403,39869.2089163314,-187500.02235174447,-187500.02235174447,-187500.02235174447,-187500.02235174447
não,32708.179379484583,-12209.439243011386,-6321.877994761228,39677.16272797141,-187500.02235174447,-187500.02235174447,-187500.02235174447,-187500.02235174447
não,34015.08587778638,-12368.807180977725,-5451.679879627214,39645.28914037814,-187500.02235174447,-187500.02235174447,-187500.02235174447,-187500.02235174447
não,34406.37551622099,-12160.444219165352,-5359.411878515706,39875.33329431216,-187500.02235174447,-187500.02235174447,-187500.02235174447,-187500.02235174447
não,33269.63284845744,-11931.875280365382,-6159.336109082235,40092.03345680636,-187500.02235174447,-187500.02235174447,-187500.02235174447,-187500.02235174447
não,32696.645879345644,-12048.059648044069,-6316.714741792052,39924.261262924825,-187500.02235174447,-187500.02235174447,-187500.02235174447,-187500.02235174447
não,33952.36688284479,-12233.445016556385,-5385.474012550594,39800.92433702044,-187500.02235174447,-187500.02235174447,-187500.02235174447,-187500.02235174447
não,34586.48587304186,-12072.91478787837,-5195.417129447118,39981.59348745269,-187500.02235174447,-187500.02235174447,-187500.02235174447,-187500.02235174447
não,33570.93436371498,-11899.889934049837,-6023.348095816147,40155.04302442587,-187500.02235174447,-187500.02235174447,-187500.02235174447,-187500.02235174447
não,32780.91195594215,-11952.997678875647,-6354.8021143438955,40077.79539558833,-187500.02235174447,-187500.02235174447,-187500.02235174447,-187500.02235174447
não,33775.050494080846,-12132.057503707112,-5527.049961930509,39905.597556304645,-187500.02235174447,-187500.02235174447,-187500.02235174447,-187500.02235174447
não,34738.16481091557,-12029.172423979333,-5055.338746945709,40041.429107359545,-187500.02235174447,-187500.02235174447,-187500.02235174447,-187500.02235174447
não,33886.116312279264,-11789.181743762701,-5784.385595844459,40248.80859241588,-187500.02235174447,-187500.02235174447,-187500.02235174447,-187500.02235174447
não,32877.27032628898,-11813.254572541067,-6281.57779950831,40198.159539480155,-187500.02235174447,-187500.02235174447,-187500.02235174447,-187500.02235174447
não,33575.91880272851,-12050.540691678607,-5621.8884136543775,39997.954964393975,-187500.02235174447,-187500.02235174447,-187500.02235174447,-187500.02235174447
não,34627.18839969497,-12001.746833532672,-5087.033520583334,40060.651607591106,-187500.02235174447,-187500.02235174447,-187500.02235174447,-187500.02235174447
não,34095.10512293639,-11782.789144848484,-5607.672704180802,40251.42374651715,-187500.02235174447,-187500.02235174447,-187500.02235174447,-187500.02235174447
não,32935.89895199525,-11682.988605855538,-6254.554540461843,40343.155305761735,-187500.02235174447,-187500.02235174447,-187500.02235174447,-187500.02235174447
não,33370.43921595087,-11989.341615359977,-5719.230260757239,40098.02372432038,-187500.02235174447,-187500.02235174447,-187500.02235174447,-187500.02235174447
não,34614.62671931108,-12029.641810612895,-5016.066731937734,40135.84287593876,-187500.02235174447,-187500.02235174447,-187500.02235174447,-187500.02235174447
não,34406.62138541,-11753.865987523317,-5375.907465923723,40357.54982919095,-187500.02235174447,-187500.02235174447,-187500.02235174447,-187500.02235174447
não,33123.765364142106,-11638.083951244826,-6194.338940899246,40379.32042829042,-187500.02235174447,-187500.02235174447,-187500.02235174447,-187500.02235174447
não,33197.593176077986,-11947.186225317268,-5907.387245582015,40109.9148523706,-187500.02235174447,-187500.02235174447,-187500.02235174447,-187500.02235174447
não,34536.82029686216,-11996.22595265221,-5023.8674907526365,40118.69908794154,-187500.02235174447,-187500.02235174447,-187500.02235174447,-187500.02235174447
não,34625.08733571617,-11735.828129747884,-5188.532792154884,40369.68682643018,-187500.02235174447,-187500.02235174447,-187500.02235174447,-187500.02235174447
não,33342.924218526394,-11599.035453681405,-6061.39076487908,40437.52437085204,-187500.02235174447,-187500.02235174447,-187500.02235174447,-187500.02235174447
não,33078.816006042485,-11841.529529277032,-5983.092604052139,40218.365516467755,-187500.02235174447,-187500.02235174447,-187500.02235174447,-187500.02235174447
não,34408.09660054405,-11988.805173493049,-5052.6341858666165,40157.61347503823,-187500.02235174447,-187500.02235174447,-187500.02235174447,-187500.02235174447
não,34787.27159348388,-11768.506380141544,-5036.339764158698,40361.193163537166,-187500.02235174447,-187500.02235174447,-187500.02235174447,-187500.02235174447
não,33618.34241370468,-11558.467037495022,-5884.677873215423,40517.431857279764,-187500.02235174447,-187500.02235174447,-187500.02235174447,-187500.02235174447
não,32973.315772213435,-11791.57338041942,-6098.8746403306295,40332.29235795645,-187500.02235174447,-187500.02235174447,-187500.02235174447,-187500.02235174447
não,34172.464510496204,-12022.444548898286,-5207.50942319744,40145.878809199196,-187500.02235174447,-187500.02235174447,-187500.02235174447,-187500.02235174447
não,34840.98283540998,-11842.82593045544,-4964.925940623992,40266.68998798013,-187500.02235174447,-187500.02235174447,-187500.02235174447,-187500.02235174447
não,33868.54784113739,-11591.905247200162,-5719.65494390189,40465.553458398994,-187500.02235174447,-187500.02235174447,-187500.02235174447,-187500.02235174447
não,32964.75505408705,-11694.276236805468,-6135.330335537235,40338.394384192754,-187500.02235174447,-187500.02235174447,-187500.02235174447,-187500.02235174447
não,33991.683601341676,-11960.351402801443,-5301.856136543291,40145.588236521275,-187500.02235174447,-187500.02235174447,-187500.02235174447,-187500.02235174447
não,34974.53450853044,-11862.294299876012,-4826.6356976790075,40284.012589932994,-187500.02235174447,-187500.02235174447,-187500.02235174447,-187500.02235174447
não,34136.254684478605,-11599.594247292787,-5568.57950312847,40479.38918821683,-187500.02235174447,-187500.02235174447,-187500.02235174447,-187500.02235174447
não,33040.48276430163,-11664.682527146642,-6139.398353028101,40407.50597804856,-187500.02235174447,-187500.02235174447,-187500.02235174447,-187500.02235174447
não,33690.67265876206,-11960.105533612435,-5512.364865823372,40183.02740848391,-187500.02235174447,-187500.02235174447,-187500.02235174447,-187500.02235174447
$SILENCE,34855.04208267237,-11937.485568223665,-4865.281863842233,40257.503421008994,-187500.02235174447,-187500.02235174447,-187500.02235174447,-187500.02235174447
$SILENCE,34324.590483259024,-11651.852625829295,-5413.570155330915,40495.79536864703,-187500.02235174447,-187500.02235174447,-187500.02235174447,-187500.02235174447
$SILENCE,33032.92787467574,-11608.065558441349,-6167.4944958084225,40455.8975047943,-187500.02235174447,-187500.02235174447,-187500.02235174447,-187500.02235174447
$SILENCE,33442.16596390795,-11895.263122947588,-5667.754193276667,40192.2363271995,-187500.02235174447,-187500.02235174447,-187500.02235174447,-187500.02235174447
$SILENCE,34724.127915397636,-11953.60117597594,-4904.196250938922,40212.62111814274,-187500.02235174447,-187500.02235174447,-187500.02235174447,-187500.02235174447
$SILENCE,34522.53753215522,-11721.523013296488,-5250.46947604054,40407.10364664837,-187500.02235174447,-187500.02235174447,-187500.02235174447,-187500.02235174447
$SILENCE,33199.22485342322,-11609.116090430749,-6097.689997874499,40432.58463532742,-187500.02235174447,-187500.02235174447,-187500.02235174447,-187500.02235174447
$SILENCE,33259.39574949691,-11853.733581749628,-5813.733436314277,40227.23915901651,-187500.02235174447,-187500.02235174447,-187500.02235174447,-187500.02235174447
$SILENCE,34587.60346026462,-11961.580748746484,-4948.273891004788,40200.595879625784,-187500.02235174447,-187500.02235174447,-187500.02235174447,-187500.02235174447
$SILENCE,34702.62553723163,-11747.272222909001,-5092.286180530332,40401.9850971681,-187500.02235174447,-187500.02235174447,-187500.02235174447,-187500.02235174447
$SILENCE,33456.314618148164,-11575.05203188086,-5937.942080252419,40515.621365978885,-187500.02235174447,-187500.02235174447,-187500.02235174447,-187500.02235174447
$SILENCE,33111.20368375822,-11821.927049389727,-5939.327888408648,40275.29540959542,-187500.02235174447,-187500.02235174447,-187500.02235174447,-187500.02235174447
$SILENCE,34402.32985047458,-11979.596254777463,-5035.80332229177,40174.15376593516,-187500.02235174447,-187500.02235174447,-187500.02235174447,-187500.02235174447
$SILENCE,34828.24234107046,-11793.987368820593,-4956.40992598652,40344.87639008479,-187500.02235174447,-187500.02235174447,-187500.02235174447,-187500.02235174447
$SILENCE,33671.09253061921,-11621.834233025818,-5791.649912792434,40472.66131313578,-187500.02235174447,-187500.02235174447,-187500.02235174447,-187500.02235174447
$SILENCE,33026.71408971716,-11741.03608620597,-5995.944857113941,40296.9095464837,-187500.02235174447,-187500.02235174447,-187500.02235174447,-187500.02235174447
$SILENCE,34149.66573115179,-12004.674912056316,-5220.227565792509,40119.68256469758,-187500.02235174447,-187500.02235174447,-187500.02235174447,-187500.02235174447
$SILENCE,34831.34923354974,-11870.139762179824,-4994.5196502828185,40280.48101430905,-187500.02235174447,-187500.02235174447,-187500.02235174447,-187500.02235174447
$SILENCE,33901.024925830956,-11620.135500447215,-5706.042731528608,40481.93728708474,-187500.02235174447,-187500.02235174447,-187500.02235174447,-187500.02235174447
$SILENCE,32976.534423414996,-11716.002132416026,-6124.6462016875985,40348.43031745319,-187500.02235174447,-187500.02235174447,-187500.02235174447,-187500.02235174447
$SILENCE,33928.78579244445,-11988.983987448692,-5338.736514894547,40131.059602625326,-187500.02235174447,-187500.02235174447,-187500.02235174447,-187500.02235174447
$SILENCE,34878.198489928065,-11909.92586731027,-4867.7852592212275,40261.1020518663,-187500.02235174447,-187500.02235174447,-187500.02235174447,-187500.02235174447
$SILENCE,34163.50146096962,-11661.597986411809,-5490.1695835792525,40446.1968477007,-187500.02235174447,-187500.02235174447,-187500.02235174447,-187500.02235174447
$SILENCE,33014.8900169003,-11672.527989450455,-6135.486797748423,40391.79270169648,-187500.02235174447,-187500.02235174447,-187500.02235174447,-187500.02235174447
$SILENCE,33678.89328943411,-11981.965539689725,-5514.890612946822,40135.75346896094,-187500.02235174447,-187500.02235174447,-187500.02235174447,-187500.02235174447
$SILENCE,34833.0703178728,-11941.374771758887,-4863.493724285809,40200.79704532588,-187500.02235174447,-187500.02235174447,-187500.02235174447,-187500.02235174447
$SILENCE,34379.553422874626,-11690.901123392716,-5356.595558714337,40415.19497814119,-187500.02235174447,-187500.02235174447,-187500.02235174447,-187500.02235174447
$SILENCE,33101.36891619789,-11658.535797421431,-6124.288573776314,40404.24262335809,-187500.02235174447,-187500.02235174447,-187500.02235174447,-187500.02235174447
$SILENCE,33456.85106001509,-11952.863568408915,-5663.954396719265,40144.31418708732,-187500.02235174447,-187500.02235174447,-187500.02235174447,-187500.02235174447
$SILENCE,34728.37474684414,-11997.835278252993,-4891.098128688112,40168.85640249925,-187500.02235174447,-187500.02235174447,-187500.02235174447,-187500.02235174447
$SILENCE,34569.38678853354,-11762.069077738415,-5217.344190757774,40376.25823930004,-187500.02235174447,-187500.02235174447,-187500.02235174447,-187500.02235174447
$SILENCE,33324.97576772878,-11656.68060263164,-6011.7028369549325,40408.37769608232,-187500.02235174447,-187500.02235174447,-187500.02235174447,-187500.02235174447
$SILENCE,33328.14971544143,-11892.670320590774,-5772.7626887277,40193.756245822464,-187500.02235174447,-187500.02235174447,-187500.02235174447,-187500.02235174447
$SILENCE,34606.91536747401,-12004.652560311863,-4931.599489641129,40134.07708812679,-187500.02235174447,-187500.02235174447,-187500.02235174447,-187500.02235174447
$SILENCE,34735.19202890302,-11788.95822631815,-5075.790593122315,40349.21262850912,-187500.02235174447,-187500.02235174447,-187500.02235174447,-187500.02235174447
$SILENCE,33415.94736766188,-11651.629108384743,-5985.081909308661,40442.709975565675,-187500.02235174447,-187500.02235174447,-187500.02235174447,-187500.02235174447
$SILENCE,33039.72280499015,-11873.023137214559,-6005.623162463089,40212.509359420466,-187500.02235174447,-187500.02235174447,-187500.02235174447,-187500.02235174447
$SILENCE,34329.01612866118,-12055.48042720323,-5106.188965581532,40107.277346524876,-187500.02235174447,-187500.02235174447,-187500.02235174447,-187500.02235174447
$SILENCE,34771.22304096497,-11902.728605595661,-5032.741133301393,40271.65207524921,-187500.02235174447,-187500.02235174447,-187500.02235174447,-187500.02235174447
$SILENCE,33673.97590565395,-11661.508579433988,-5815.409817148426,40436.36208014037,-187500.02235174447,-187500.02235174447,-187500.02235174447,-187500.02235174447
$SILENCE,32957.602495861356,-11819.647171455284,-6091.833840827208,40229.407278228675,-187500.02235174447,-187500.02235174447,-187500.02235174447,-187500.02235174447
$SILENCE,34099.553120082994,-12068.690308176316,-5241.394667791685,40045.206552172494,-187500.02235174447,-187500.02235174447,-187500.02235174447,-187500.02235174447
$SILENCE,34840.8263731988,-11948.102646839936,-4933.901719320026,40199.970030781034,-187500.02235174447,-187500.02235174447,-187500.02235174447,-187500.02235174447
$SILENCE,33913.98893761503,-11701.339388053346,-5671.889266000899,40387.99290513908,-187500.02235174447,-187500.02235174447,-187500.02235174447,-187500.02235174447
$SILENCE,32968.37603668881,-11756.838769535872,-6139.197187328004,40297.04365695044,-187500.02235174447,-187500.02235174447,-187500.02235174447,-187500.02235174447
$SILENCE,33889.960812325575,-12034.402732181876,-5378.142640369254,40079.672942122575,-187500.02235174447,-187500.02235174447,-187500.02235174447,-187500.02235174447
$SILENCE,34798.961555834,-12023.495080887686,-4943.110638035612,40158.664007027626,-187500.02235174447,-187500.02235174447,-187500.02235174447,-187500.02235174447
$SILENCE,34108.60557658739,-11773.691984855173,-5558.05183149002,40360.74612864806,-187500.02235174447,-187500.02235174447,-187500.02235174447,-187500.02235174447
$SILENCE,32950.181716702195,-11769.84748480886,-6205.55951661581,40285.1078254113,-187500.02235174447,-187500.02235174447,-187500.02235174447,-187500.02235174447
$SILENCE,33600.43866639598,-12049.467807944753,-5579.3306922114725,40036.64583404611,-187500.02235174447,-187500.02235174447,-187500.02235174447,-187500.02235174447
$SILENCE,34761.20945944899,-12044.170444508845,-4926.413884927498,40106.293869768844,-187500.02235174447,-187500.02235174447,-187500.02235174447,-187500.02235174447
$SILENCE,34348.506849826204,-11783.370290204322,-5382.724747982592,40322.21172120711,-187500.02235174447,-187500.02235174447,-187500.02235174447,-187500.02235174447
$SILENCE,33089.65660210331,-11727.759149999518,-6137.610213471677,40339.0202330375,-187500.02235174447,-187500.02235174447,-187500.02235174447,-187500.02235174447
$SILENCE,33392.96977436182,-12011.693359815283,-5716.816272356066,40107.70202966953,-187500.02235174447,-187500.02235174447,-187500.02235174447,-187500.02235174447
$SILENCE,34631.54698986375,-12089.209209586288,-4982.382653043586,40070.374616429166,-187500.02235174447,-187500.02235174447,-187500.02235174447,-187500.02235174447
$SILENCE,34498.12942721003,-11873.917206992772,-5281.739566533514,40253.16718258467,-187500.02235174447,-187500.02235174447,-187500.02235174447,-187500.02235174447
$SILENCE,33218.24618795469,-11726.775673243485,-6096.617114140644,40335.041622524455,-187500.02235174447,-187500.02235174447,-187500.02235174447,-187500.02235174447
$SILENCE,33165.80899546254,-11981.56320828953,-5892.277466330227,40093.285154495854,-187500.02235174447,-187500.02235174447,-187500.02235174447,-187500.02235174447
$SILENCE,34490.86511026205,-12104.520154538173,-5016.737284271394,40045.58653182823,-187500.02235174447,-187500.02235174447,-187500.02235174447,-187500.02235174447
$SILENCE,34654.54693490826,-11923.471024450188,-5146.913843979102,40233.81057188637,-187500.02235174447,-187500.02235174447,-187500.02235174447,-187500.02235174447
$SILENCE,33414.24863508328,-11737.325696626389,-6006.450177007935,40350.10669828734,-187500.02235174447,-187500.02235174447,-187500.02235174447,-187500.02235174447
$SILENCE,32988.134978787304,-11963.838274936472,-6059.870846256119,40107.32205001379,-187500.02235174447,-187500.02235174447,-187500.02235174447,-187500.02235174447
$SILENCE,34275.26018324616,-12166.099210512544,-5157.575626084284,39971.177574536516,-187500.02235174447,-187500.02235174447,-187500.02235174447,-187500.02235174447
$SILENCE,34818.40757351012,-11945.755713672128,-5010.99288594638,40196.125530734724,-187500.02235174447,-187500.02235174447,-187500.02235174447,-187500.02235174447
$SILENCE,33612.84388456868,-11739.583222816376,-5906.135547892517,40334.46047716862,-187500.02235174447,-187500.02235174447,-187500.02235174447,-187500.02235174447
$SILENCE,32852.83986959933,-11921.861698849405,-6208.979333517473,40135.97698640549,-187500.02235174447,-187500.02235174447,-187500.02235174447,-187500.02235174447
$SILENCE,33993.15881647573,-12148.664849837405,-5330.935756079645,39967.467184956935,-187500.02235174447,-187500.02235174447,-187500.02235174447,-187500.02235174447
$SILENCE,34748.26779940937,-12042.158787507868,-5029.053095466268,40107.88084362517,-187500.02235174447,-187500.02235174447,-187500.02235174447,-187500.02235174447
$SILENCE,33845.70435830407,-11775.256606967045,-5734.630612686946,40300.0611424519,-187500.02235174447,-187500.02235174447,-187500.02235174447,-187500.02235174447
$SILENCE,32887.70859094961,-11832.857052428371,-6176.993987201928,40215.72801062203,-187500.02235174447,-187500.02235174447,-187500.02235174447,-187500.02235174447
$SILENCE,33813.74136373298,-12103.469622548775,-5403.958905215133,40021.580758283235,-187500.02235174447,-187500.02235174447,-187500.02235174447,-187500.02235174447
$SILENCE,34723.18914213051,-12097.814631201582,-5018.212499405444,40071.26868620738,-187500.02235174447,-187500.02235174447,-187500.02235174447,-187500.02235174447
$SILENCE,34015.242339997574,-11874.833628515438,-5675.4208416248375,40237.27509227694,-187500.02235174447,-187500.02235174447,-187500.02235174447,-187500.02235174447
$SILENCE,32859.0536545579,-11865.11061967738,-6304.689503275097,40186.827205041314,-187500.02235174447,-187500.02235174447,-187500.02235174447,-187500.02235174447
$SILENCE,33467.6022490981,-12146.809655047615,-5695.515059890158,39944.3778329346,-187500.02235174447,-187500.02235174447,-187500.02235174447,-187500.02235174447
$SILENCE,34638.43132715599,-12134.15856768591,-5024.918022742036,40016.90924369207,-187500.02235174447,-187500.02235174447,-187500.02235174447,-187500.02235174447
$SILENCE,34262.89966856237,-11885.763631554084,-5466.610844923359,40240.69490917861,-187500.02235174447,-187500.02235174447,-187500.02235174447,-187500.02235174447
$SILENCE,32995.15342654627,-11812.360502762855,-6237.410752464623,40243.533580724434,-187500.02235174447,-187500.02235174447,-187500.02235174447,-187500.02235174447
$SILENCE,33271.3539327805,-12091.042052631623,-5833.179453990395,39980.40884499656,-187500.02235174447,-187500.02235174447,-187500.02235174447,-187500.02235174447
$SILENCE,34546.02921557775,-12153.381067917475,-5056.925720802035,39987.69551368899,-187500.02235174447,-187500.02235174447,-187500.02235174447,-187500.02235174447
$SILENCE,34451.14606036497,-11927.941373341248,-5325.906613577201,40200.93115579261,-187500.02235174447,-187500.02235174447,-187500.02235174447,-187500.02235174447
$SILENCE,33152.86733542292,-11819.91539238875,-6167.718013252976,40259.53742975443,-187500.02235174447,-187500.02235174447,-187500.02235174447,-187500.02235174447
$SILENCE,33064.55559308,-12081.095526349012,-5995.631932691566,40014.808179713276,-187500.02235174447,-187500.02235174447,-187500.02235174447,-187500.02235174447
$SILENCE,34379.57577461908,-12174.481114683285,-5112.156881351099,39972.16105129255,-187500.02235174447,-187500.02235174447,-187500.02235174447,-187500.02235174447
$SILENCE,34558.12150932807,-11978.65748151034,-5240.679411969115,40145.252960354446,-187500.02235174447,-187500.02235174447,-187500.02235174447,-187500.02235174447
$SILENCE,33321.399488615934,-11800.782299135006,-6101.467442687445,40251.289636050424,-187500.02235174447,-187500.02235174447,-187500.02235174447,-187500.02235174447
$SILENCE,32895.308184064415,-12021.371665164432,-6157.212693358982,40023.659470517574,-187500.02235174447,-187500.02235174447,-187500.02235174447,-187500.02235174447
$SILENCE,34148.95047532922,-12220.860984428047,-5266.406269837174,39910.358477873626,-187500.02235174447,-187500.02235174447,-187500.02235174447,-187500.02235174447
$SILENCE,34658.257324487844,-12057.91676734886,-5129.926518193069,40092.50284343992,-187500.02235174447,-187500.02235174447,-187500.02235174447,-187500.02235174447
$SILENCE,33574.37653236109,-11836.232165841124,-5932.979992983341,40255.87174366376,-187500.02235174447,-187500.02235174447,-187500.02235174447,-187500.02235174447
$SILENCE,32808.65047081119,-11996.337711374488,-6246.127932802193,40083.13746251315,-187500.02235174447,-187500.02235174447,-187500.02235174447,-187500.02235174447
$SILENCE,33933.25614133551,-12195.268237026721,-5373.605236244826,39943.260245711834,-187500.02235174447,-187500.02235174447,-187500.02235174447,-187500.02235174447
$SILENCE,34668.270906003825,-12084.872971161958,-5100.109291089689,40043.3513573827,-187500.02235174447,-187500.02235174447,-187500.02235174447,-187500.02235174447
$SILENCE,33765.61805792071,-11873.045488959015,-5836.353401703049,40204.105103505266,-187500.02235174447,-187500.02235174447,-187500.02235174447,-187500.02235174447
$SILENCE,32760.348351043267,-11969.336804072476,-6335.289041434413,40086.04318929234,-187500.02235174447,-187500.02235174447,-187500.02235174447,-187500.02235174447
$SILENCE,33627.596035909184,-12245.112627162056,-5604.63286693488,39872.40521578851,-187500.02235174447,-187500.02235174447,-187500.02235174447,-187500.02235174447
$SILENCE,34638.52073413381,-12155.102152240534,-5077.802250123293,39990.936516635,-187500.02235174447,-187500.02235174447,-187500.02235174447,-187500.02235174447
$SILENCE,34007.70980211614,-11901.543963139531,-5659.931082717309,40208.016658784945,-187500.02235174447,-187500.02235174447,-187500.02235174447,-187500.02235174447
$SILENCE,32813.232578424526,-11911.44578593323,-6335.0208205009485,40157.03232968239,-187500.02235174447,-187500.02235174447,-187500.02235174447,-187500.02235174447
$SILENCE,33377.70353289885,-12212.814356424136,-5762.391479300437,39888.99021017435,-187500.02235174447,-187500.02235174447,-187500.02235174447,-187500.02235174447
$SILENCE,34563.195355319425,-12205.147708075967,-5089.849840384703,39944.22137072341,-187500.02235174447,-187500.02235174447,-187500.02235174447,-187500.02235174447
$SILENCE,34220.54311281957,-11945.97923111668,-5501.636028484825,40173.32675139031,-187500.02235174447,-187500.02235174447,-187500.02235174447,-187500.02235174447
$SILENCE,32931.026271703995,-11871.458515102688,-6299.302732861368,40186.357818407756,-187500.02235174447,-187500.02235174447,-187500.02235174447,-187500.02235174447
$SILENCE,33143.39019577386,-12177.431544951385,-5940.199606442405,39904.07763768168,-187500.02235174447,-187500.02235174447,-187500.02235174447,-187500.02235174447
