WORD,Channel_1,Channel_2,Channel_3,Channel_4,Channel_5,Channel_6,Channel_7,Channel_8
talvez,27111.526085320245,-20712.2887029992,-20199.919664850197,37553.143507616944,-187500.02235174447,-187500.02235174447,-187500.02235174447,-187500.02235174447
talvez,27642.916458000716,-21021.34627358273,-19496.063231952576,37337.67269106778,-187500.02235174447,-187500.02235174447,-187500.02235174447,-187500.02235174447
talvez,28770.69607623769,-20993.920683136068,-18817.978360411926,37403.54328197757,-187500.02235174447,-187500.02235174447,-187500.02235174447,-187500.02235174447
talvez,28457.63754339666,-20728.694883429394,-19332.604924750918,37591.47674935779,-187500.02235174447,-187500.02235174447,-187500.02235174447,-187500.02235174447
talvez,27260.29929641477,-20674.067219980625,-20132.864431484275,37582.53605157567,-187500.02235174447,-187500.02235174447,-187500.02235174447,-187500.02235174447
talvez,27490.790485237896,-20984.622357442662,-19627.156213182952,37359.04095876705,-187500.02235174447,-187500.02235174447,-187500.02235174447,-187500.02235174447
talvez,28694.946014278656,-21027.940038197048,-18822.44870930299,37375.33538047497,-187500.02235174447,-187500.02235174447,-187500.02235174447,-187500.02235174447
talvez,28656.746883004533,-20779.96978520987,-19158.21661451061,37556.58567626306,-187500.02235174447,-187500.02235174447,-187500.02235174447,-187500.02235174447
talvez,27423.4223274496,-20656.051713949648,-20067.195006274582,37599.74689480625,-187500.02235174447,-187500.02235174447,-187500.02235174447,-187500.02235174447
talvez,27295.100962531684,-20934.66620858505,-19817.101337564152,37391.942726605266,-187500.02235174447,-187500.02235174447,-187500.02235174447,-187500.02235174447
talvez,28534.01345420044,-21049.285954151866,-18898.86932359568,37351.731938330166,-187500.02235174447,-187500.02235174447,-187500.02235174447,-187500.02235174447
talvez,28795.93119572773,-20824.516811909296,-19009.130478993713,37526.67904218186,-187500.02235174447,-187500.02235174447,-187500.02235174447,-187500.02235174447
talvez,27684.378943965312,-20645.501690566743,-19915.113737000673,37620.91399680543,-187500.02235174447,-187500.02235174447,-187500.02235174447,-187500.02235174447
talvez,27200.374269530093,-20877.02105963481,-19950.85417638471,37422.005822897656,-187500.02235174447,-187500.02235174447,-187500.02235174447,-187500.02235174447
talvez,28337.228696015918,-21055.186814688066,-19008.683444104605,37328.15084792982,-187500.02235174447,-187500.02235174447,-187500.02235174447,-187500.02235174447
talvez,28852.011722566098,-20868.393286275066,-18925.825527408782,37481.01442825967,-187500.02235174447,-187500.02235174447,-187500.02235174447,-187500.02235174447
talvez,27881.81190273904,-20658.465702350823,-19790.323947706693,37613.51556939072,-187500.02235174447,-187500.02235174447,-187500.02235174447,-187500.02235174447
talvez,27140.18102171195,-20826.483765421362,-20063.618727161735,37450.169020911344,-187500.02235174447,-187500.02235174447,-187500.02235174447,-187500.02235174447
talvez,28120.640292243996,-21061.534710113374,-19151.93577431867,37312.39286808883,-187500.02235174447,-187500.02235174447,-187500.02235174447,-187500.02235174447
talvez,28891.328441062982,-20930.553487605273,-18843.459349090976,37462.820108273045,-187500.02235174447,-187500.02235174447,-187500.02235174447,-187500.02235174447
talvez,28112.66071947345,-20671.27325192371,-19637.59447784358,37623.126819506506,-187500.02235174447,-187500.02235174447,-187500.02235174447,-187500.02235174447
talvez,27124.959483737886,-20760.90374718949,-20141.626315310754,37511.36809722997,-187500.02235174447,-187500.02235174447,-187500.02235174447,-187500.02235174447
talvez,27890.998469710168,-21046.44728260604,-19317.58455247695,37319.791295503535,-187500.02235174447,-187500.02235174447,-187500.02235174447,-187500.02235174447
talvez,28883.23710957016,-20963.857586843682,-18792.117392077136,37418.138971106884,-187500.02235174447,-187500.02235174447,-187500.02235174447,-187500.02235174447
talvez,28340.961437339956,-20704.44324069539,-19444.050722605076,37593.66722031441,-187500.02235174447,-187500.02235174447,-187500.02235174447,-187500.02235174447
talvez,27197.62500496209,-20716.401423978976,-20137.06655944187,37544.20280983482,-187500.02235174447,-187500.02235174447,-187500.02235174447,-187500.02235174447
talvez,27657.221574452113,-21025.660160262607,-19490.318833627563,37322.026469949065,-187500.02235174447,-187500.02235174447,-187500.02235174447,-187500.02235174447
talvez,28873.648211198833,-21024.117889895188,-18740.730731574386,37366.8193658375,-187500.02235174447,-187500.02235174447,-187500.02235174447,-187500.02235174447
talvez,28588.305841482383,-20734.975723621337,-19268.85774956438,37574.48942357176,-187500.02235174447,-187500.02235174447,-187500.02235174447,-187500.02235174447
talvez,27355.204803372006,-20686.405382919955,-20091.469000753048,37565.12404264499,-187500.02235174447,-187500.02235174447,-187500.02235174447,-187500.02235174447
talvez,27460.414464523135,-20969.71374389097,-19689.450524979893,37360.35971168992,-187500.02235174447,-187500.02235174447,-187500.02235174447,-187500.02235174447
talvez,28639.312522329394,-21032.07511092128,-18863.262994678378,37367.13229025988,-187500.02235174447,-187500.02235174447,-187500.02235174447,-187500.02235174447
talvez,28653.036493424952,-20784.373078867564,-19156.137902276267,37547.57792324757,-187500.02235174447,-187500.02235174447,-187500.02235174447,-187500.02235174447
talvez,27444.030635837393,-20654.017705204216,-20061.741180627487,37599.501025617246,-187500.02235174447,-187500.02235174447,-187500.02235174447,-187500.02235174447
talvez,27247.804671264254,-20937.48252838642,-19858.899099695576,37378.75519737664,-187500.02235174447,-187500.02235174447,-187500.02235174447,-187500.02235174447
talvez,28484.9737268655,-21061.0206199909,-18920.349350017234,37335.43751662225,-187500.02235174447,-187500.02235174447,-187500.02235174447,-187500.02235174447
talvez,28792.35491661488,-20842.97935282938,-18997.842848043783,37503.299117481605,-187500.02235174447,-187500.02235174447,-187500.02235174447,-187500.02235174447
talvez,27683.887205587293,-20654.978830215794,-19906.26244619637,37600.23863318427,-187500.02235174447,-187500.02235174447,-187500.02235174447,-187500.02235174447
talvez,27158.151824254015,-20872.103675854647,-19984.292386089848,37411.12052334792,-187500.02235174447,-187500.02235174447,-187500.02235174447,-187500.02235174447
talvez,28290.40179138205,-21064.395733403653,-19034.231488017023,37320.79712400402,-187500.02235174447,-187500.02235174447,-187500.02235174447,-187500.02235174447
talvez,28876.062199600008,-20893.024908664815,-18895.22598924947,37473.88422177842,-187500.02235174447,-187500.02235174447,-187500.02235174447,-187500.02235174447
talvez,27915.16070546636,-20658.845682006562,-19765.893491017043,37608.374668166005,-187500.02235174447,-187500.02235174447,-187500.02235174447,-187500.02235174447
talvez,27114.92355047745,-20808.40120415702,-20081.902454126175,37464.38473038492,-187500.02235174447,-187500.02235174447,-187500.02235174447,-187500.02235174447
talvez,28088.073800572613,-21050.716465797006,-19167.93962334867,37325.312176383995,-187500.02235174447,-187500.02235174447,-187500.02235174447,-187500.02235174447
talvez,28904.650080758343,-20933.32510391773,-18821.01819765785,37448.090308677,-187500.02235174447,-187500.02235174447,-187500.02235174447,-187500.02235174447
talvez,28138.298170363687,-20690.24988296627,-19608.716024007324,37592.9743162363,-187500.02235174447,-187500.02235174447,-187500.02235174447,-187500.02235174447
talvez,27118.008091212287,-20771.565529294676,-20143.302696144903,37503.23206224824,-187500.02235174447,-187500.02235174447,-187500.02235174447,-187500.02235174447
talvez,27849.17835583429,-21055.231518176977,-19338.416378309295,37316.371478601875,-187500.02235174447,-187500.02235174447,-187500.02235174447,-187500.02235174447
talvez,28854.559821434003,-20978.475627717453,-18800.76751718134,37399.85524414245,-187500.02235174447,-187500.02235174447,-187500.02235174447,-187500.02235174447
talvez,28344.157736797064,-20717.474307712833,-19432.740739910692,37583.81010100962,-187500.02235174447,-187500.02235174447,-187500.02235174447,-187500.02235174447
talvez,27179.073057064183,-20715.52970594522,-20159.619469597277,37532.602254462516,-187500.02235174447,-187500.02235174447,-187500.02235174447,-187500.02235174447
talvez,27612.965120430606,-21017.099442136223,-19525.76870033368,37323.25581589411,-187500.02235174447,-187500.02235174447,-187500.02235174447,-187500.02235174447
talvez,28783.145997899297,-21011.44445078903,-18793.592607211187,37373.144909518356,-187500.02235174447,-187500.02235174447,-187500.02235174447,-187500.02235174447
talvez,28559.159166712663,-20753.706485474886,-19251.490444122606,37556.988007663254,-187500.02235174447,-187500.02235174447,-187500.02235174447,-187500.02235174447
talvez,27335.02117812886,-20677.84466479357,-20105.5953032488,37565.928705445374,-187500.02235174447,-187500.02235174447,-187500.02235174447,-187500.02235174447
talvez,27433.055929309838,-20973.53589219283,-19689.80815289118,37349.29559818454,-187500.02235174447,-187500.02235174447,-187500.02235174447,-187500.02235174447
talvez,28662.938316218653,-21035.91961096759,-18833.66928501955,37353.18480171976,-187500.02235174447,-187500.02235174447,-187500.02235174447,-187500.02235174447
talvez,28712.805058098445,-20795.325433650665,-19107.16523017469,37530.009452105696,-187500.02235174447,-187500.02235174447,-187500.02235174447,-187500.02235174447
talvez,27516.383232639222,-20649.390894101965,-20013.416709115114,37596.88587151597,-187500.02235174447,-187500.02235174447,-187500.02235174447,-187500.02235174447
talvez,27276.526662889322,-20923.84796426868,-19845.957439655955,37382.75615963413,-187500.02235174447,-187500.02235174447,-187500.02235174447,-187500.02235174447
talvez,28471.808549381323,-21075.54925388685,-18932.37458853419,37315.36565010138,-187500.02235174447,-187500.02235174447,-187500.02235174447,-187500.02235174447
talvez,28820.428707650746,-20857.105655325136,-18989.013908983936,37492.86085282098,-187500.02235174447,-187500.02235174447,-187500.02235174447,-187500.02235174447
talvez,27719.560589737965,-20651.55901331413,-19902.283835683327,37605.44658964236,-187500.02235174447,-187500.02235174447,-187500.02235174447,-187500.02235174447
talvez,27138.594047855622,-20861.151321071546,-20012.455584103536,37415.903796661354,-187500.02235174447,-187500.02235174447,-187500.02235174447,-187500.02235174447
talvez,28260.897488701044,-21067.54732937185,-19057.454950506086,37306.022620919066,-187500.02235174447,-187500.02235174447,-187500.02235174447,-187500.02235174447
talvez,28891.52960676308,-20895.2824348548,-18879.132733241648,37461.72487279474,-187500.02235174447,-187500.02235174447,-187500.02235174447,-187500.02235174447
talvez,27970.77184567116,-20660.298545396156,-19728.387263821038,37601.44562738486,-187500.02235174447,-187500.02235174447,-187500.02235174447,-187500.02235174447
talvez,27123.819544770664,-20808.58001811266,-20082.193026804092,37460.31671289405,-187500.02235174447,-187500.02235174447,-187500.02235174447,-187500.02235174447
talvez,28057.206041479832,-21055.522090854894,-19176.70150717515,37310.53767329904,-187500.02235174447,-187500.02235174447,-187500.02235174447,-187500.02235174447
talvez,28915.96006345273,-20924.607923580163,-18794.44197350049,37439.84251497299,-187500.02235174447,-187500.02235174447,-187500.02235174447,-187500.02235174447
talvez,28187.807284332193,-20676.950595015358,-19562.380857751472,37596.75176104924,-187500.02235174447,-187500.02235174447,-187500.02235174447,-187500.02235174447
talvez,27114.14123942152,-20764.077694902146,-20163.151045221217,37488.99400103021,-187500.02235174447,-187500.02235174447,-187500.02235174447,-187500.02235174447
talvez,27805.078364023968,-21049.956506485523,-19373.374506637396,37300.74760922761,-187500.02235174447,-187500.02235174447,-187500.02235174447,-187500.02235174447
talvez,28874.072894343484,-20979.839084129228,-18781.030926827305,37391.652153927345,-187500.02235174447,-187500.02235174447,-187500.02235174447,-187500.02235174447
talvez,28449.38974969265,-20698.207103992358,-19363.45033209924,37589.621554568,-187500.02235174447,-187500.02235174447,-187500.02235174447,-187500.02235174447
talvez,27254.823119023218,-20697.58125514761,-20113.46311729707,37549.09784187053,-187500.02235174447,-187500.02235174447,-187500.02235174447,-187500.02235174447
talvez,27604.98554766006,-21003.62134022967,-19531.20017423632,37325.53569382855,-187500.02235174447,-187500.02235174447,-187500.02235174447,-187500.02235174447
talvez,28796.17706491674,-20978.073296317256,-18772.693726145473,37389.59579343746,-187500.02235174447,-187500.02235174447,-187500.02235174447,-187500.02235174447
talvez,28571.47497790754,-20774.337145607133,-19248.249441176587,37526.20965554829,-187500.02235174447,-187500.02235174447,-187500.02235174447,-187500.02235174447
talvez,27342.576067754755,-20687.746487587272,-20100.02971887943,37546.19211509134,-187500.02235174447,-187500.02235174447,-187500.02235174447,-187500.02235174447
talvez,27437.168650289615,-20935.359112663165,-19672.865530594056,37365.791185592556,-187500.02235174447,-187500.02235174447,-187500.02235174447,-187500.02235174447
talvez,28682.00435423903,-20997.988700626935,-18806.02017712834,37360.98556053467,-187500.02235174447,-187500.02235174447,-187500.02235174447,-187500.02235174447
talvez,28822.283902440537,-20767.49751180381,-19027.503612935976,37548.5614000036,-187500.02235174447,-187500.02235174447,-187500.02235174447,-187500.02235174447
talvez,27557.89042209273,-20689.311109699145,-19996.362328095714,37559.98314142026,-187500.02235174447,-187500.02235174447,-187500.02235174447,-187500.02235174447
talvez,27233.656017024045,-20935.87320278564,-19890.057431466274,37363.53365940257,-187500.02235174447,-187500.02235174447,-187500.02235174447,-187500.02235174447
talvez,28520.758869738445,-20994.39006976963,-18861.005468488394,37365.25474372563,-187500.02235174447,-187500.02235174447,-187500.02235174447,-187500.02235174447
talvez,28959.613020373945,-20771.476122316853,-18828.34956983919,37551.17655410487,-187500.02235174447,-187500.02235174447,-187500.02235174447,-187500.02235174447
talvez,27775.954040998706,-20671.541472857174,-19874.23239639192,37557.09976638553,-187500.02235174447,-187500.02235174447,-187500.02235174447,-187500.02235174447
talvez,27154.307324207704,-20854.959887857425,-20054.25334623496,37395.921337118314,-187500.02235174447,-187500.02235174447,-187500.02235174447,-187500.02235174447
talvez,28225.224104550376,-21107.914579858134,-19089.283834610444,37253.49602144909,-187500.02235174447,-187500.02235174447,-187500.02235174447,-187500.02235174447
talvez,28858.00199008012,-20980.286119018332,-18920.2152395505,37362.88545881337,-187500.02235174447,-187500.02235174447,-187500.02235174447,-187500.02235174447
talvez,28039.659922082417,-20628.849640947537,-19679.36988823055,37599.38926689497,-187500.02235174447,-187500.02235174447,-187500.02235174447,-187500.02235174447
talvez,27246.172993919015,-20695.99428129128,-19952.776426407865,37538.14548708743,-187500.02235174447,-187500.02235174447,-187500.02235174447,-187500.02235174447
talvez,28065.096207272556,-21051.92345999759,-19184.435210756685,37295.07026613597,-187500.02235174447,-187500.02235174447,-187500.02235174447,-187500.02235174447
talvez,28912.272025617604,-20948.9936767809,-18817.30780807827,37399.609374953434,-187500.02235174447,-187500.02235174447,-187500.02235174447,-187500.02235174447
talvez,28335.79818437078,-20621.406510043922,-19401.872980817912,37658.17435481243,-187500.02235174447,-187500.02235174447,-187500.02235174447,-187500.02235174447
talvez,27188.729010668878,-20747.76092144977,-20069.139608042195,37495.87833832244,-187500.02235174447,-187500.02235174447,-187500.02235174447,-187500.02235174447
talvez,27673.270126971023,-21162.542243306907,-19531.602505636514,37164.64783723925,-187500.02235174447,-187500.02235174447,-187500.02235174447,-187500.02235174447
talvez,28937.5294968521,-20926.37371139213,-18686.32658557017,37428.152552622865,-187500.02235174447,-187500.02235174447,-187500.02235174447,-187500.02235174447
talvez,28660.278458628472,-20544.516509117664,-19123.817279793893,37736.96425401739,-187500.02235174447,-187500.02235174447,-187500.02235174447,-187500.02235174447
talvez,27398.94716727104,-20602.541637723643,-19988.807438469823,37640.471773203826,-187500.02235174447,-187500.02235174447,-187500.02235174447,-187500.02235174447
talvez,27600.202274346626,-20969.043191557314,-19560.816235639602,37327.43559210725,-187500.02235174447,-187500.02235174447,-187500.02235174447,-187500.02235174447
talvez,28809.968091245664,-20994.30066279181,-18769.18450226599,37369.1215955164,-187500.02235174447,-187500.02235174447,-187500.02235174447,-187500.02235174447
talvez,28755.295724307984,-20672.61435659103,-19101.890218483237,37622.568025895125,-187500.02235174447,-187500.02235174447,-187500.02235174447,-187500.02235174447
talvez,27562.986619828538,-20509.53602904511,-19898.953425759486,37707.32584086965,-187500.02235174447,-187500.02235174447,-187500.02235174447,-187500.02235174447
talvez,27563.008971572996,-20770.671459516463,-19531.446043425327,37522.298100268614,-187500.02235174447,-187500.02235174447,-187500.02235174447,-187500.02235174447
talvez,28854.157490033806,-20835.245649247845,-18592.717479791343,37550.058966882105,-187500.02235174447,-187500.02235174447,-187500.02235174447,-187500.02235174447
talvez,29069.89652751643,-20560.855634314496,-18722.290542398758,37768.65902765501,-187500.02235174447,-187500.02235174447,-187500.02235174447,-187500.02235174447
talvez,27880.42609458281,-20373.03392565655,-19633.0347219747,37829.96986269592,-187500.02235174447,-187500.02235174447,-187500.02235174447,-187500.02235174447
talvez,27525.63685484372,-20613.762213440208,-19577.20006432534,37621.87512181701,-187500.02235174447,-187500.02235174447,-187500.02235174447,-187500.02235174447
talvez,28697.807037568935,-20814.50323039332,-18643.41123621598,37534.72567018577,-187500.02235174447,-187500.02235174447,-187500.02235174447,-187500.02235174447
talvez,29169.83117697611,-20619.68542572086,-18607.44727938739,37710.65625079349,-187500.02235174447,-187500.02235174447,-187500.02235174447,-187500.02235174447
talvez,28145.160155911468,-20376.07376290247,-19486.94372021481,37874.00279927287,-187500.02235174447,-187500.02235174447,-187500.02235174447,-187500.02235174447
talvez,27468.170519849125,-20548.78569230863,-19676.955899829376,37713.96430897288,-187500.02235174447,-187500.02235174447,-187500.02235174447,-187500.02235174447
talvez,28554.264134676952,-20754.57820350864,-18717.350806874136,37601.4232756404,-187500.02235174447,-187500.02235174447,-187500.02235174447,-187500.02235174447
talvez,29268.40237002401,-20606.967283125792,-18469.380553886956,37747.58133263366,-187500.02235174447,-187500.02235174447,-187500.02235174447,-187500.02235174447
talvez,28389.822350719256,-20346.92708813275,-19289.354299229897,37905.94344209951,-187500.02235174447,-187500.02235174447,-187500.02235174447,-187500.02235174447
talvez,27462.135548846192,-20468.341764013978,-19723.559287018692,37765.127452031076,-187500.02235174447,-187500.02235174447,-187500.02235174447,-187500.02235174447
talvez,28338.860373361156,-20693.826162079116,-18855.529291096842,37614.14141823547,-187500.02235174447,-187500.02235174447,-187500.02235174447,-187500.02235174447
talvez,29273.431512526455,-20663.919527997914,-18382.74519237819,37751.85051582462,-187500.02235174447,-187500.02235174447,-187500.02235174447,-187500.02235174447
talvez,28626.124993100762,-20445.52063292511,-19086.06518340888,37917.74516317191,-187500.02235174447,-187500.02235174447,-187500.02235174447,-187500.02235174447
talvez,27539.87491606175,-20440.04445553356,-19740.457205826904,37740.652291852515,-187500.02235174447,-187500.02235174447,-187500.02235174447,-187500.02235174447
talvez,28136.197106384887,-20687.14299048698,-18994.154810208656,37515.7043356543,-187500.02235174447,-187500.02235174447,-187500.02235174447,-187500.02235174447
talvez,29228.616264893564,-20735.86979339955,-18328.743377774164,37616.08602000309,-187500.02235174447,-187500.02235174447,-187500.02235174447,-187500.02235174447
talvez,28861.444158726237,-20465.34663025697,-18865.453465635,37761.30530372921,-187500.02235174447,-187500.02235174447,-187500.02235174447,-187500.02235174447
talvez,27601.74454471404,-20465.39133374588,-19714.976217147854,37703.81661699017,-187500.02235174447,-187500.02235174447,-187500.02235174447,-187500.02235174447
talvez,27773.182424686245,-20796.577131340164,-19295.38927023283,37480.96972477075,-187500.02235174447,-187500.02235174447,-187500.02235174447,-187500.02235174447
talvez,28979.93075608382,-20795.548951095217,-18497.968435045295,37545.47685926877,-187500.02235174447,-187500.02235174447,-187500.02235174447,-187500.02235174447
talvez,28922.15149666685,-20565.705962861295,-18821.420529058043,37598.96458375032,-187500.02235174447,-187500.02235174447,-187500.02235174447,-187500.02235174447
talvez,27753.557593054487,-20428.220382716703,-19658.001620531275,37668.36675028405,-187500.02235174447,-187500.02235174447,-187500.02235174447,-187500.02235174447
talvez,27634.13222242978,-20771.297308361212,-19413.071204790023,37415.635575727894,-187500.02235174447,-187500.02235174447,-187500.02235174447,-187500.02235174447
talvez,28806.458867366182,-20890.47680979691,-18572.779723737207,37392.859148127936,-187500.02235174447,-187500.02235174447,-187500.02235174447,-187500.02235174447
talvez,28997.45452373678,-20635.55516428413,-18757.203967237947,37628.7818108537,-187500.02235174447,-187500.02235174447,-187500.02235174447,-187500.02235174447
talvez,27821.193971776247,-20477.371868773924,-19693.71970817086,37660.43188100241,-187500.02235174447,-187500.02235174447,-187500.02235174447,-187500.02235174447
talvez,27443.695359670564,-20663.159568686435,-19636.02985573171,37428.845456700976,-187500.02235174447,-187500.02235174447,-187500.02235174447,-187500.02235174447
talvez,28638.217286851086,-20869.84614966466,-18650.11675955257,37358.05748201102,-187500.02235174447,-187500.02235174447,-187500.02235174447,-187500.02235174447
talvez,29119.651510673943,-20683.030269507202,-18584.469686087334,37517.626585677455,-187500.02235174447,-187500.02235174447,-187500.02235174447,-187500.02235174447
talvez,28096.79098091018,-20483.29508105458,-19492.10697318399,37673.61941023105,-187500.02235174447,-187500.02235174447,-187500.02235174447,-187500.02235174447
talvez,27379.858777506208,-20695.882522569005,-19752.013057710297,37471.44788163279,-187500.02235174447,-187500.02235174447,-187500.02235174447,-187500.02235174447
talvez,28383.832083205234,-20905.60894079315,-18837.290267621313,37280.496928751105,-187500.02235174447,-187500.02235174447,-187500.02235174447,-187500.02235174447
talvez,29129.754499167742,-20731.33238927512,-18569.695183002375,37421.73760196419,-187500.02235174447,-187500.02235174447,-187500.02235174447,-187500.02235174447
talvez,28312.239445714888,-20483.272729310123,-19400.107193005944,37611.794485067665,-187500.02235174447,-187500.02235174447,-187500.02235174447,-187500.02235174447
talvez,27378.003582716417,-20630.056635148125,-19819.73884340988,37584.83828125457,-187500.02235174447,-187500.02235174447,-187500.02235174447,-187500.02235174447
talvez,28206.068659552177,-20873.75770494434,-18956.939155690572,37405.62199421191,-187500.02235174447,-187500.02235174447,-187500.02235174447,-187500.02235174447
talvez,29139.544563239167,-20814.2126577154,-18513.011159063717,37420.12827636341,-187500.02235174447,-187500.02235174447,-187500.02235174447,-187500.02235174447
talvez,28575.386533187215,-20510.675968012332,-19153.656858641727,37560.78780422066,-187500.02235174447,-187500.02235174447,-187500.02235174447,-187500.02235174447
talvez,27442.466013725523,-20502.316415586047,-19807.423032215003,37525.96378635929,-187500.02235174447,-187500.02235174447,-187500.02235174447,-187500.02235174447
talvez,27977.38796202993,-20804.400241899522,-19162.64225991276,37338.34324340144,-187500.02235174447,-187500.02235174447,-187500.02235174447,-187500.02235174447
talvez,29081.273565444182,-20822.885134564058,-18524.231734780282,37378.03994155407,-187500.02235174447,-187500.02235174447,-187500.02235174447,-187500.02235174447
talvez,28786.051724678484,-20566.30945996159,-19009.689272605094,37568.5662112911,-187500.02235174447,-187500.02235174447,-187500.02235174447,-187500.02235174447
talvez,27597.005974889515,-20503.322244086536,-19812.005139828343,37582.13372017547,-187500.02235174447,-187500.02235174447,-187500.02235174447,-187500.02235174447
talvez,27782.771323057572,-20813.07271874818,-19331.934372417258,37382.64440091186,-187500.02235174447,-187500.02235174447,-187500.02235174447,-187500.02235174447
talvez,29014.26303556717,-20837.771396371296,-18489.89945529693,37412.0816483595,-187500.02235174447,-187500.02235174447,-187500.02235174447,-187500.02235174447
talvez,28968.061979778053,-20609.805954671618,-18864.96172725698,37571.807214237124,-187500.02235174447,-187500.02235174447,-187500.02235174447,-187500.02235174447
talvez,27749.713093008173,-20452.539080684077,-19756.63986881255,37619.86346481603,-187500.02235174447,-187500.02235174447,-187500.02235174447,-187500.02235174447
talvez,27638.244943409558,-20727.711406673363,-19448.386961029406,37423.48103803171,-187500.02235174447,-187500.02235174447,-187500.02235174447,-187500.02235174447
talvez,28874.85520539942,-20835.871498092594,-18539.252107054246,37382.420883467305,-187500.02235174447,-187500.02235174447,-187500.02235174447,-187500.02235174447
talvez,29125.597074699053,-20602.27341679018,-18680.515132011788,37551.62358899398,-187500.02235174447,-187500.02235174447,-187500.02235174447,-187500.02235174447
talvez,27964.04397059011,-20443.3748654574,-19615.935637466388,37639.331834236604,-187500.02235174447,-187500.02235174447,-187500.02235174447,-187500.02235174447
talvez,27498.278319630426,-20675.251862436755,-19589.11354412002,37432.086459647,-187500.02235174447,-187500.02235174447,-187500.02235174447,-187500.02235174447
talvez,28678.15985419272,-20835.670332392496,-18635.945753567907,37373.614296151914,-187500.02235174447,-187500.02235174447,-187500.02235174447,-187500.02235174447
talvez,29122.490182219768,-20737.970857378346,-18603.714538063352,37455.66755004734,-187500.02235174447,-187500.02235174447,-187500.02235174447,-187500.02235174447
talvez,28167.131920711032,-20503.3892993199,-19450.62213547494,37572.09778691504,-187500.02235174447,-187500.02235174447,-187500.02235174447,-187500.02235174447
talvez,27529.011968256473,-20502.78580221961,-19630.97836148481,37518.744172900224,-187500.02235174447,-187500.02235174447,-187500.02235174447,-187500.02235174447
talvez,28660.032589439463,-20594.472657975275,-18541.66609545542,37525.78497240364,-187500.02235174447,-187500.02235174447,-187500.02235174447,-187500.02235174447
talvez,29141.310351051136,-20764.368267580066,-18578.278252873213,37408.013630868634,-187500.02235174447,-187500.02235174447,-187500.02235174447,-187500.02235174447
talvez,28256.427139809985,-20627.68735023586,-19450.286859308108,37476.454672390784,-187500.02235174447,-187500.02235174447,-187500.02235174447,-187500.02235174447
talvez,27260.88044177061,-20673.262557180235,-20063.50696843946,37380.58804042197,-187500.02235174447,-187500.02235174447,-187500.02235174447,-187500.02235174447
talvez,28001.08081115256,-20964.57284266625,-19220.57798154092,37180.048189168956,-187500.02235174447,-187500.02235174447,-187500.02235174447,-187500.02235174447
talvez,29143.791394685675,-20744.989305137315,-18467.637117819442,37421.31291881954,-187500.02235174447,-187500.02235174447,-187500.02235174447,-187500.02235174447
talvez,28900.939691178763,-20197.885656104765,-18846.63329680363,37855.83083103071,-187500.02235174447,-187500.02235174447,-187500.02235174447,-187500.02235174447
talvez,27469.891604172186,-20470.375772759413,-19930.201164508006,37549.99191164874,-187500.02235174447,-187500.02235174447,-187500.02235174447,-187500.02235174447
talvez,27805.145419257336,-20916.226019409423,-19371.005221725132,37221.37656466682,-187500.02235174447,-187500.02235174447,-187500.02235174447,-187500.02235174447
talvez,29096.85273132953,-20781.82497999966,-18515.00046432024,37417.35666005095,-187500.02235174447,-187500.02235174447,-187500.02235174447,-187500.02235174447
talvez,28865.892155872843,-20488.81596193504,-18930.653504211128,37638.59422666958,-187500.02235174447,-187500.02235174447,-187500.02235174447,-187500.02235174447
talvez,27764.24172690412,-20316.662826140266,-19655.118245496542,37747.53662914474,-187500.02235174447,-187500.02235174447,-187500.02235174447,-187500.02235174447
talvez,28009.663881023396,-20510.050119167583,-19149.70059987314,37605.33483092008,-187500.02235174447,-187500.02235174447,-187500.02235174447,-187500.02235174447
talvez,29125.306502021136,-20645.389931844467,-18432.388416813425,37527.72957417126,-187500.02235174447,-187500.02235174447,-187500.02235174447,-187500.02235174447
talvez,29139.164583583428,-20447.532289926086,-18716.501440584834,37674.424073031434,-187500.02235174447,-187500.02235174447,-187500.02235174447,-187500.02235174447
talvez,27999.896168696425,-20239.526956025,-19566.404171753427,37791.86013839962,-187500.02235174447,-187500.02235174447,-187500.02235174447,-187500.02235174447
talvez,27857.739073960674,-20426.968685027205,-19281.642947392815,37663.56112522616,-187500.02235174447,-187500.02235174447,-187500.02235174447,-187500.02235174447
talvez,29132.57081896911,-20511.34652034599,-18269.801827645522,37663.114090337054,-187500.02235174447,-187500.02235174447,-187500.02235174447,-187500.02235174447
talvez,29476.161834736093,-20262.839825491887,-18369.40120093837,37851.06990946173,-187500.02235174447,-187500.02235174447,-187500.02235174447,-187500.02235174447
talvez,28322.968283053433,-20105.908227671174,-19336.29296258604,37917.81221840528,-187500.02235174447,-187500.02235174447,-187500.02235174447,-187500.02235174447
talvez,27753.4011308433,-20386.869655474384,-19434.975914356222,37698.18397738743,-187500.02235174447,-187500.02235174447,-187500.02235174447,-187500.02235174447
talvez,28981.67419215133,-20507.05498541057,-18380.420610954836,37677.97800039983,-187500.02235174447,-187500.02235174447,-187500.02235174447,-187500.02235174447
talvez,29609.221769478536,-20266.304345882458,-18205.875838503343,37884.91045056706,-187500.02235174447,-187500.02235174447,-187500.02235174447,-187500.02235174447
talvez,28634.842173438334,-20046.519642653424,-19089.21677937708,38019.04326904336,-187500.02235174447,-187500.02235174447,-187500.02235174447,-187500.02235174447
talvez,27804.139590756848,-20232.396749543757,-19430.863193376445,37853.752118796365,-187500.02235174447,-187500.02235174447,-187500.02235174447,-187500.02235174447
talvez,28764.974029657133,-20464.564319201032,-18532.792452906662,37713.83019850614,-187500.02235174447,-187500.02235174447,-187500.02235174447,-187500.02235174447
talvez,29611.076964268326,-20328.621009423856,-18158.02075362453,37853.193325184984,-187500.02235174447,-187500.02235174447,-187500.02235174447,-187500.02235174447
talvez,28873.223528054183,-20083.511779726956,-18923.255076796424,38002.033591512874,-187500.02235174447,-187500.02235174447,-187500.02235174447,-187500.02235174447
talvez,27838.494221984653,-20163.41926615468,-19483.47919982424,37887.90558432407,-187500.02235174447,-187500.02235174447,-187500.02235174447,-187500.02235174447
talvez,28549.41380613015,-20437.921039810306,-18700.676405510476,37716.6018148186,-187500.02235174447,-187500.02235174447,-187500.02235174447,-187500.02235174447
talvez,29545.2734285919,-20390.110658420403,-18177.98086142312,37792.642449455554,-187500.02235174447,-187500.02235174447,-187500.02235174447,-187500.02235174447
talvez,29041.08512891354,-20153.852719527807,-18806.176639339523,37956.07840491276,-187500.02235174447,-187500.02235174447,-187500.02235174447,-187500.02235174447
talvez,27858.2755158276,-20168.202539468115,-19548.746293633736,37891.861843092665,-187500.02235174447,-187500.02235174447,-187500.02235174447,-187500.02235174447
talvez,28260.02577066729,-20481.39518277588,-18933.715693201506,37672.32300905264,-187500.02235174447,-187500.02235174447,-187500.02235174447,-187500.02235174447
talvez,29462.817843296274,-20443.821900346506,-18164.972146150132,37751.85051582462,-187500.02235174447,-187500.02235174447,-187500.02235174447,-187500.02235174447
talvez,29188.941918485394,-20247.19360437317,-18676.782390687753,37874.3380754397,-187500.02235174447,-187500.02235174447,-187500.02235174447,-187500.02235174447
talvez,27868.356152576944,-20269.590052317388,-19621.054186946654,37779.499623715834,-187500.02235174447,-187500.02235174447,-187500.02235174447,-187500.02235174447
talvez,27964.04397059011,-20547.846919041505,-19215.28061810501,37580.23382189677,-187500.02235174447,-187500.02235174447,-187500.02235174447,-187500.02235174447
talvez,29171.39579908798,-20621.093585621547,-18388.86957035894,37583.29601088715,-187500.02235174447,-187500.02235174447,-187500.02235174447,-187500.02235174447
talvez,29238.719253387364,-20390.80356249852,-18642.628925160043,37752.945751302934,-187500.02235174447,-187500.02235174447,-187500.02235174447,-187500.02235174447
talvez,28036.485974369763,-20257.318944611427,-19546.175843021374,37802.365458293614,-187500.02235174447,-187500.02235174447,-187500.02235174447,-187500.02235174447
talvez,27785.2076632032,-20519.549610561087,-19398.54257089407,37590.58267957958,-187500.02235174447,-187500.02235174447,-187500.02235174447,-187500.02235174447
talvez,29002.12603832794,-20637.388007329468,-18457.89175723693,37551.28831282715,-187500.02235174447,-187500.02235174447,-187500.02235174447,-187500.02235174447
talvez,29322.605350328133,-20452.38261847289,-18534.021798851707,37693.82538721865,-187500.02235174447,-187500.02235174447,-187500.02235174447,-187500.02235174447
talvez,28175.647935348505,-20308.72795685863,-19489.514170827173,37758.93601881695,-187500.02235174447,-187500.02235174447,-187500.02235174447,-187500.02235174447
talvez,27597.22949233407,-20533.899430501395,-19602.971625682312,37574.93645846086,-187500.02235174447,-187500.02235174447,-187500.02235174447,-187500.02235174447
$SILENCE,28731.17819204071,-20719.597723436087,-18630.089596520615,37483.18254747183,-187500.02235174447,-187500.02235174447,-187500.02235174447,-187500.02235174447
$SILENCE,29345.33707443918,-20556.094712745515,-18466.117199196484,37626.43487768589,-187500.02235174447,-187500.02235174447,-187500.02235174447,-187500.02235174447
$SILENCE,28419.036080722344,-20319.568552919456,-19335.957686419213,37764.211030508406,-187500.02235174447,-187500.02235174447,-187500.02235174447,-187500.02235174447
$SILENCE,27577.64936419122,-20459.222252276213,-19686.76831564526,37623.37268869551,-187500.02235174447,-187500.02235174447,-187500.02235174447,-187500.02235174447
$SILENCE,28498.720049705513,-20717.876639113027,-18786.4847524744,37467.60338158648,-187500.02235174447,-187500.02235174447,-187500.02235174447,-187500.02235174447
$SILENCE,29333.825926044698,-20608.12957383747,-18414.685835204822,37584.14537717645,-187500.02235174447,-187500.02235174447,-187500.02235174447,-187500.02235174447
$SILENCE,28616.133763329242,-20359.958155150194,-19183.898768889758,37739.98173951885,-187500.02235174447,-187500.02235174447,-187500.02235174447,-187500.02235174447
$SILENCE,27564.372427984767,-20426.812222816017,-19774.387153910062,37648.45134597437,-187500.02235174447,-187500.02235174447,-187500.02235174447,-187500.02235174447
$SILENCE,28241.630284980572,-20711.931075087916,-18984.163580437136,37468.340989153505,-187500.02235174447,-187500.02235174447,-187500.02235174447,-187500.02235174447
$SILENCE,29260.355742020103,-20658.912737239927,-18409.991968869206,37543.44285052334,-187500.02235174447,-187500.02235174447,-187500.02235174447,-187500.02235174447
$SILENCE,28810.07984996794,-20400.303053892025,-19016.350092452776,37719.30637589769,-187500.02235174447,-187500.02235174447,-187500.02235174447,-187500.02235174447
$SILENCE,27620.18473388967,-20399.073707946984,-19799.44345944446,37672.12184335254,-187500.02235174447,-187500.02235174447,-187500.02235174447,-187500.02235174447
$SILENCE,27984.62992723345,-20712.400461721478,-19196.840428929383,37453.678244790826,-187500.02235174447,-187500.02235174447,-187500.02235174447,-187500.02235174447
$SILENCE,29155.123729124516,-20733.656970698474,-18425.638189987923,37492.59263188751,-187500.02235174447,-187500.02235174447,-187500.02235174447,-187500.02235174447
$SILENCE,28964.172776242827,-20499.902427184872,-18875.534102384343,37653.77106115473,-187500.02235174447,-187500.02235174447,-187500.02235174447,-187500.02235174447
$SILENCE,27726.132002607825,-20405.823934772485,-19775.05770624372,37679.25204983378,-187500.02235174447,-187500.02235174447,-187500.02235174447,-187500.02235174447
$SILENCE,27739.721863236653,-20682.784400318196,-19413.071204790023,37468.69861706479,-187500.02235174447,-187500.02235174447,-187500.02235174447,-187500.02235174447
$SILENCE,28963.099892508973,-20760.389657067022,-18515.983941076272,37464.630599573924,-187500.02235174447,-187500.02235174447,-187500.02235174447,-187500.02235174447
$SILENCE,29086.727391091277,-20534.458224112775,-18751.303106701747,37631.64283414398,-187500.02235174447,-187500.02235174447,-187500.02235174447,-187500.02235174447
$SILENCE,27878.95087944876,-20385.99793744063,-19696.62543495005,37694.786512230225,-187500.02235174447,-187500.02235174447,-187500.02235174447,-187500.02235174447
$SILENCE,27570.07212282087,-20644.94289695536,-19579.345831793053,37490.446864419806,-187500.02235174447,-187500.02235174447,-187500.02235174447,-187500.02235174447
$SILENCE,28782.274279865538,-20792.419706871475,-18611.023558500237,37436.78032598261,-187500.02235174447,-187500.02235174447,-187500.02235174447,-187500.02235174447
$SILENCE,29161.069293149627,-20600.686442933853,-18635.565773912167,37592.28141215818,-187500.02235174447,-187500.02235174447,-187500.02235174447,-187500.02235174447
$SILENCE,28085.302184260156,-20399.677205047275,-19558.268136771698,37694.0489046632,-187500.02235174447,-187500.02235174447,-187500.02235174447,-187500.02235174447
$SILENCE,27476.619479253233,-20592.908035863406,-19708.650673467004,37518.92298685587,-187500.02235174447,-187500.02235174447,-187500.02235174447,-187500.02235174447
$SILENCE,28566.71405633856,-20796.845352273627,-18747.279792699792,37414.27211931612,-187500.02235174447,-187500.02235174447,-187500.02235174447,-187500.02235174447
$SILENCE,29201.280081424724,-20664.120693698012,-18562.922604432417,37536.82673416457,-187500.02235174447,-187500.02235174447,-187500.02235174447,-187500.02235174447
$SILENCE,28294.73802980638,-20447.152310270347,-19428.449204975273,37662.28707579221,-187500.02235174447,-187500.02235174447,-187500.02235174447,-187500.02235174447
$SILENCE,27402.590501617255,-20569.997497796714,-19829.528907481304,37536.916141142385,-187500.02235174447,-187500.02235174447,-187500.02235174447,-187500.02235174447
$SILENCE,28287.36195413613,-20826.014378787804,-18940.84589968275,37377.50349968714,-187500.02235174447,-187500.02235174447,-187500.02235174447,-187500.02235174447
$SILENCE,29178.86128173605,-20719.038929824703,-18527.070406326104,37490.73743709773,-187500.02235174447,-187500.02235174447,-187500.02235174447,-187500.02235174447
$SILENCE,28493.10976184723,-20474.667307694832,-19274.602147889396,37641.16467728194,-187500.02235174447,-187500.02235174447,-187500.02235174447,-187500.02235174447
$SILENCE,27437.57098168981,-20524.243476896703,-19865.582271287713,37571.181365392375,-187500.02235174447,-187500.02235174447,-187500.02235174447,-187500.02235174447
$SILENCE,28078.686067901384,-20807.685948334452,-19108.081651697357,37385.997162580155,-187500.02235174447,-187500.02235174447,-187500.02235174447,-187500.02235174447
$SILENCE,29115.807010627632,-20764.994116424816,-18523.33766500207,37451.86775348995,-187500.02235174447,-187500.02235174447,-187500.02235174447,-187500.02235174447
$SILENCE,28697.404706168738,-20514.29695061409,-19106.137049929745,37622.29980496166,-187500.02235174447,-187500.02235174447,-187500.02235174447,-187500.02235174447
$SILENCE,27498.457133586067,-20490.090011368993,-19875.238224892408,37599.836301784075,-187500.02235174447,-187500.02235174447,-187500.02235174447,-187500.02235174447
$SILENCE,27816.097774040434,-20795.97363423987,-19319.909133900303,37383.046732312054,-187500.02235174447,-187500.02235174447,-187500.02235174447,-187500.02235174447
$SILENCE,29009.725631442743,-20815.442003660442,-18550.025647881706,37416.01555538363,-187500.02235174447,-187500.02235174447,-187500.02235174447,-187500.02235174447
$SILENCE,28902.43725805727,-20562.10733200399,-18927.83718440976,37607.54765362116,-187500.02235174447,-187500.02235174447,-187500.02235174447,-187500.02235174447
$SILENCE,27677.986345051093,-20453.299039995556,-19801.365709467616,37634.816781856636,-187500.02235174447,-187500.02235174447,-187500.02235174447,-187500.02235174447
$SILENCE,27627.31494037091,-20747.872680172048,-19492.777525517646,37407.11956109042,-187500.02235174447,-187500.02235174447,-187500.02235174447,-187500.02235174447
$SILENCE,28839.85237358241,-20847.919088354003,-18615.11392773556,37382.64440091186,-187500.02235174447,-187500.02235174447,-187500.02235174447,-187500.02235174447
$SILENCE,29003.48949473971,-20618.45607977582,-18805.95312189497,37551.9141616719,-187500.02235174447,-187500.02235174447,-187500.02235174447,-187500.02235174447
$SILENCE,27834.202687049234,-20486.08904911149,-19734.154013890507,37607.79352281016,-187500.02235174447,-187500.02235174447,-187500.02235174447,-187500.02235174447
$SILENCE,27480.64279325519,-20723.06224382666,-19655.632335619015,37420.62001474143,-187500.02235174447,-187500.02235174447,-187500.02235174447,-187500.02235174447
$SILENCE,28640.34070257434,-20877.915129413024,-18728.32551340169,37355.509383143115,-187500.02235174447,-187500.02235174447,-187500.02235174447,-187500.02235174447
$SILENCE,29062.52045184618,-20692.4850574118,-18718.960132474916,37509.42349546236,-187500.02235174447,-187500.02235174447,-187500.02235174447,-187500.02235174447
$SILENCE,28032.55206734563,-20474.734362928197,-19603.30690184914,37634.92854057891,-187500.02235174447,-187500.02235174447,-187500.02235174447,-187500.02235174447
$SILENCE,27380.28346065086,-20662.310202397133,-19784.44543891495,37470.48675662121,-187500.02235174447,-187500.02235174447,-187500.02235174447,-187500.02235174447
$SILENCE,28430.167249461087,-20889.13570512959,-18854.612869574175,37347.03807199455,-187500.02235174447,-187500.02235174447,-187500.02235174447,-187500.02235174447
$SILENCE,29121.841981630565,-20736.965028877858,-18617.997302770294,37482.73551258272,-187500.02235174447,-187500.02235174447,-187500.02235174447,-187500.02235174447
$SILENCE,28268.83235798268,-20502.29406384159,-19438.328676024517,37616.5777583811,-187500.02235174447,-187500.02235174447,-187500.02235174447,-187500.02235174447
$SILENCE,27352.03085565935,-20613.60575122902,-19874.277099880826,37484.0989689945,-187500.02235174447,-187500.02235174447,-187500.02235174447,-187500.02235174447
$SILENCE,28206.046307807723,-20882.497237026364,-19010.76215633895,37320.685365281744,-187500.02235174447,-187500.02235174447,-187500.02235174447,-187500.02235174447
$SILENCE,29143.76904294122,-20789.82690451466,-18550.830310682097,37434.50044804817,-187500.02235174447,-187500.02235174447,-187500.02235174447,-187500.02235174447
$SILENCE,28502.96688115202,-20525.316360630557,-19266.80138907449,37602.58556635208,-187500.02235174447,-187500.02235174447,-187500.02235174447,-187500.02235174447
$SILENCE,27378.383562372157,-20568.477579173756,-19913.727928844444,37526.433172992845,-187500.02235174447,-187500.02235174447,-187500.02235174447,-187500.02235174447
$SILENCE,27936.417214443354,-20870.762571187326,-19204.99881565557,37321.66884203778,-187500.02235174447,-187500.02235174447,-187500.02235174447,-187500.02235174447
$SILENCE,29040.12400390196,-20819.97940778487,-18559.458084041846,37402.425694754806,-187500.02235174447,-187500.02235174447,-187500.02235174447,-187500.02235174447
$SILENCE,28694.409572411725,-20565.08011401655,-19097.68809052564,37581.530223075184,-187500.02235174447,-187500.02235174447,-187500.02235174447,-187500.02235174447
$SILENCE,27478.13939787619,-20531.999532222693,-19902.485001383426,37551.98121690527,-187500.02235174447,-187500.02235174447,-187500.02235174447,-187500.02235174447
$SILENCE,27718.4430025152,-20833.591620158153,-19389.959501023233,37333.38115613236,-187500.02235174447,-187500.02235174447,-187500.02235174447,-187500.02235174447
$SILENCE,28914.48484831868,-20874.98705088938,-18607.737852065307,37346.94866501673,-187500.02235174447,-187500.02235174447,-187500.02235174447,-187500.02235174447
$SILENCE,28835.42672818026,-20626.435652546366,-18969.23261514099,37526.857856137496,-187500.02235174447,-187500.02235174447,-187500.02235174447,-187500.02235174447
$SILENCE,27623.671606024698,-20524.623456552443,-19855.769855471834,37560.63134200947,-187500.02235174447,-187500.02235174447,-187500.02235174447,-187500.02235174447
$SILENCE,27510.504723847476,-20817.78893682825,-19594.410907555928,37323.52403682757,-187500.02235174447,-187500.02235174447,-187500.02235174447,-187500.02235174447
$SILENCE,28767.276259336028,-20892.42141156452,-18662.857253892096,37327.882626996354,-187500.02235174447,-187500.02235174447,-187500.02235174447,-187500.02235174447
$SILENCE,28997.342765014502,-20655.157644171435,-18802.44389801549,37517.648937421916,-187500.02235174447,-187500.02235174447,-187500.02235174447,-187500.02235174447
$SILENCE,27825.418451478297,-20496.929645172317,-19737.86440347009,37582.31253413112,-187500.02235174447,-187500.02235174447,-187500.02235174447,-187500.02235174447
$SILENCE,27421.768298359908,-20733.52286023174,-19696.55837971668,37397.84358714147,-187500.02235174447,-187500.02235174447,-187500.02235174447,-187500.02235174447
$SILENCE,28569.329210439828,-20914.05790019726,-18762.724848118407,37308.10133315341,-187500.02235174447,-187500.02235174447,-187500.02235174447,-187500.02235174447
$SILENCE,29054.09384418653,-20715.775575134227,-18703.202152633923,37476.454672390784,-187500.02235174447,-187500.02235174447,-187500.02235174447,-187500.02235174447
$SILENCE,28046.588962863563,-20498.024880650628,-19588.577102253093,37600.86448202902,-187500.02235174447,-187500.02235174447,-187500.02235174447,-187500.02235174447
$SILENCE,27339.55858225329,-20678.738734571783,-19823.49393647837,37437.40617482736,-187500.02235174447,-187500.02235174447,-187500.02235174447,-187500.02235174447
$SILENCE,28366.95651614148,-20889.202760362954,-18882.664308865584,37317.980804202656,-187500.02235174447,-187500.02235174447,-187500.02235174447,-187500.02235174447
$SILENCE,29102.32890872108,-20760.747284978304,-18614.35396842408,37437.093250404985,-187500.02235174447,-187500.02235174447,-187500.02235174447,-187500.02235174447
$SILENCE,28264.853747469635,-20542.728369561242,-19441.413216759353,37564.85582171152,-187500.02235174447,-187500.02235174447,-187500.02235174447,-187500.02235174447
$SILENCE,27307.707346404477,-20639.64553351945,-19916.65600736809,37455.51108783616,-187500.02235174447,-187500.02235174447,-187500.02235174447,-187500.02235174447
$SILENCE,28112.370146795532,-20900.959777946446,-19065.188654087622,37298.1548068708,-187500.02235174447,-187500.02235174447,-187500.02235174447,-187500.02235174447
$SILENCE,29064.062722213595,-20815.79963157173,-18580.15579940746,37406.85134015696,-187500.02235174447,-187500.02235174447,-187500.02235174447,-187500.02235174447
$SILENCE,28485.197244310053,-20558.843977313518,-19265.236766962622,37571.22606888128,-187500.02235174447,-187500.02235174447,-187500.02235174447,-187500.02235174447
$SILENCE,27364.816053487786,-20580.525169435165,-19935.52087968837,37506.093085538516,-187500.02235174447,-187500.02235174447,-187500.02235174447,-187500.02235174447
$SILENCE,27880.917832960826,-20876.574024745707,-19249.925822010737,37299.22769060465,-187500.02235174447,-187500.02235174447,-187500.02235174447,-187500.02235174447
$SILENCE,29015.805305934588,-20852.210623289422,-18561.469741042823,37374.664828141315,-187500.02235174447,-187500.02235174447,-187500.02235174447,-187500.02235174447
$SILENCE,28710.234607486083,-20596.976053354272,-19080.365488572777,37554.819888451086,-187500.02235174447,-187500.02235174447,-187500.02235174447,-187500.02235174447
$SILENCE,27501.005232453972,-20536.4475293693,-19898.84166703721,37553.076452383575,-187500.02235174447,-187500.02235174447,-187500.02235174447,-187500.02235174447
$SILENCE,27719.694700204695,-20807.59654135663,-19386.182056210288,37365.88059257038,-187500.02235174447,-187500.02235174447,-187500.02235174447,-187500.02235174447
$SILENCE,28908.38282208238,-20871.589585732174,-18592.650424557974,37359.73386284517,-187500.02235174447,-187500.02235174447,-187500.02235174447,-187500.02235174447
$SILENCE,28851.877612099364,-20645.680504522385,-18949.89835618715,37516.21842577677,-187500.02235174447,-187500.02235174447,-187500.02235174447,-187500.02235174447
$SILENCE,27632.209972406625,-20524.57875306353,-19846.180957100507,37562.73240598827,-187500.02235174447,-187500.02235174447,-187500.02235174447,-187500.02235174447
$SILENCE,27495.77492425143,-20792.17383768247,-19591.505180776738,37361.00791227912,-187500.02235174447,-187500.02235174447,-187500.02235174447,-187500.02235174447
$SILENCE,28711.68747087568,-20915.868391498137,-18681.342146556635,37318.807818747504,-187500.02235174447,-187500.02235174447,-187500.02235174447,-187500.02235174447
$SILENCE,28975.996849059684,-20707.974816319325,-18806.109584106158,37481.30500093758,-187500.02235174447,-187500.02235174447,-187500.02235174447,-187500.02235174447
$SILENCE,27832.481602726177,-20526.97038972025,-19733.79638597922,37569.504984558225,-187500.02235174447,-187500.02235174447,-187500.02235174447,-187500.02235174447
$SILENCE,27367.721780266977,-20748.76674995026,-19747.900336730523,37394.33436326199,-187500.02235174447,-187500.02235174447,-187500.02235174447,-187500.02235174447
$SILENCE,28512.958110923544,-20925.501993358375,-18805.059052116758,37307.989574431136,-187500.02235174447,-187500.02235174447,-187500.02235174447,-187500.02235174447
$SILENCE,29044.147317903917,-20736.85327015558,-18706.84548698014,37467.13399495292,-187500.02235174447,-187500.02235174447,-187500.02235174447,-187500.02235174447
$SILENCE,28068.627782896496,-20509.11134590046,-19568.818160154602,37607.59235711007,-187500.02235174447,-187500.02235174447,-187500.02235174447,-187500.02235174447
$SILENCE,27314.12229706315,-20676.2800426817,-19842.247050076374,37450.32548312253,-187500.02235174447,-187500.02235174447,-187500.02235174447,-187500.02235174447
$SILENCE,28304.997480511367,-20914.773156019826,-18924.238553552455,37307.542539542024,-187500.02235174447,-187500.02235174447,-187500.02235174447,-187500.02235174447
$SILENCE,29079.597184610033,-20782.607291055596,-18616.365625425056,37436.91443644934,-187500.02235174447,-187500.02235174447,-187500.02235174447,-187500.02235174447
$SILENCE,28302.896416532567,-20528.177383920836,-19397.60379762695,37597.71288606082,-187500.02235174447,-187500.02235174447,-187500.02235174447,-187500.02235174447
$SILENCE,27302.45468645748,-20631.621257259998,-19920.746376603413,37478.37692241394,-187500.02235174447,-187500.02235174447,-187500.02235174447,-187500.02235174447
$SILENCE,28052.065140255112,-20925.859621269658,-19114.69776805613,37290.75637945609,-187500.02235174447,-187500.02235174447,-187500.02235174447,-187500.02235174447
$SILENCE,29017.772259446654,-20853.59643144565,-18619.98660802682,37371.96026706222,-187500.02235174447,-187500.02235174447,-187500.02235174447,-187500.02235174447
$SILENCE,28505.470276531018,-20578.245291500723,-19243.19794692969,37565.14639438944,-187500.02235174447,-187500.02235174447,-187500.02235174447,-187500.02235174447
$SILENCE,27372.75092276942,-20568.343468707022,-19921.483984170438,37527.72957417126,-187500.02235174447,-187500.02235174447,-187500.02235174447,-187500.02235174447
$SILENCE,27830.805221892027,-20876.730486956894,-19276.166770001266,37330.900112497824,-187500.02235174447,-187500.02235174447,-187500.02235174447,-187500.02235174447
$SILENCE,28955.16502322734,-20874.495312511364,-18600.49588686179,37372.20613625123,-187500.02235174447,-187500.02235174447,-187500.02235174447,-187500.02235174447
$SILENCE,28711.843933086868,-20616.064443119103,-19065.993316888012,37541.72176620028,-187500.02235174447,-187500.02235174447,-187500.02235174447,-187500.02235174447
$SILENCE,27501.452267343077,-20555.692381345318,-19882.815466262757,37539.21837082128,-187500.02235174447,-187500.02235174447,-187500.02235174447,-187500.02235174447
$SILENCE,27610.595835518343,-20862.0230391053,-19472.57154853005,37327.07796419597,-187500.02235174447,-187500.02235174447,-187500.02235174447,-187500.02235174447
$SILENCE,28830.531696144546,-20901.295054113278,-18639.4996809363,37340.95839750271,-187500.02235174447,-187500.02235174447,-187500.02235174447,-187500.02235174447
$SILENCE,28884.555862493024,-20652.207213903333,-18902.959692831006,37517.13484729944,-187500.02235174447,-187500.02235174447,-187500.02235174447,-187500.02235174447
$SILENCE,27649.1749464482,-20526.29983738659,-19837.463776762936,37547.77908894767,-187500.02235174447,-187500.02235174447,-187500.02235174447,-187500.02235174447
$SILENCE,27432.72065314301,-20805.026090744268,-19656.03466701921,37338.83498177946,-187500.02235174447,-187500.02235174447,-187500.02235174447,-187500.02235174447
$SILENCE,28669.44267385515,-20932.94512426199,-18717.887248741063,37320.93123447076,-187500.02235174447,-187500.02235174447,-187500.02235174447,-187500.02235174447
$SILENCE,28980.601308417477,-20714.23330476681,-18799.851095658672,37492.123245253955,-187500.02235174447,-187500.02235174447,-187500.02235174447,-187500.02235174447
$SILENCE,27863.617582752417,-20519.05787218307,-19703.889751898023,37588.61572606751,-187500.02235174447,-187500.02235174447,-187500.02235174447,-187500.02235174447
$SILENCE,27352.79081497083,-20727.80081365118,-19756.505758345815,37417.89310191788,-187500.02235174447,-187500.02235174447,-187500.02235174447,-187500.02235174447
$SILENCE,28460.364456220206,-20932.252220183876,-18832.68580826352,37315.0080221901,-187500.02235174447,-187500.02235174447,-187500.02235174447,-187500.02235174447
$SILENCE,29025.371852561457,-20761.68605824543,-18706.75608000232,37459.31088439356,-187500.02235174447,-187500.02235174447,-187500.02235174447,-187500.02235174447
$SILENCE,28089.437256984387,-20538.77211079265,-19552.367276235495,37591.49910110225,-187500.02235174447,-187500.02235174447,-187500.02235174447,-187500.02235174447
$SILENCE,27291.010593296363,-20688.685260854396,-19854.540509526792,37439.01550042814,-187500.02235174447,-187500.02235174447,-187500.02235174447,-187500.02235174447
$SILENCE,28220.95492135941,-20948.256069213876,-18985.594092082276,37284.14026309732,-187500.02235174447,-187500.02235174447,-187500.02235174447,-187500.02235174447
$SILENCE,29049.17646040636,-20811.351634425122,-18634.045855289205,37428.13020087841,-187500.02235174447,-187500.02235174447,-187500.02235174447,-187500.02235174447
$SILENCE,28321.113088263643,-20550.21620395377,-19388.618396355916,37587.83341501158,-187500.02235174447,-187500.02235174447,-187500.02235174447,-187500.02235174447
$SILENCE,27285.757933349363,-20624.80397520113,-19939.633600668145,37486.4011986734,-187500.02235174447,-187500.02235174447,-187500.02235174447,-187500.02235174447
$SILENCE,27995.49287503873,-20905.675996026515,-19143.44211142565,37314.404525089805,-187500.02235174447,-187500.02235174447,-187500.02235174447,-187500.02235174447
$SILENCE,29011.06673611006,-20850.2213180329,-18603.06633747415,37398.1788633083,-187500.02235174447,-187500.02235174447,-187500.02235174447,-187500.02235174447
$SILENCE,28523.485782561995,-20594.69617541983,-19226.165917654744,37570.57786829208,-187500.02235174447,-187500.02235174447,-187500.02235174447,-187500.02235174447
$SILENCE,27370.806321001808,-20590.94108235134,-19937.107853544698,37521.068754323576,-187500.02235174447,-187500.02235174447,-187500.02235174447,-187500.02235174447
$SILENCE,27789.4097911608,-20891.192065619478,-19313.270665797078,37310.6047285324,-187500.02235174447,-187500.02235174447,-187500.02235174447,-187500.02235174447
$SILENCE,28923.134973422882,-20882.586644004186,-18610.10713697757,37373.39077870736,-187500.02235174447,-187500.02235174447,-187500.02235174447,-187500.02235174447
$SILENCE,28710.68164237519,-20633.163527627414,-19057.678467950638,37558.79849896413,-187500.02235174447,-187500.02235174447,-187500.02235174447,-187500.02235174447
$SILENCE,27500.82641849833,-20550.797349309607,-19892.292605911804,37567.04629266814,-187500.02235174447,-187500.02235174447,-187500.02235174447,-187500.02235174447
$SILENCE,27578.45402699161,-20841.973524328892,-19498.09724069801,37347.44040339475,-187500.02235174447,-187500.02235174447,-187500.02235174447,-187500.02235174447
$SILENCE,28792.6454892928,-20916.80716476526,-18653.357762498592,37347.50745862812,-187500.02235174447,-187500.02235174447,-187500.02235174447,-187500.02235174447
$SILENCE,28875.346943777437,-20676.2800426817,-18900.992739318935,37534.14452482993,-187500.02235174447,-187500.02235174447,-187500.02235174447,-187500.02235174447
$SILENCE,27691.71031614665,-20531.261924655668,-19798.437630943972,37590.694438301856,-187500.02235174447,-187500.02235174447,-187500.02235174447,-187500.02235174447
$SILENCE,27423.04234779386,-20794.16314293899,-19656.54875714168,37379.761025877124,-187500.02235174447,-187500.02235174447,-187500.02235174447,-187500.02235174447
$SILENCE,28615.977301118055,-20934.040359740302,-18740.350751918646,37326.6085775624,-187500.02235174447,-187500.02235174447,-187500.02235174447,-187500.02235174447
$SILENCE,28970.274802479125,-20730.86300264156,-18788.138781564092,37485.28361145063,-187500.02235174447,-187500.02235174447,-187500.02235174447,-187500.02235174447
$SILENCE,27867.998524665658,-20547.53399461913,-19705.65553970999,37574.80234799413,-187500.02235174447,-187500.02235174447,-187500.02235174447,-187500.02235174447
$SILENCE,27307.282663259826,-20737.81439516716,-19801.477468189893,37416.50729376165,-187500.02235174447,-187500.02235174447,-187500.02235174447,-187500.02235174447
$SILENCE,28432.04479599533,-20925.054958469267,-18836.306790865277,37338.99144399064,-187500.02235174447,-187500.02235174447,-187500.02235174447,-187500.02235174447
$SILENCE,29041.822736480564,-20781.780276510748,-18683.867893680082,37470.8443845325,-187500.02235174447,-187500.02235174447,-187500.02235174447,-187500.02235174447
$SILENCE,28121.355548066564,-20549.657410342385,-19529.635552124448,37603.0773047301,-187500.02235174447,-187500.02235174447,-187500.02235174447,-187500.02235174447
$SILENCE,27249.056368953752,-20699.61526389304,-19905.055451995784,37446.190410398296,-187500.02235174447,-187500.02235174447,-187500.02235174447,-187500.02235174447
$SILENCE,28165.90257476599,-20953.016990782857,-19029.20234551458,37284.58729798643,-187500.02235174447,-187500.02235174447,-187500.02235174447,-187500.02235174447
$SILENCE,29035.877172455454,-20833.21164050241,-18634.06820703366,37415.568520494526,-187500.02235174447,-187500.02235174447,-187500.02235174447,-187500.02235174447
$SILENCE,28355.0430363468,-20554.261869700178,-19348.139387147356,37604.26194718623,-187500.02235174447,-187500.02235174447,-187500.02235174447,-187500.02235174447
$SILENCE,27300.443029456503,-20613.13636459546,-19921.439280681527,37516.71016415479,-187500.02235174447,-187500.02235174447,-187500.02235174447,-187500.02235174447
$SILENCE,27938.00418829968,-20926.932505003515,-19193.08533586089,37308.950699442714,-187500.02235174447,-187500.02235174447,-187500.02235174447,-187500.02235174447
$SILENCE,28969.380732700913,-20881.916091670526,-18633.151785510992,37384.074912557,-187500.02235174447,-187500.02235174447,-187500.02235174447,-187500.02235174447
$SILENCE,28543.244724660486,-20609.113050593503,-19202.540123765484,37566.48749905676,-187500.02235174447,-187500.02235174447,-187500.02235174447,-187500.02235174447
$SILENCE,27384.440885119544,-20588.817666628085,-19926.289609228326,37534.74802193022,-187500.02235174447,-187500.02235174447,-187500.02235174447,-187500.02235174447
$SILENCE,27748.77431974105,-20896.020042421824,-19345.635991768362,37326.89915024032,-187500.02235174447,-187500.02235174447,-187500.02235174447,-187500.02235174447
$SILENCE,28897.497522532645,-20899.752783745862,-18624.747529595796,37372.429653695785,-187500.02235174447,-187500.02235174447,-187500.02235174447,-187500.02235174447
$SILENCE,28723.444488459172,-20644.74173125526,-19044.490938722007,37557.479746041274,-187500.02235174447,-187500.02235174447,-187500.02235174447,-187500.02235174447
$SILENCE,27515.82443902784,-20547.891622530416,-19887.37522213164,37586.492310344256,-187500.02235174447,-187500.02235174447,-187500.02235174447,-187500.02235174447
$SILENCE,27542.467718418568,-20828.875402078083,-19522.371235176473,37377.14587177585,-187500.02235174447,-187500.02235174447,-187500.02235174447,-187500.02235174447
$SILENCE,28759.274334821028,-20922.752728790372,-18669.607480717597,37354.99529302064,-187500.02235174447,-187500.02235174447,-187500.02235174447,-187500.02235174447
$SILENCE,28885.002897382128,-20697.24597898078,-18887.1570095011,37525.8073241481,-187500.02235174447,-187500.02235174447,-187500.02235174447,-187500.02235174447
$SILENCE,27714.33028153542,-20543.130700961436,-19780.086848746163,37591.96848773581,-187500.02235174447,-187500.02235174447,-187500.02235174447,-187500.02235174447
$SILENCE,27389.47002762199,-20799.907541264005,-19680.286309753217,37382.130310789384,-187500.02235174447,-187500.02235174447,-187500.02235174447,-187500.02235174447
$SILENCE,28564.992972015498,-20955.028647783834,-18770.592662166677,37320.059516436995,-187500.02235174447,-187500.02235174447,-187500.02235174447,-187500.02235174447
$SILENCE,28958.584840129002,-20756.455750042885,-18791.15626706556,37480.20976545927,-187500.02235174447,-187500.02235174447,-187500.02235174447,-187500.02235174447
$SILENCE,27917.082955489514,-20543.085997472524,-19673.75960037227,37590.91795574641,-187500.02235174447,-187500.02235174447,-187500.02235174447,-187500.02235174447
$SILENCE,27281.846378069687,-20742.06122661367,-19832.6805034495,37420.0835728745,-187500.02235174447,-187500.02235174447,-187500.02235174447,-187500.02235174447
$SILENCE,28358.95459162648,-20967.143293278612,-18903.004396319913,37305.91086219679,-187500.02235174447,-187500.02235174447,-187500.02235174447,-187500.02235174447
$SILENCE,29023.047271138108,-20801.628625587062,-18698.955321187415,37445.56456155355,-187500.02235174447,-187500.02235174447,-187500.02235174447,-187500.02235174447
$SILENCE,28157.05128396169,-20548.562174864077,-19499.013662220677,37612.48738914578,-187500.02235174447,-187500.02235174447,-187500.02235174447,-187500.02235174447
$SILENCE,27272.615107609643,-20677.84466479357,-19884.44714360799,37480.05330324809,-187500.02235174447,-187500.02235174447,-187500.02235174447,-187500.02235174447
$SILENCE,28150.27870539173,-20936.163775463556,-19019.76990935444,37314.58333904545,-187500.02235174447,-187500.02235174447,-187500.02235174447,-187500.02235174447
$SILENCE,29033.865515454476,-20831.199983501432,-18620.321884193647,37423.14576186488,-187500.02235174447,-187500.02235174447,-187500.02235174447,-187500.02235174447
$SILENCE,28366.017742874355,-20578.558215923098,-19347.22296562469,37588.99570572325,-187500.02235174447,-187500.02235174447,-187500.02235174447,-187500.02235174447
$SILENCE,27293.625747397633,-20621.22769608828,-19941.309981502294,37519.77235314517,-187500.02235174447,-187500.02235174447,-187500.02235174447,-187500.02235174447
$SILENCE,27897.2346064132,-20924.630275324616,-19212.777222726014,37318.51724606958,-187500.02235174447,-187500.02235174447,-187500.02235174447,-187500.02235174447
$SILENCE,28968.218441989236,-20881.31259457023,-18615.315093435656,37394.78139815109,-187500.02235174447,-187500.02235174447,-187500.02235174447,-187500.02235174447
$SILENCE,28582.360277457272,-20612.912847150907,-19175.427457741196,37576.25521138373,-187500.02235174447,-187500.02235174447,-187500.02235174447,-187500.02235174447
$SILENCE,27391.36992590069,-20578.82643685656,-19940.75118789091,37551.400071549426,-187500.02235174447,-187500.02235174447,-187500.02235174447,-187500.02235174447
$SILENCE,27684.624813154318,-20883.36895506012,-19396.732079593192,37339.371423646386,-187500.02235174447,-187500.02235174447,-187500.02235174447,-187500.02235174447
$SILENCE,28856.929106346266,-20917.61182756565,-18641.31017223718,37358.102185499934,-187500.02235174447,-187500.02235174447,-187500.02235174447,-187500.02235174447
$SILENCE,28755.273372563526,-20659.80680701814,-19012.32677845082,37541.23002782226,-187500.02235174447,-187500.02235174447,-187500.02235174447,-187500.02235174447
$SILENCE,27550.715512122573,-20555.73708483423,-19870.812579490255,37573.05891192662,-187500.02235174447,-187500.02235174447,-187500.02235174447,-187500.02235174447
$SILENCE,27514.617444827254,-20845.661562164016,-19554.35658149202,37357.319874443994,-187500.02235174447,-187500.02235174447,-187500.02235174447,-187500.02235174447
$SILENCE,28735.335616509394,-20942.489319144406,-18682.79500994623,37332.4647346097,-187500.02235174447,-187500.02235174447,-187500.02235174447,-187500.02235174447
$SILENCE,28902.39255456836,-20706.790173863195,-18872.091933738226,37511.01046931869,-187500.02235174447,-187500.02235174447,-187500.02235174447,-187500.02235174447
$SILENCE,27745.667427261764,-20533.25122991219,-19760.976107236875,37604.3737059085,-187500.02235174447,-187500.02235174447,-187500.02235174447,-187500.02235174447
$SILENCE,27377.08716119375,-20782.428477099955,-19700.42523150745,37404.794979667065,-187500.02235174447,-187500.02235174447,-187500.02235174447,-187500.02235174447
$SILENCE,28538.014416457943,-20940.9917522659,-18783.75783965085,37331.07892645346,-187500.02235174447,-187500.02235174447,-187500.02235174447,-187500.02235174447
$SILENCE,28984.64697416389,-20754.689962230917,-18761.80842659574,37489.61984987496,-187500.02235174447,-187500.02235174447,-187500.02235174447,-187500.02235174447
$SILENCE,27951.549345439595,-20554.060704000083,-19646.22225120333,37596.95292674934,-187500.02235174447,-187500.02235174447,-187500.02235174447,-187500.02235174447
$SILENCE,27278.20304372347,-20742.128281847035,-19842.135291354098,37421.53643626409,-187500.02235174447,-187500.02235174447,-187500.02235174447,-187500.02235174447
$SILENCE,28333.27243724733,-20947.76433083586,-18905.373681232177,37315.2091878902,-187500.02235174447,-187500.02235174447,-187500.02235174447,-187500.02235174447
$SILENCE,29044.16966964837,-20792.576169082662,-18657.53753871173,37469.16800369835,-187500.02235174447,-187500.02235174447,-187500.02235174447,-187500.02235174447
$SILENCE,28168.696542822905,-20563.627250626952,-19495.079755196544,37597.55642384964,-187500.02235174447,-187500.02235174447,-187500.02235174447,-187500.02235174447
$SILENCE,27231.979636189895,-20684.594891619075,-19936.88433610014,37465.63642807442,-187500.02235174447,-187500.02235174447,-187500.02235174447,-187500.02235174447
$SILENCE,28078.50725394574,-20950.692409359504,-19079.851398450304,37303.89920519581,-187500.02235174447,-187500.02235174447,-187500.02235174447,-187500.02235174447
$SILENCE,29023.06962288256,-20846.063893564213,-18619.897201048996,37422.81048569804,-187500.02235174447,-187500.02235174447,-187500.02235174447,-187500.02235174447
$SILENCE,28410.587121318236,-20588.50474220571,-19309.11324132839,37583.36306612052,-187500.02235174447,-187500.02235174447,-187500.02235174447,-187500.02235174447
$SILENCE,27307.21560802646,-20621.518268766198,-19942.382865236148,37511.681021652344,-187500.02235174447,-187500.02235174447,-187500.02235174447,-187500.02235174447
$SILENCE,27875.933393947293,-20926.641932325594,-19234.77133927004,37316.930272213256,-187500.02235174447,-187500.02235174447,-187500.02235174447,-187500.02235174447
$SILENCE,28942.469232376723,-20905.318368115233,-18624.903991806983,37371.803804851035,-187500.02235174447,-187500.02235174447,-187500.02235174447,-187500.02235174447
$SILENCE,28582.628498390735,-20637.544469540655,-19167.447884970654,37558.06089139711,-187500.02235174447,-187500.02235174447,-187500.02235174447,-187500.02235174447
$SILENCE,27409.631301120677,-20576.703021133308,-19923.76386210488,37569.214411880304,-187500.02235174447,-187500.02235174447,-187500.02235174447,-187500.02235174447
$SILENCE,27654.89699302876,-20878.13864685758,-19413.495887934674,37351.06138599651,-187500.02235174447,-187500.02235174447,-187500.02235174447,-187500.02235174447
$SILENCE,28829.27999845505,-20920.696368300483,-18648.798006629706,37357.72220584419,-187500.02235174447,-187500.02235174447,-187500.02235174447,-187500.02235174447
talvez,28772.059532649462,-20674.782475803197,-18994.199513697567,37536.223237064274,-187500.02235174447,-187500.02235174447,-187500.02235174447,-187500.02235174447
talvez,27572.195538544125,-20563.716657604775,-19853.84760544868,37583.65363879844,-187500.02235174447,-187500.02235174447,-187500.02235174447,-187500.02235174447
talvez,27479.4357990546,-20835.73738762586,-19581.178674838386,37373.52488917409,-187500.02235174447,-187500.02235174447,-187500.02235174447,-187500.02235174447
talvez,28695.795380567957,-20941.32702843273,-18699.75998398781,37340.9136940138,-187500.02235174447,-187500.02235174447,-187500.02235174447,-187500.02235174447
talvez,28916.854133230943,-20717.51901120174,-18847.3485526262,37513.916196097874,-187500.02235174447,-187500.02235174447,-187500.02235174447,-187500.02235174447
talvez,27765.11344493788,-20546.639924840918,-19758.897395002532,37592.7731505362,-187500.02235174447,-187500.02235174447,-187500.02235174447,-187500.02235174447
talvez,27328.248599558905,-20790.609215570596,-19749.554365820215,37389.282869015085,-187500.02235174447,-187500.02235174447,-187500.02235174447,-187500.02235174447
talvez,28491.858064157735,-20958.0461332853,-18809.641159730098,37317.64552803583,-187500.02235174447,-187500.02235174447,-187500.02235174447,-187500.02235174447
talvez,28996.158122558372,-20763.854177457593,-18734.4722431269,37492.77144584316,-187500.02235174447,-187500.02235174447,-187500.02235174447,-187500.02235174447
talvez,28017.12936367147,-20541.566078849566,-19586.83366618558,37622.92565380641,-187500.02235174447,-187500.02235174447,-187500.02235174447,-187500.02235174447
talvez,27293.78220960882,-20721.29645601469,-19822.890439378076,37456.82984075902,-187500.02235174447,-187500.02235174447,-187500.02235174447,-187500.02235174447
talvez,28269.435855082975,-20961.08597053122,-18944.377475306686,37304.23448136264,-187500.02235174447,-187500.02235174447,-187500.02235174447,-187500.02235174447
talvez,29005.657613951877,-20823.913314809004,-18674.278995308756,37440.04368067309,-187500.02235174447,-187500.02235174447,-187500.02235174447,-187500.02235174447
talvez,28193.39522044602,-20574.601957154508,-19464.65903099287,37594.98597323728,-187500.02235174447,-187500.02235174447,-187500.02235174447,-187500.02235174447
talvez,27238.975732204406,-20674.223682191812,-19932.95042907601,37482.06496024907,-187500.02235174447,-187500.02235174447,-187500.02235174447,-187500.02235174447
talvez,28037.178878447878,-20956.414455940063,-19106.472326096577,37311.49879831062,-187500.02235174447,-187500.02235174447,-187500.02235174447,-187500.02235174447
talvez,29007.333994786026,-20862.201853060946,-18613.996340512793,37428.89016018989,-187500.02235174447,-187500.02235174447,-187500.02235174447,-187500.02235174447
talvez,28454.418892195095,-20587.744782894228,-19261.995764016603,37608.35231642155,-187500.02235174447,-187500.02235174447,-187500.02235174447,-187500.02235174447
talvez,27332.540134494324,-20616.98086464177,-19924.36735920517,37536.491457997734,-187500.02235174447,-187500.02235174447,-187500.02235174447,-187500.02235174447
talvez,27809.392250703844,-20935.515574874353,-19279.743049114117,37305.799103474514,-187500.02235174447,-187500.02235174447,-187500.02235174447,-187500.02235174447
talvez,28908.96396743822,-20906.86063848265,-18629.195526742402,37367.10993851542,-187500.02235174447,-187500.02235174447,-187500.02235174447,-187500.02235174447
talvez,28617.13959182973,-20643.4229783324,-19125.15838446121,37557.479746041274,-187500.02235174447,-187500.02235174447,-187500.02235174447,-187500.02235174447
talvez,27424.226990249994,-20590.628157928964,-19918.37709169115,37555.35633031801,-187500.02235174447,-187500.02235174447,-187500.02235174447,-187500.02235174447
talvez,27608.785344217464,-20892.935501686992,-19446.79998717308,37340.7125283137,-187500.02235174447,-187500.02235174447,-187500.02235174447,-187500.02235174447
talvez,28798.926329484744,-20944.90330754558,-18651.234346775334,37352.96128427521,-187500.02235174447,-187500.02235174447,-187500.02235174447,-187500.02235174447
talvez,28784.6435647778,-20696.173095246922,-18961.677725515096,37536.80438242011,-187500.02235174447,-187500.02235174447,-187500.02235174447,-187500.02235174447
talvez,27602.4150970477,-20567.672916373365,-19828.59013421418,37579.563269563114,-187500.02235174447,-187500.02235174447,-187500.02235174447,-187500.02235174447
talvez,27441.594295691764,-20839.78305337227,-19608.73837575178,37360.62793262338,-187500.02235174447,-187500.02235174447,-187500.02235174447,-187500.02235174447
talvez,28630.260065824994,-20952.324086704743,-18727.364388390113,37325.82626650647,-187500.02235174447,-187500.02235174447,-187500.02235174447,-187500.02235174447
talvez,28899.308013833528,-20737.90380214498,-18837.62554378814,37511.92689084136,-187500.02235174447,-187500.02235174447,-187500.02235174447,-187500.02235174447
talvez,27791.73437258415,-20547.48929113022,-19726.554420775705,37615.214301969325,-187500.02235174447,-187500.02235174447,-187500.02235174447,-187500.02235174447
talvez,27307.640291171112,-20782.584939311142,-19763.56890959369,37410.85230241445,-187500.02235174447,-187500.02235174447,-187500.02235174447,-187500.02235174447
talvez,28428.714386071493,-20982.744810908414,-18847.90734623758,37305.19560637422,-187500.02235174447,-187500.02235174447,-187500.02235174447,-187500.02235174447
talvez,28989.206730032773,-20793.20201792741,-18723.74340578835,37478.26516369166,-187500.02235174447,-187500.02235174447,-187500.02235174447,-187500.02235174447
talvez,28016.369404359986,-20572.679707131352,-19587.92890166389,37597.71288606082,-187500.02235174447,-187500.02235174447,-187500.02235174447,-187500.02235174447
talvez,27256.79007253529,-20726.63852293951,-19862.40832357506,37449.63257904442,-187500.02235174447,-187500.02235174447,-187500.02235174447,-187500.02235174447
talvez,28232.130793587065,-20971.05484855829,-18960.247213869956,37310.67178376577,-187500.02235174447,-187500.02235174447,-187500.02235174447,-187500.02235174447
talvez,28998.21448304826,-20840.364198728108,-18665.11478008208,37430.61124451295,-187500.02235174447,-187500.02235174447,-187500.02235174447,-187500.02235174447
talvez,28239.171593090487,-20582.782695625152,-19427.33161775251,37597.69053431637,-187500.02235174447,-187500.02235174447,-187500.02235174447,-187500.02235174447
talvez,27254.331380645202,-20668.121655955514,-19924.456766182993,37502.15917851438,-187500.02235174447,-187500.02235174447,-187500.02235174447,-187500.02235174447
talvez,27997.884511695447,-20953.77695009434,-19122.386768148754,37319.81364724799,-187500.02235174447,-187500.02235174447,-187500.02235174447,-187500.02235174447
talvez,28981.11539853995,-20870.740219442872,-18616.745605080796,37415.85909317245,-187500.02235174447,-187500.02235174447,-187500.02235174447,-187500.02235174447
talvez,28439.845554810236,-20620.914771665906,-19266.75668558558,37576.65754278393,-187500.02235174447,-187500.02235174447,-187500.02235174447,-187500.02235174447
talvez,27297.380840466125,-20637.097434651547,-19957.559699721303,37511.99394607472,-187500.02235174447,-187500.02235174447,-187500.02235174447,-187500.02235174447
talvez,27753.468186076665,-20938.018970253346,-19315.0588053535,37306.13437964134,-187500.02235174447,-187500.02235174447,-187500.02235174447,-187500.02235174447
talvez,28892.222510841195,-20918.95293223297,-18627.250924974793,37372.45200544024,-187500.02235174447,-187500.02235174447,-187500.02235174447,-187500.02235174447
talvez,28630.528286758457,-20667.98754548878,-19109.512163342497,37544.560437746106,-187500.02235174447,-187500.02235174447,-187500.02235174447,-187500.02235174447
talvez,27436.945132845063,-20589.55527419511,-19904.071975239753,37564.02880716667,-187500.02235174447,-187500.02235174447,-187500.02235174447,-187500.02235174447
talvez,27575.905928123706,-20887.66048999554,-19461.887414680412,37345.20522894922,-187500.02235174447,-187500.02235174447,-187500.02235174447,-187500.02235174447
talvez,28770.964297171155,-20951.318258204254,-18656.3528962556,37340.24314168014,-187500.02235174447,-187500.02235174447,-187500.02235174447,-187500.02235174447
talvez,28794.344221871404,-20707.52778143022,-18947.216146852512,37518.43124847785,-187500.02235174447,-187500.02235174447,-187500.02235174447,-187500.02235174447
talvez,27600.17992260217,-20567.717619862273,-19833.12753833861,37581.35140911954,-187500.02235174447,-187500.02235174447,-187500.02235174447,-187500.02235174447
talvez,27396.309661425315,-20836.02796030378,-19642.400102901473,37377.7717206206,-187500.02235174447,-187500.02235174447,-187500.02235174447,-187500.02235174447
talvez,28601.04633582191,-20970.361944480177,-18736.28273442778,37332.39767937633,-187500.02235174447,-187500.02235174447,-187500.02235174447,-187500.02235174447
talvez,28914.73071750769,-20760.210843111377,-18815.832592944218,37495.07367552205,-187500.02235174447,-187500.02235174447,-187500.02235174447,-187500.02235174447
talvez,27815.47192519569,-20555.64767785641,-19704.38149027604,37592.639040069465,-187500.02235174447,-187500.02235174447,-187500.02235174447,-187500.02235174447
talvez,27273.911508788053,-20773.73364850684,-19782.7690580808,37404.660869200336,-187500.02235174447,-187500.02235174447,-187500.02235174447,-187500.02235174447
talvez,28401.154685158097,-20983.68358417554,-18849.427264860544,37312.795199489025,-187500.02235174447,-187500.02235174447,-187500.02235174447,-187500.02235174447
talvez,28996.44869523629,-20802.857971532103,-18704.967940445895,37470.374997898936,-187500.02235174447,-187500.02235174447,-187500.02235174447,-187500.02235174447
talvez,28039.45875638232,-20577.820608356073,-19562.78318915167,37590.78384527968,-187500.02235174447,-187500.02235174447,-187500.02235174447,-187500.02235174447
talvez,27229.8785722111,-20726.124432817036,-19882.055506951274,37453.07474769053,-187500.02235174447,-187500.02235174447,-187500.02235174447,-187500.02235174447
talvez,28176.96668827137,-20969.75844737988,-18994.311272419844,37315.70092626821,-187500.02235174447,-187500.02235174447,-187500.02235174447,-187500.02235174447
talvez,28996.627509191934,-20847.717922653905,-18646.518128695265,37444.96106445325,-187500.02235174447,-187500.02235174447,-187500.02235174447,-187500.02235174447
talvez,28264.02673292479,-20600.35116676702,-19399.056661016544,37598.60695583904,-187500.02235174447,-187500.02235174447,-187500.02235174447,-187500.02235174447
talvez,27243.736653773387,-20683.074972996114,-19935.23030701045,37488.211689974276,-187500.02235174447,-187500.02235174447,-187500.02235174447,-187500.02235174447
talvez,27960.020656588156,-20978.050944572802,-19145.386713193264,37286.59895498741,-187500.02235174447,-187500.02235174447,-187500.02235174447,-187500.02235174447
talvez,29047.991817950227,-20897.025870922313,-18551.500863015757,37393.261479528126,-187500.02235174447,-187500.02235174447,-187500.02235174447,-187500.02235174447
talvez,28510.83469520029,-20615.282132063167,-19224.824812987426,37585.35237137704,-187500.02235174447,-187500.02235174447,-187500.02235174447,-187500.02235174447
talvez,27373.644992547634,-20629.475489792287,-19901.389765905114,37531.395260261925,-187500.02235174447,-187500.02235174447,-187500.02235174447,-187500.02235174447
talvez,27731.474069532644,-20920.919885745036,-19351.045113926546,37328.039089207545,-187500.02235174447,-187500.02235174447,-187500.02235174447,-187500.02235174447
talvez,28890.52377826259,-20941.3940836661,-18618.31022719267,37363.64541812485,-187500.02235174447,-187500.02235174447,-187500.02235174447,-187500.02235174447
talvez,28643.9616851761,-20659.47153085131,-19100.817334749383,37561.614818765505,-187500.02235174447,-187500.02235174447,-187500.02235174447,-187500.02235174447
talvez,27401.025879505385,-20594.20443704181,-19935.319713988272,37565.54872578964,-187500.02235174447,-187500.02235174447,-187500.02235174447,-187500.02235174447
talvez,27524.362805409768,-20857.50798672533,-19493.604540062493,37376.94470607575,-187500.02235174447,-187500.02235174447,-187500.02235174447,-187500.02235174447
talvez,28718.661215145734,-20940.32119993224,-18670.32273654017,37361.9690372907,-187500.02235174447,-187500.02235174447,-187500.02235174447,-187500.02235174447
talvez,28758.559078998456,-20738.999037623293,-18957.207376624036,37502.248585492205,-187500.02235174447,-187500.02235174447,-187500.02235174447,-187500.02235174447
talvez,27611.80282971893,-20570.01984954117,-19817.88364862009,37581.932554475374,-187500.02235174447,-187500.02235174447,-187500.02235174447,-187500.02235174447
talvez,27351.472062047967,-20850.37778024409,-19676.88884459601,37360.78439483457,-187500.02235174447,-187500.02235174447,-187500.02235174447,-187500.02235174447
talvez,28567.675181350136,-20980.219063784967,-18743.122368231103,37320.93123447076,-187500.02235174447,-187500.02235174447,-187500.02235174447,-187500.02235174447
talvez,28963.39046518689,-20738.52965098973,-18747.548013633255,37513.13388504194,-187500.02235174447,-187500.02235174447,-187500.02235174447,-187500.02235174447
talvez,27856.777948949093,-20556.854672056994,-19687.95295810139,37593.33194414758,-187500.02235174447,-187500.02235174447,-187500.02235174447,-187500.02235174447
talvez,27271.72103783143,-20780.34976486561,-19799.8234391002,37415.83674142799,-187500.02235174447,-187500.02235174447,-187500.02235174447,-187500.02235174447
talvez,28332.04309130229,-21032.45509057702,-18896.4106317056,37281.99449562961,-187500.02235174447,-187500.02235174447,-187500.02235174447,-187500.02235174447
talvez,28988.73734339921,-20833.435157946966,-18693.143867629038,37453.11945117944,-187500.02235174447,-187500.02235174447,-187500.02235174447,-187500.02235174447
talvez,28122.830763200614,-20539.77793929314,-19499.326586643052,37622.79154333968,-187500.02235174447,-187500.02235174447,-187500.02235174447,-187500.02235174447
talvez,27289.02128803984,-20665.640612320974,-19825.7291109239,37497.912347067875,-187500.02235174447,-187500.02235174447,-187500.02235174447,-187500.02235174447
talvez,28091.31480351863,-21036.254887134422,-19056.96321212807,37247.3939952128,-187500.02235174447,-187500.02235174447,-187500.02235174447,-187500.02235174447
talvez,28958.361322684446,-20919.265856655344,-18669.585128973144,37378.95636307673,-187500.02235174447,-187500.02235174447,-187500.02235174447,-187500.02235174447
talvez,28338.458041960963,-20584.324965992568,-19338.97517192068,37606.6759355874,-187500.02235174447,-187500.02235174447,-187500.02235174447,-187500.02235174447
talvez,27301.82883761273,-20646.127539411493,-19913.191486977517,37518.118324055475,-187500.02235174447,-187500.02235174447,-187500.02235174447,-187500.02235174447
talvez,27880.716667260727,-21013.16553511209,-19230.300990378975,37257.80990812897,-187500.02235174447,-187500.02235174447,-187500.02235174447,-187500.02235174447
talvez,28966.139729754894,-20933.190993451,-18595.623206570534,37380.69979914425,-187500.02235174447,-187500.02235174447,-187500.02235174447,-187500.02235174447
talvez,28507.325471320808,-20697.3353859586,-19214.23008611561,37526.99196660423,-187500.02235174447,-187500.02235174447,-187500.02235174447,-187500.02235174447
talvez,27292.195235752493,-20684.170208474425,-19994.01539492791,37469.65974207637,-187500.02235174447,-187500.02235174447,-187500.02235174447,-187500.02235174447
talvez,27669.42562692471,-20961.980040309434,-19412.870039089925,37295.96433591418,-187500.02235174447,-187500.02235174447,-187500.02235174447,-187500.02235174447
talvez,28837.393681692327,-20999.82154367227,-18664.287765537236,37322.451153093716,-187500.02235174447,-187500.02235174447,-187500.02235174447,-187500.02235174447
talvez,28706.032479528487,-20686.159513730945,-18997.798144554872,37549.43311803736,-187500.02235174447,-187500.02235174447,-187500.02235174447,-187500.02235174447
talvez,27531.224790957545,-20625.385120556966,-19808.987654326877,37532.53519922915,-187500.02235174447,-187500.02235174447,-187500.02235174447,-187500.02235174447
talvez,27499.28414813091,-20923.870316013137,-19584.754953951237,37310.068286665475,-187500.02235174447,-187500.02235174447,-187500.02235174447,-187500.02235174447
talvez,28709.049965029953,-20980.57669169625,-18698.70945199841,37341.22661843617,-187500.02235174447,-187500.02235174447,-187500.02235174447,-187500.02235174447
talvez,28845.306199229504,-20767.58691878163,-18898.623454406676,37509.22232976226,-187500.02235174447,-187500.02235174447,-187500.02235174447,-187500.02235174447
talvez,27604.024422648483,-20652.251917392245,-19880.580291817223,37518.27478626666,-187500.02235174447,-187500.02235174447,-187500.02235174447,-187500.02235174447
talvez,27303.3934597246,-20871.053143865247,-19735.830394724657,37345.71931907169,-187500.02235174447,-187500.02235174447,-187500.02235174447,-187500.02235174447
talvez,28574.358352942272,-20937.03549349731,-18694.75319322982,37373.144909518356,-187500.02235174447,-187500.02235174447,-187500.02235174447,-187500.02235174447
talvez,28973.225232747227,-20752.275973829746,-18721.03884470926,37523.773315402665,-187500.02235174447,-187500.02235174447,-187500.02235174447,-187500.02235174447
talvez,27830.44759398074,-20622.524097266687,-19726.956752175898,37555.55749601811,-187500.02235174447,-187500.02235174447,-187500.02235174447,-187500.02235174447
talvez,27200.03899336326,-20812.44686990343,-19858.675582251024,37391.54039520507,-187500.02235174447,-187500.02235174447,-187500.02235174447,-187500.02235174447
talvez,28305.26570144483,-21003.39782278512,-18891.49324792543,37305.50853079659,-187500.02235174447,-187500.02235174447,-187500.02235174447,-187500.02235174447
talvez,28979.68488689481,-20819.442965917944,-18660.51032072429,37462.77540478414,-187500.02235174447,-187500.02235174447,-187500.02235174447,-187500.02235174447
talvez,28111.85605667306,-20552.07139874356,-19472.77271423015,37616.17542698091,-187500.02235174447,-187500.02235174447,-187500.02235174447,-187500.02235174447
talvez,27267.63066859611,-20640.427844575388,-19814.9779218409,37534.122173085474,-187500.02235174447,-187500.02235174447,-187500.02235174447,-187500.02235174447
talvez,28107.22924557081,-20944.29981044529,-18989.460943873044,37359.82326982299,-187500.02235174447,-187500.02235174447,-187500.02235174447,-187500.02235174447
talvez,28988.849102121487,-20865.55461472924,-18611.202372455882,37461.16607918335,-187500.02235174447,-187500.02235174447,-187500.02235174447,-187500.02235174447
talvez,28346.772890898337,-20585.59901542652,-19310.83432565145,37643.042223816185,-187500.02235174447,-187500.02235174447,-187500.02235174447,-187500.02235174447
talvez,27259.047598725272,-20616.623236730487,-19900.003957748886,37563.492365299746,-187500.02235174447,-187500.02235174447,-187500.02235174447,-187500.02235174447
talvez,27884.538815562584,-20894.27660635431,-19147.487777172064,37397.06127608553,-187500.02235174447,-187500.02235174447,-187500.02235174447,-187500.02235174447
talvez,28979.550776428077,-20853.03763783427,-18550.47268277081,37474.46536713426,-187500.02235174447,-187500.02235174447,-187500.02235174447,-187500.02235174447
talvez,28579.566309400358,-20604.374480768976,-19105.06416619589,37643.399851727474,-187500.02235174447,-187500.02235174447,-187500.02235174447,-187500.02235174447
talvez,27405.026841762883,-20575.004288554705,-19849.757236213354,37627.954796308855,-187500.02235174447,-187500.02235174447,-187500.02235174447,-187500.02235174447
talvez,27705.613101197854,-20883.324251571208,-19304.44172673723,37436.91443644934,-187500.02235174447,-187500.02235174447,-187500.02235174447,-187500.02235174447
talvez,28887.75216195013,-20908.581722805706,-18539.408569265433,37461.926038494836,-187500.02235174447,-187500.02235174447,-187500.02235174447,-187500.02235174447
talvez,28831.157544989295,-20594.159733552904,-18895.628320649663,37632.693366133375,-187500.02235174447,-187500.02235174447,-187500.02235174447,-187500.02235174447
talvez,27578.36462001379,-20545.58939285152,-19777.941081278455,37595.14243544846,-187500.02235174447,-187500.02235174447,-187500.02235174447,-187500.02235174447
talvez,27584.131370083258,-20870.65081246505,-19367.607756567926,37416.7308112062,-187500.02235174447,-187500.02235174447,-187500.02235174447,-187500.02235174447
talvez,28808.47052436716,-20985.561130709786,-18519.984903333774,37401.73279067669,-187500.02235174447,-187500.02235174447,-187500.02235174447,-187500.02235174447
talvez,28948.83947954649,-20764.97176468036,-18783.28845301729,37505.84721634951,-187500.02235174447,-187500.02235174447,-187500.02235174447,-187500.02235174447
talvez,27835.767309161107,-20554.93242203384,-19661.51084441076,37560.85485945402,-187500.02235174447,-187500.02235174447,-187500.02235174447,-187500.02235174447
talvez,27433.637074665676,-20822.236933974855,-19610.101832163553,37356.29169419905,-187500.02235174447,-187500.02235174447,-187500.02235174447,-187500.02235174447
talvez,28611.57400746036,-20983.460066730986,-18648.373323485055,37306.022620919066,-187500.02235174447,-187500.02235174447,-187500.02235174447,-187500.02235174447
talvez,29026.154163617393,-20816.22431471638,-18660.331506768645,37394.71434291772,-187500.02235174447,-187500.02235174447,-187500.02235174447,-187500.02235174447
talvez,27983.065305121578,-20653.168338914915,-19557.150549548933,37520.86758862348,-187500.02235174447,-187500.02235174447,-187500.02235174447,-187500.02235174447
talvez,27343.201916599504,-20787.59173006913,-19716.47378402636,37378.68814214327,-187500.02235174447,-187500.02235174447,-187500.02235174447,-187500.02235174447
talvez,28392.23633912043,-20984.242377786923,-18764.62474639711,37263.12962330933,-187500.02235174447,-187500.02235174447,-187500.02235174447,-187500.02235174447
talvez,29055.770225020675,-20835.335056225667,-18543.2754210562,37389.79695913756,-187500.02235174447,-187500.02235174447,-187500.02235174447,-187500.02235174447
talvez,28178.41955166096,-20560.185081980835,-19392.753469080148,37532.42344050687,-187500.02235174447,-187500.02235174447,-187500.02235174447,-187500.02235174447
talvez,27263.629706338612,-20738.52965098973,-19869.180902145017,37430.097154390474,-187500.02235174447,-187500.02235174447,-187500.02235174447,-187500.02235174447
talvez,28104.971719380825,-21067.860253794224,-19014.785470340907,37219.29785243247,-187500.02235174447,-187500.02235174447,-187500.02235174447,-187500.02235174447
talvez,29041.46510856928,-20949.44071167001,-18560.039229397684,37306.62611801936,-187500.02235174447,-187500.02235174447,-187500.02235174447,-187500.02235174447
talvez,28402.205217147497,-20672.2790804242,-19281.933520070736,37465.27880016313,-187500.02235174447,-187500.02235174447,-187500.02235174447,-187500.02235174447
talvez,27313.74231740741,-20650.284963880178,-19883.865998252153,37457.03100645912,-187500.02235174447,-187500.02235174447,-187500.02235174447,-187500.02235174447
talvez,27910.913874019847,-20890.94619643047,-19145.967858549102,37288.878832921844,-187500.02235174447,-187500.02235174447,-187500.02235174447,-187500.02235174447
talvez,29008.518637242156,-20907.687653027493,-18492.7157750983,37339.90786551331,-187500.02235174447,-187500.02235174447,-187500.02235174447,-187500.02235174447
talvez,28645.8615834548,-20669.03807747818,-19041.0934735648,37480.47798639274,-187500.02235174447,-187500.02235174447,-187500.02235174447,-187500.02235174447
talvez,27411.19592323255,-20637.99150442976,-19888.22458842094,37483.18254747183,-187500.02235174447,-187500.02235174447,-187500.02235174447,-187500.02235174447
talvez,27662.988324521582,-20897.42820232251,-19372.525140348094,37320.841827492935,-187500.02235174447,-187500.02235174447,-187500.02235174447,-187500.02235174447
talvez,28934.06497646153,-20866.493387996365,-18509.74780437324,37380.02924681059,-187500.02235174447,-187500.02235174447,-187500.02235174447,-187500.02235174447
talvez,28889.115618361906,-20628.38025431398,-18842.945258968506,37557.32328383008,-187500.02235174447,-187500.02235174447,-187500.02235174447,-187500.02235174447
talvez,27654.785234306484,-20535.240535168712,-19744.212298895396,37592.571984836104,-187500.02235174447,-187500.02235174447,-187500.02235174447,-187500.02235174447
talvez,27522.48525887552,-20841.25826850632,-19501.181781432842,37359.286827956064,-187500.02235174447,-187500.02235174447,-187500.02235174447,-187500.02235174447
talvez,28752.457052762158,-20927.088967214702,-18610.48711663331,37353.74359533114,-187500.02235174447,-187500.02235174447,-187500.02235174447,-187500.02235174447
talvez,28982.992945074195,-20697.693013869884,-18752.845377069163,37489.396332430406,-187500.02235174447,-187500.02235174447,-187500.02235174447,-187500.02235174447
talvez,27844.864469154414,-20527.529183331633,-19660.013277532253,37587.98987722277,-187500.02235174447,-187500.02235174447,-187500.02235174447,-187500.02235174447
talvez,27418.23672273597,-20735.690979443905,-19680.42042021995,37419.2342065852,-187500.02235174447,-187500.02235174447,-187500.02235174447,-187500.02235174447
talvez,28578.135797755218,-20886.587606261684,-18717.17199291849,37323.8593129944,-187500.02235174447,-187500.02235174447,-187500.02235174447,-187500.02235174447
talvez,29081.22886195527,-20723.889258371506,-18633.755282611284,37435.75214573767,-187500.02235174447,-187500.02235174447,-187500.02235174447,-187500.02235174447
talvez,28083.871672615016,-20534.413520623868,-19526.685121856346,37562.57594377708,-187500.02235174447,-187500.02235174447,-187500.02235174447,-187500.02235174447
talvez,27352.232021359447,-20689.311109699145,-19790.323947706693,37436.69091900479,-187500.02235174447,-187500.02235174447,-187500.02235174447,-187500.02235174447
talvez,28407.81550500578,-20887.593434762173,-18783.400211739565,37401.19634880976,-187500.02235174447,-187500.02235174447,-187500.02235174447,-187500.02235174447
talvez,29180.716476525842,-20712.62397916603,-18466.050143963115,37509.378791973446,-187500.02235174447,-187500.02235174447,-187500.02235174447,-187500.02235174447
talvez,28344.224792030433,-20480.81403742004,-19336.87410794188,37606.6759355874,-187500.02235174447,-187500.02235174447,-187500.02235174447,-187500.02235174447
talvez,27364.70429476551,-20628.022626402693,-19841.50944250935,37449.65493078887,-187500.02235174447,-187500.02235174447,-187500.02235174447,-187500.02235174447
talvez,28143.394368099496,-20935.537926618807,-19008.348167937776,37272.76322516957,-187500.02235174447,-187500.02235174447,-187500.02235174447,-187500.02235174447
talvez,29106.6204436565,-20813.586808870652,-18522.13067080148,37389.05935157053,-187500.02235174447,-187500.02235174447,-187500.02235174447,-187500.02235174447
talvez,28607.014251591478,-20471.3816012599,-19115.860058767805,37627.77598235321,-187500.02235174447,-187500.02235174447,-187500.02235174447,-187500.02235174447
talvez,27517.81374428436,-20454.66249640733,-19707.89071415552,37600.79742679565,-187500.02235174447,-187500.02235174447,-187500.02235174447,-187500.02235174447
talvez,27770.343753140423,-20991.841970901725,-19322.233715323655,37170.90632568674,-187500.02235174447,-187500.02235174447,-187500.02235174447,-187500.02235174447
talvez,28862.382931993357,-21010.908008922102,-18686.79597220373,37217.509712876046,-187500.02235174447,-187500.02235174447,-187500.02235174447,-187500.02235174447
talvez,28715.53197092199,-20596.104335320513,-19054.213947560067,37510.80930361859,-187500.02235174447,-187500.02235174447,-187500.02235174447,-187500.02235174447
talvez,27607.84657095034,-20450.393313216366,-19792.76028785232,37577.70807477332,-187500.02235174447,-187500.02235174447,-187500.02235174447,-187500.02235174447
talvez,27700.315737761946,-20837.54787892674,-19334.035436396058,37280.56398398447,-187500.02235174447,-187500.02235174447,-187500.02235174447,-187500.02235174447
talvez,29010.64205296541,-20769.553872293698,-18382.34286097799,37429.404250312364,-187500.02235174447,-187500.02235174447,-187500.02235174447,-187500.02235174447
talvez,28876.71040018921,-20651.111978425026,-18865.989907501928,37488.837538819025,-187500.02235174447,-187500.02235174447,-187500.02235174447,-187500.02235174447
talvez,27623.001053691038,-20551.087921987524,-19911.582161376737,37483.294306194104,-187500.02235174447,-187500.02235174447,-187500.02235174447,-187500.02235174447
talvez,27476.977107164515,-20790.005718470304,-19659.27566996523,37304.703867996206,-187500.02235174447,-187500.02235174447,-187500.02235174447,-187500.02235174447
talvez,28671.9684209786,-20943.338685433708,-18660.331506768645,37253.22780051563,-187500.02235174447,-187500.02235174447,-187500.02235174447,-187500.02235174447
talvez,28868.082626829462,-20800.041651730735,-18928.306571043322,37342.8135922925,-187500.02235174447,-187500.02235174447,-187500.02235174447,-187500.02235174447
talvez,27789.58860511644,-20570.131608263448,-19830.802956915257,37468.98918974271,-187500.02235174447,-187500.02235174447,-187500.02235174447,-187500.02235174447
talvez,27441.169612547114,-20670.28977516768,-19682.297966754195,37400.57049996501,-187500.02235174447,-187500.02235174447,-187500.02235174447,-187500.02235174447
talvez,28637.524382772972,-20791.637395815542,-18636.482195434834,37381.1244822889,-187500.02235174447,-187500.02235174447,-187500.02235174447,-187500.02235174447
talvez,29018.711032713778,-20776.97465145286,-18718.915428986005,37386.287735258076,-187500.02235174447,-187500.02235174447,-187500.02235174447,-187500.02235174447
talvez,28094.153475064457,-20520.220162894748,-19573.06499160111,37554.64107449545,-187500.02235174447,-187500.02235174447,-187500.02235174447,-187500.02235174447
talvez,27391.124056711684,-20609.627140715977,-19783.506665647827,37459.91438149386,-187500.02235174447,-187500.02235174447,-187500.02235174447,-187500.02235174447
talvez,28421.852400523712,-20798.454677874408,-18802.24273231539,37390.31104926003,-187500.02235174447,-187500.02235174447,-187500.02235174447,-187500.02235174447
talvez,29199.894273268495,-20663.204272175346,-18478.790638302642,37535.19505681933,-187500.02235174447,-187500.02235174447,-187500.02235174447,-187500.02235174447
talvez,28451.602572393727,-20408.014405729104,-19256.005496502577,37693.78068372973,-187500.02235174447,-187500.02235174447,-187500.02235174447,-187500.02235174447
talvez,27457.128758088205,-20485.686717711298,-19770.5650056082,37584.748874276745,-187500.02235174447,-187500.02235174447,-187500.02235174447,-187500.02235174447
talvez,28222.117212071087,-20761.998982667803,-18923.255076796424,37421.04469788608,-187500.02235174447,-187500.02235174447,-187500.02235174447,-187500.02235174447
talvez,29167.037208919195,-20725.20801129437,-18469.626423075966,37471.202012443784,-187500.02235174447,-187500.02235174447,-187500.02235174447,-187500.02235174447
talvez,28710.81575284192,-20408.506144107123,-19055.622107460753,37703.257823378786,-187500.02235174447,-187500.02235174447,-187500.02235174447,-187500.02235174447
talvez,27590.702782953118,-20384.030983928562,-19720.385339306038,37674.11114860906,-187500.02235174447,-187500.02235174447,-187500.02235174447,-187500.02235174447
talvez,27973.565813728073,-20742.62002022505,-19125.918343772693,37416.70845946175,-187500.02235174447,-187500.02235174447,-187500.02235174447,-187500.02235174447
talvez,29138.874010905507,-20717.854287368573,-18414.88700090492,37499.722838368754,-187500.02235174447,-187500.02235174447,-187500.02235174447,-187500.02235174447
talvez,28889.42854278428,-20461.882109866394,-18898.355233473212,37667.584439228114,-187500.02235174447,-187500.02235174447,-187500.02235174447,-187500.02235174447
talvez,27698.214673783146,-20386.333213607457,-19700.42523150745,37666.042168860695,-187500.02235174447,-187500.02235174447,-187500.02235174447,-187500.02235174447
talvez,27841.80228016404,-20673.776647302708,-19255.849034291394,37472.118433966454,-187500.02235174447,-187500.02235174447,-187500.02235174447,-187500.02235174447
talvez,29032.479707298247,-20736.07095909965,-18449.286335621637,37469.346817654,-187500.02235174447,-187500.02235174447,-187500.02235174447,-187500.02235174447
talvez,29062.051065212618,-20508.06081391106,-18743.412940909024,37640.181200525905,-187500.02235174447,-187500.02235174447,-187500.02235174447,-187500.02235174447
talvez,27878.14621664837,-20361.634535984344,-19606.21262862833,37699.525082054744,-187500.02235174447,-187500.02235174447,-187500.02235174447,-187500.02235174447
talvez,27662.51893788802,-20635.733978239772,-19433.210126544254,37472.69957932229,-187500.02235174447,-187500.02235174447,-187500.02235174447,-187500.02235174447
talvez,28837.19251599223,-20782.786105011237,-18562.00618290975,37410.58408148099,-187500.02235174447,-187500.02235174447,-187500.02235174447,-187500.02235174447
talvez,29127.519324722212,-20604.21801855779,-18656.375248000055,37552.651769238924,-187500.02235174447,-187500.02235174447,-187500.02235174447,-187500.02235174447
talvez,28024.103107941522,-20398.60432131342,-19536.85516558351,37652.7875843987,-187500.02235174447,-187500.02235174447,-187500.02235174447,-187500.02235174447
talvez,27496.15490390717,-20615.103318107525,-19603.06103266013,37475.895878779396,-187500.02235174447,-187500.02235174447,-187500.02235174447,-187500.02235174447
talvez,28589.31166998287,-20831.669370134994,-18713.90863822802,37349.7649848181,-187500.02235174447,-187500.02235174447,-187500.02235174447,-187500.02235174447
talvez,29159.39291231548,-20679.588100861085,-18588.895331489486,37477.05816949107,-187500.02235174447,-187500.02235174447,-187500.02235174447,-187500.02235174447
talvez,28197.932624570447,-20452.606135917442,-19431.869021876933,37600.752723306745,-187500.02235174447,-187500.02235174447,-187500.02235174447,-187500.02235174447
talvez,27366.850062233218,-20643.266516121213,-19781.383249924573,37420.7317734637,-187500.02235174447,-187500.02235174447,-187500.02235174447,-187500.02235174447
talvez,28350.438576989007,-20874.405905533542,-18871.711954082486,37297.32779232595,-187500.02235174447,-187500.02235174447,-187500.02235174447,-187500.02235174447
talvez,29163.930316439906,-20746.397465038,-18529.417339493913,37418.02721238461,-187500.02235174447,-187500.02235174447,-187500.02235174447,-187500.02235174447
talvez,28382.602737260193,-20535.86638401346,-19319.327988544464,37535.64209170843,-187500.02235174447,-187500.02235174447,-187500.02235174447,-187500.02235174447
talvez,27356.188280128037,-20625.161603112414,-19861.69306775249,37446.34687260949,-187500.02235174447,-187500.02235174447,-187500.02235174447,-187500.02235174447
talvez,28061.02818978169,-20897.3834988336,-19079.672584494663,37269.254001290086,-187500.02235174447,-187500.02235174447,-187500.02235174447,-187500.02235174447
talvez,29088.13555099196,-20821.186401985455,-18516.967417832308,37359.44329016725,-187500.02235174447,-187500.02235174447,-187500.02235174447,-187500.02235174447
talvez,28654.24348762554,-20544.158881206382,-19095.519971313475,37543.80047843462,-187500.02235174447,-187500.02235174447,-187500.02235174447,-187500.02235174447
talvez,27450.043255095872,-20548.78569230863,-19862.229509619418,37465.30115190758,-187500.02235174447,-187500.02235174447,-187500.02235174447,-187500.02235174447
talvez,27806.754744858117,-20883.123085871113,-19297.691499911725,37241.135506765306,-187500.02235174447,-187500.02235174447,-187500.02235174447,-187500.02235174447
talvez,28942.26806667663,-20907.03945243829,-18596.003186226273,37285.70488520919,-187500.02235174447,-187500.02235174447,-187500.02235174447,-187500.02235174447
talvez,28760.481329021615,-20655.112940682524,-19024.083796034312,37474.219497945254,-187500.02235174447,-187500.02235174447,-187500.02235174447,-187500.02235174447
talvez,27550.69316037812,-20560.2521372142,-19848.237317590396,37506.89774833891,-187500.02235174447,-187500.02235174447,-187500.02235174447,-187500.02235174447
talvez,27615.51321929851,-20849.729579654882,-19442.41904525984,37303.02748716206,-187500.02235174447,-187500.02235174447,-187500.02235174447,-187500.02235174447
talvez,28837.259571225593,-20917.455365354464,-18609.07895673263,37284.81081543098,-187500.02235174447,-187500.02235174447,-187500.02235174447,-187500.02235174447
talvez,28906.192351125763,-20675.743600814774,-18880.049154764314,37452.203029656775,-187500.02235174447,-187500.02235174447,-187500.02235174447,-187500.02235174447
talvez,27706.95420586517,-20536.91691600286,-19789.04989827274,37528.24366429373,-187500.02235174447,-187500.02235174447,-187500.02235174447,-187500.02235174447
talvez,27479.704019988065,-20789.44692485892,-19605.206800127842,37339.72905155767,-187500.02235174447,-187500.02235174447,-187500.02235174447,-187500.02235174447
talvez,28686.20648219663,-20928.38536839311,-18667.55112022771,37280.362818284375,-187500.02235174447,-187500.02235174447,-187500.02235174447,-187500.02235174447
talvez,29025.282445583638,-20730.415967752455,-18731.901792514538,37439.14961089488,-187500.02235174447,-187500.02235174447,-187500.02235174447,-187500.02235174447
$SILENCE,27910.846818786482,-20532.15599443388,-19658.98509728731,37548.874324425975,-187500.02235174447,-187500.02235174447,-187500.02235174447,-187500.02235174447
$SILENCE,27335.13293685114,-20741.547136491197,-19774.633023099068,37361.41024367932,-187500.02235174447,-187500.02235174447,-187500.02235174447,-187500.02235174447
$SILENCE,28431.418947150585,-20948.211365724965,-18824.43801455951,37256.08882380591,-187500.02235174447,-187500.02235174447,-187500.02235174447,-187500.02235174447
$SILENCE,29077.13849271995,-20775.655898529996,-18633.799986100195,37416.954328650754,-187500.02235174447,-187500.02235174447,-187500.02235174447,-187500.02235174447
$SILENCE,28122.31667307814,-20552.719599332762,-19517.364444418483,37533.786896918646,-187500.02235174447,-187500.02235174447,-187500.02235174447,-187500.02235174447
$SILENCE,27242.619066550622,-20710.366452976043,-19909.525800886848,37387.047694569555,-187500.02235174447,-187500.02235174447,-187500.02235174447,-187500.02235174447
$SILENCE,28173.368057414064,-20964.908118833082,-18987.42693512761,37246.00818705656,-187500.02235174447,-187500.02235174447,-187500.02235174447,-187500.02235174447
$SILENCE,29074.880966529963,-20823.2651142198,-18558.25108984126,37378.97871482119,-187500.02235174447,-187500.02235174447,-187500.02235174447,-187500.02235174447
$SILENCE,28393.085705409732,-20556.362933678978,-19305.91694187128,37561.41365306541,-187500.02235174447,-187500.02235174447,-187500.02235174447,-187500.02235174447
$SILENCE,27264.233203438904,-20677.3305746711,-19980.80551395482,37417.9825088957,-187500.02235174447,-187500.02235174447,-187500.02235174447,-187500.02235174447
$SILENCE,27927.81179282806,-20962.00239205389,-19186.826847413406,37232.99947178358,-187500.02235174447,-187500.02235174447,-187500.02235174447,-187500.02235174447
$SILENCE,28983.97642183023,-20889.649795252062,-18566.074200400617,37338.90203701282,-187500.02235174447,-187500.02235174447,-187500.02235174447,-187500.02235174447
$SILENCE,28528.604332042258,-20640.360789342023,-19199.27676907501,37491.72091385376,-187500.02235174447,-187500.02235174447,-187500.02235174447,-187500.02235174447
$SILENCE,27348.90161143561,-20632.381216571477,-19975.61990924119,37444.55873305306,-187500.02235174447,-187500.02235174447,-187500.02235174447,-187500.02235174447
$SILENCE,27717.236008314612,-20924.607923580163,-19361.013991953612,37239.101498019874,-187500.02235174447,-187500.02235174447,-187500.02235174447,-187500.02235174447
$SILENCE,28885.181711337773,-20935.38146440762,-18586.749564021775,37289.90701316679,-187500.02235174447,-187500.02235174447,-187500.02235174447,-187500.02235174447
$SILENCE,28733.860401375343,-20683.365545674034,-19007.744670837485,37474.89005027891,-187500.02235174447,-187500.02235174447,-187500.02235174447,-187500.02235174447
$SILENCE,27535.203401470593,-20591.678689918364,-19873.96417545845,37488.70342835229,-187500.02235174447,-187500.02235174447,-187500.02235174447,-187500.02235174447
$SILENCE,27525.502744376987,-20885.492370783373,-19521.499517142718,37263.55430645398,-187500.02235174447,-187500.02235174447,-187500.02235174447,-187500.02235174447
$SILENCE,28735.805003142956,-20972.775932881348,-18656.643468933522,37255.41827147225,-187500.02235174447,-187500.02235174447,-187500.02235174447,-187500.02235174447
$SILENCE,28848.413091708793,-20735.847441655093,-18896.321224727777,37440.736584751205,-187500.02235174447,-187500.02235174447,-187500.02235174447,-187500.02235174447
$SILENCE,27664.083559999894,-20577.84296010053,-19814.799107885257,37509.870530351465,-187500.02235174447,-187500.02235174447,-187500.02235174447,-187500.02235174447
$SILENCE,27344.185393355536,-20840.610067917118,-19697.43009775044,37298.601841759904,-187500.02235174447,-187500.02235174447,-187500.02235174447,-187500.02235174447
$SILENCE,28543.289428149397,-20995.44060175903,-18751.07958925719,37231.479553160614,-187500.02235174447,-187500.02235174447,-187500.02235174447,-187500.02235174447
$SILENCE,28939.76467129763,-20791.905616749005,-18762.322516718214,37402.64921219936,-187500.02235174447,-187500.02235174447,-187500.02235174447,-187500.02235174447
$SILENCE,27875.508710802642,-20591.857503874005,-19676.397106217995,37505.57899541605,-187500.02235174447,-187500.02235174447,-187500.02235174447,-187500.02235174447
$SILENCE,27260.142834203583,-20790.72097429287,-19811.44634621696,37338.49970561263,-187500.02235174447,-187500.02235174447,-187500.02235174447,-187500.02235174447
$SILENCE,28330.1878965125,-21001.408517528598,-18876.606986118197,37219.47666638812,-187500.02235174447,-187500.02235174447,-187500.02235174447,-187500.02235174447
$SILENCE,28989.31848875505,-20840.140681283556,-18679.486951766845,37362.59488613545,-187500.02235174447,-187500.02235174447,-187500.02235174447,-187500.02235174447
$SILENCE,28114.76178345225,-20607.570780226088,-19513.966979261277,37519.660594422894,-187500.02235174447,-187500.02235174447,-187500.02235174447,-187500.02235174447
$SILENCE,27224.53650528628,-20734.52868873223,-19912.02919626584,37374.73188337468,-187500.02235174447,-187500.02235174447,-187500.02235174447,-187500.02235174447
$SILENCE,28115.208818341354,-20996.20056107051,-19026.743653624493,37219.85664604386,-187500.02235174447,-187500.02235174447,-187500.02235174447,-187500.02235174447
$SILENCE,28993.319451012547,-20903.440821580985,-18620.16542198246,37327.8602752519,-187500.02235174447,-187500.02235174447,-187500.02235174447,-187500.02235174447
$SILENCE,28332.914809336045,-20641.23250737578,-19349.88282321487,37491.02800977564,-187500.02235174447,-187500.02235174447,-187500.02235174447,-187500.02235174447
$SILENCE,27254.018456222828,-20684.99722301927,-19943.254583269907,37425.38093631041,-187500.02235174447,-187500.02235174447,-187500.02235174447,-187500.02235174447
$SILENCE,27867.059751398534,-20980.174360296056,-19200.99785339807,37227.791515325494,-187500.02235174447,-187500.02235174447,-187500.02235174447,-187500.02235174447
$SILENCE,28938.87060151942,-20932.743958561892,-18606.01676774225,37289.25881257759,-187500.02235174447,-187500.02235174447,-187500.02235174447,-187500.02235174447
$SILENCE,28521.854105216757,-20673.37431590251,-19178.579053709396,37463.4906606067,-187500.02235174447,-187500.02235174447,-187500.02235174447,-187500.02235174447
$SILENCE,27333.65772171709,-20640.785472486674,-19932.99513256492,37454.48290759121,-187500.02235174447,-187500.02235174447,-187500.02235174447,-187500.02235174447
$SILENCE,27633.238152651567,-20949.01602852536,-19384.7738963096,37243.303625977474,-187500.02235174447,-187500.02235174447,-187500.02235174447,-187500.02235174447
$SILENCE,28819.355823916892,-20971.479531702942,-18624.188735984415,37271.93621062472,-187500.02235174447,-187500.02235174447,-187500.02235174447,-187500.02235174447
$SILENCE,28702.232682971084,-20725.252714783277,-19017.445327931087,37447.66562553235,-187500.02235174447,-187500.02235174447,-187500.02235174447,-187500.02235174447
$SILENCE,27485.3366595908,-20621.093585621547,-19885.07299245274,37474.55477411208,-187500.02235174447,-187500.02235174447,-187500.02235174447,-187500.02235174447
$SILENCE,27457.37462727721,-20903.172600647522,-19559.989221094755,37264.29191402101,-187500.02235174447,-187500.02235174447,-187500.02235174447,-187500.02235174447
$SILENCE,28678.025743725986,-21005.700052464017,-18684.65020473602,37246.5446289235,-187500.02235174447,-187500.02235174447,-187500.02235174447,-187500.02235174447
$SILENCE,28840.14294626033,-20781.377945110555,-18872.851893049705,37418.921282162824,-187500.02235174447,-187500.02235174447,-187500.02235174447,-187500.02235174447
$SILENCE,27685.228310254613,-20608.55425698212,-19764.842959027643,37501.42157094736,-187500.02235174447,-187500.02235174447,-187500.02235174447,-187500.02235174447
$SILENCE,27311.93182610653,-20857.396228003054,-19710.12588860105,37291.06930387847,-187500.02235174447,-187500.02235174447,-187500.02235174447,-187500.02235174447
$SILENCE,28484.213767554018,-21016.25007584692,-18792.072688588225,37219.65548034376,-187500.02235174447,-187500.02235174447,-187500.02235174447,-187500.02235174447
$SILENCE,28942.379825398904,-20820.26998046279,-18757.04750502676,37390.31104926003,-187500.02235174447,-187500.02235174447,-187500.02235174447,-187500.02235174447
$SILENCE,27898.195731424777,-20605.089736591548,-19636.767463298736,37505.735457627234,-187500.02235174447,-187500.02235174447,-187500.02235174447,-187500.02235174447
$SILENCE,27228.291598354772,-20794.744288294827,-19824.58917195668,37336.75626954511,-187500.02235174447,-187500.02235174447,-187500.02235174447,-187500.02235174447
$SILENCE,28291.675840816002,-21026.375416085175,-18899.383413718155,37206.5797098374,-187500.02235174447,-187500.02235174447,-187500.02235174447,-187500.02235174447
$SILENCE,28995.576977202534,-20863.632364706085,-18663.661916692487,37360.53852564556,-187500.02235174447,-187500.02235174447,-187500.02235174447,-187500.02235174447
$SILENCE,28126.51880103574,-20627.016797902204,-19485.401449847395,37499.65578313539,-187500.02235174447,-187500.02235174447,-187500.02235174447,-187500.02235174447
$SILENCE,27184.772751900287,-20753.259450585778,-19933.84449885422,37364.874764069886,-187500.02235174447,-187500.02235174447,-187500.02235174447,-187500.02235174447
$SILENCE,28030.45100336683,-21020.943942182534,-19080.16432287268,37207.853759271355,-187500.02235174447,-187500.02235174447,-187500.02235174447,-187500.02235174447
$SILENCE,28964.798625087577,-20911.75567051836,-18628.815547086662,37325.3568798729,-187500.02235174447,-187500.02235174447,-187500.02235174447,-187500.02235174447
$SILENCE,28349.09747232169,-20654.598850560054,-19317.517497243585,37495.00662028869,-187500.02235174447,-187500.02235174447,-187500.02235174447,-187500.02235174447
$SILENCE,27245.167165418527,-20696.731888858307,-19944.975667592964,37417.1331426064,-187500.02235174447,-187500.02235174447,-187500.02235174447,-187500.02235174447
$SILENCE,27804.720736112686,-20997.698127949017,-19245.768397542048,37209.17251219422,-187500.02235174447,-187500.02235174447,-187500.02235174447,-187500.02235174447
$SILENCE,28911.48971456167,-20966.71861013396,-18607.40257589848,37283.53676599703,-187500.02235174447,-187500.02235174447,-187500.02235174447,-187500.02235174447
$SILENCE,28559.89677427969,-20699.48115342631,-19135.775463077483,37469.21270718726,-187500.02235174447,-187500.02235174447,-187500.02235174447,-187500.02235174447
$SILENCE,27357.596440028723,-20654.487091837775,-19917.19244923502,37458.975608226734,-187500.02235174447,-187500.02235174447,-187500.02235174447,-187500.02235174447
$SILENCE,27593.630861476766,-20961.71181937597,-19423.42006247283,37229.69141360419,-187500.02235174447,-187500.02235174447,-187500.02235174447,-187500.02235174447
$SILENCE,28789.225672391138,-20996.73700293744,-18643.03125656024,37256.96054183967,-187500.02235174447,-187500.02235174447,-187500.02235174447,-187500.02235174447
$SILENCE,28716.73896512258,-20740.228383568334,-18990.08679271779,37442.83764873,-187500.02235174447,-187500.02235174447,-187500.02235174447,-187500.02235174447
$SILENCE,27502.72631677703,-20623.641684489452,-19863.347096842183,37478.689846836314,-187500.02235174447,-187500.02235174447,-187500.02235174447,-187500.02235174447
$SILENCE,27420.13662101467,-20910.99571120688,-19587.481866774782,37260.98385584162,-187500.02235174447,-187500.02235174447,-187500.02235174447,-187500.02235174447
$SILENCE,28643.112318886797,-21023.02265441688,-18702.50924855581,37232.48538166111,-187500.02235174447,-187500.02235174447,-187500.02235174447,-187500.02235174447
$SILENCE,28850.58121092096,-20793.06790746068,-18859.418494632067,37404.88438664489,-187500.02235174447,-187500.02235174447,-187500.02235174447,-187500.02235174447
$SILENCE,27698.505246461064,-20612.801088428627,-19763.166578193497,37490.11158825298,-187500.02235174447,-187500.02235174447,-187500.02235174447,-187500.02235174447
$SILENCE,27279.92412804653,-20857.30682102523,-19732.38822607854,37294.8020452025,-187500.02235174447,-187500.02235174447,-187500.02235174447,-187500.02235174447
$SILENCE,28444.62882812367,-21028.49883180843,-18799.314653791746,37222.7847245675,-187500.02235174447,-187500.02235174447,-187500.02235174447,-187500.02235174447
$SILENCE,28940.83755503149,-20836.16207077051,-18735.70158907194,37394.64728768436,-187500.02235174447,-187500.02235174447,-187500.02235174447,-187500.02235174447
$SILENCE,27942.787461613116,-20613.35988204001,-19606.994939684268,37508.261204750685,-187500.02235174447,-187500.02235174447,-187500.02235174447,-187500.02235174447
$SILENCE,27207.81740043371,-20795.370137139576,-19852.081817636707,37330.38602237535,-187500.02235174447,-187500.02235174447,-187500.02235174447,-187500.02235174447
$SILENCE,28208.86262760909,-21032.92447721058,-18948.065513141813,37200.34357313437,-187500.02235174447,-187500.02235174447,-187500.02235174447,-187500.02235174447
$SILENCE,28948.504203379656,-20886.364088817132,-18678.436419777445,37342.94770275924,-187500.02235174447,-187500.02235174447,-187500.02235174447,-187500.02235174447
$SILENCE,28148.959952468867,-20627.486184535766,-19453.594917487495,37508.752943128704,-187500.02235174447,-187500.02235174447,-187500.02235174447,-187500.02235174447
$SILENCE,27205.157542843528,-20740.13897659051,-19910.218704964962,37391.45098822725,-187500.02235174447,-187500.02235174447,-187500.02235174447,-187500.02235174447
$SILENCE,27989.368497057974,-21023.179116628067,-19095.78819224694,37212.77114305153,-187500.02235174447,-187500.02235174447,-187500.02235174447,-187500.02235174447
$SILENCE,28961.088235507996,-20917.969455476938,-18603.513372363257,37332.53178984306,-187500.02235174447,-187500.02235174447,-187500.02235174447,-187500.02235174447
$SILENCE,28382.423923304552,-20663.025458219705,-19277.820799090958,37485.28361145063,-187500.02235174447,-187500.02235174447,-187500.02235174447,-187500.02235174447
$SILENCE,27225.743499486867,-20699.592912148586,-19969.204958582515,37405.95727037874,-187500.02235174447,-187500.02235174447,-187500.02235174447,-187500.02235174447
$SILENCE,27743.946342938703,-20999.44156401653,-19282.894645082313,37216.77210530903,-187500.02235174447,-187500.02235174447,-187500.02235174447,-187500.02235174447
