WORD,Channel_1,Channel_2,Channel_3,Channel_4,Channel_5,Channel_6,Channel_7,Channel_8
$SILENCE,11389.286683712804,-3332.7345052641044,7474.736270277056,7295.788204167868,-187500.02235174447,-187500.02235174447,-187500.02235174447,-187500.02235174447
$SILENCE,11563.205607319547,-3272.675367912694,8035.027448538238,7247.128456488665,-187500.02235174447,-187500.02235174447,-187500.02235174447,-187500.02235174447
$SILENCE,11521.988990543961,-3238.6336611072616,8098.461699302399,7264.942796819544,-187500.02235174447,-187500.02235174447,-187500.02235174447,-187500.02235174447
$SILENCE,11348.472398337413,-3283.0465773399565,7586.204419875672,7312.999047398454,-187500.02235174447,-187500.02235174447,-187500.02235174447,-187500.02235174447
$SILENCE,11355.826122263208,-3335.640232043294,7411.279667768439,7301.867878659711,-187500.02235174447,-187500.02235174447,-187500.02235174447,-187500.02235174447
$SILENCE,11542.418484976111,-3288.1427750757666,7958.316261567625,7246.279090199362,-187500.02235174447,-187500.02235174447,-187500.02235174447,-187500.02235174447
$SILENCE,11540.295069252858,-3239.9300622856695,8141.377048656589,7251.352936190718,-187500.02235174447,-187500.02235174447,-187500.02235174447,-187500.02235174447
$SILENCE,11377.44025915149,-3274.396452235753,7682.696900689233,7301.957285637533,-187500.02235174447,-187500.02235174447,-187500.02235174447,-187500.02235174447
$SILENCE,11336.96124994293,-3333.0474296864786,7373.058184749864,7307.6569804736355,-187500.02235174447,-187500.02235174447,-187500.02235174447,-187500.02235174447
$SILENCE,11518.613877131209,-3294.803594923448,7870.317443647081,7255.443305426038,-187500.02235174447,-187500.02235174447,-187500.02235174447,-187500.02235174447
$SILENCE,11562.33388928579,-3240.131227985767,8171.775421115807,7249.184816978553,-187500.02235174447,-187500.02235174447,-187500.02235174447,-187500.02235174447
$SILENCE,11401.155460018572,-3261.521847429496,7786.498401939679,7291.429613999083,-187500.02235174447,-187500.02235174447,-187500.02235174447,-187500.02235174447
$SILENCE,11301.466679747902,-3324.7325807491043,7362.955196256065,7314.4072072991385,-187500.02235174447,-187500.02235174447,-187500.02235174447,-187500.02235174447
$SILENCE,11465.03674567184,-3305.3759700508085,7765.510113896145,7262.774677607379,-187500.02235174447,-187500.02235174447,-187500.02235174447,-187500.02235174447
$SILENCE,11553.795522903863,-3244.914501299203,8175.642272906575,7240.4452848965275,-187500.02235174447,-187500.02235174447,-187500.02235174447,-187500.02235174447
$SILENCE,11434.861890657174,-3256.5821119048733,7890.299903190125,7280.589017938259,-187500.02235174447,-187500.02235174447,-187500.02235174447,-187500.02235174447
$SILENCE,11323.550203269746,-3321.580984780906,7379.093155752797,7311.054445630843,-187500.02235174447,-187500.02235174447,-187500.02235174447,-187500.02235174447
$SILENCE,11456.565434523278,-3318.317630090431,7660.479266700658,7266.418011953594,-187500.02235174447,-187500.02235174447,-187500.02235174447,-187500.02235174447
$SILENCE,11577.935406915594,-3248.490780412052,8201.033854607804,7234.209148193497,-187500.02235174447,-187500.02235174447,-187500.02235174447,-187500.02235174447
$SILENCE,11472.345766108725,-3246.7026408556276,7997.29770389768,7270.977767822477,-187500.02235174447,-187500.02235174447,-187500.02235174447,-187500.02235174447
$SILENCE,11336.67067726501,-3313.780225966004,7439.8451971823215,7306.807614184334,-187500.02235174447,-187500.02235174447,-187500.02235174447,-187500.02235174447
$SILENCE,11421.272030028347,-3326.766589494537,7562.2880533084935,7276.364538236206,-187500.02235174447,-187500.02235174447,-187500.02235174447,-187500.02235174447
$SILENCE,11569.19587483357,-3264.494629442052,8132.123426452092,7236.600784850215,-187500.02235174447,-187500.02235174447,-187500.02235174447,-187500.02235174447
$SILENCE,11504.644036846643,-3244.8921495547474,8076.467582758378,7259.690136872547,-187500.02235174447,-187500.02235174447,-187500.02235174447,-187500.02235174447
$SILENCE,11345.834892491686,-3308.2146415966326,7477.127906933774,7307.25464907344,-187500.02235174447,-187500.02235174447,-187500.02235174447,-187500.02235174447
$SILENCE,11391.164230247048,-3340.870540245836,7458.6877177581455,7287.540410463859,-187500.02235174447,-187500.02235174447,-187500.02235174447,-187500.02235174447
$SILENCE,11552.454418236544,-3274.7317284025826,8057.714469160375,7240.132360474153,-187500.02235174447,-187500.02235174447,-187500.02235174447,-187500.02235174447
$SILENCE,11528.42629294709,-3239.617137863295,8134.55976659772,7253.34224144724,-187500.02235174447,-187500.02235174447,-187500.02235174447,-187500.02235174447
$SILENCE,11374.892160283585,-3290.1544320767443,7601.805937505476,7298.805689669334,-187500.02235174447,-187500.02235174447,-187500.02235174447,-187500.02235174447
$SILENCE,11370.622977092622,-3339.350621622875,7405.937600843621,7289.552067464837,-187500.02235174447,-187500.02235174447,-187500.02235174447,-187500.02235174447
$SILENCE,11537.210528518026,-3286.376987263797,7987.4852880818,7238.277165684362,-187500.02235174447,-187500.02235174447,-187500.02235174447,-187500.02235174447
$SILENCE,11546.888833867173,-3240.9805942750686,8198.865735395639,7245.183854721053,-187500.02235174447,-187500.02235174447,-187500.02235174447,-187500.02235174447
$SILENCE,11407.570410677245,-3281.258437783532,7723.488834320168,7290.379082009684,-187500.02235174447,-187500.02235174447,-187500.02235174447,-187500.02235174447
$SILENCE,11354.44031410698,-3341.965775724146,7379.115507497252,7298.358654780228,-187500.02235174447,-187500.02235174447,-187500.02235174447,-187500.02235174447
$SILENCE,11500.330150166768,-3300.5479932484623,7891.909228790907,7248.6036716227145,-187500.02235174447,-187500.02235174447,-187500.02235174447,-187500.02235174447
$SILENCE,11544.81012163283,-3243.036954764957,8223.3408955742,7240.378229663162,-187500.02235174447,-187500.02235174447,-187500.02235174447,-187500.02235174447
$SILENCE,11425.585916708222,-3271.334263245376,7829.659620482877,7279.516134204404,-187500.02235174447,-187500.02235174447,-187500.02235174447,-187500.02235174447
$SILENCE,11345.76783725832,-3338.9482902226796,7370.018347503942,7301.39849202615,-187500.02235174447,-187500.02235174447,-187500.02235174447,-187500.02235174447
$SILENCE,11476.74905976642,-3314.2719643440205,7783.190343760293,7255.331546703762,-187500.02235174447,-187500.02235174447,-187500.02235174447,-187500.02235174447
$SILENCE,11556.723601427508,-3244.936853043658,8232.169834634047,7236.28786042784,-187500.02235174447,-187500.02235174447,-187500.02235174447,-187500.02235174447
$SILENCE,11452.273899587859,-3258.370251461298,7945.396953272457,7273.01177656791,-187500.02235174447,-187500.02235174447,-187500.02235174447,-187500.02235174447
$SILENCE,11345.38785760258,-3330.7899034964926,7401.400196719193,7301.711416448524,-187500.02235174447,-187500.02235174447,-187500.02235174447,-187500.02235174447
$SILENCE,11448.69762047501,-3327.772417995026,7675.298473274526,7261.791200851346,-187500.02235174447,-187500.02235174447,-187500.02235174447,-187500.02235174447
$SILENCE,11559.070534595316,-3252.3352804583647,8222.178604862524,7237.181930206053,-187500.02235174447,-187500.02235174447,-187500.02235174447,-187500.02235174447
$SILENCE,11489.333091894758,-3252.558797902918,8053.2441202693135,7265.546293919837,-187500.02235174447,-187500.02235174447,-187500.02235174447,-187500.02235174447
$SILENCE,11357.524854841811,-3323.614993526339,7460.922892203676,7297.755157679935,-187500.02235174447,-187500.02235174447,-187500.02235174447,-187500.02235174447
$SILENCE,11421.137919561615,-3337.830702999914,7565.596111487879,7267.267378242896,-187500.02235174447,-187500.02235174447,-187500.02235174447,-187500.02235174447
$SILENCE,11561.506874740944,-3261.745364874049,8197.390520261588,7229.649392324614,-187500.02235174447,-187500.02235174447,-187500.02235174447,-187500.02235174447
$SILENCE,11511.729539838976,-3242.3216989423872,8159.414906432022,7257.074982771276,-187500.02235174447,-187500.02235174447,-187500.02235174447,-187500.02235174447
$SILENCE,11366.398497390568,-3308.9969526525683,7553.280300293005,7296.637570457169,-187500.02235174447,-187500.02235174447,-187500.02235174447,-187500.02235174447
$SILENCE,11398.696768128488,-3338.255386144565,7500.217258956106,7280.276093515885,-187500.02235174447,-187500.02235174447,-187500.02235174447,-187500.02235174447
$SILENCE,11552.365011258724,-3276.5422197034623,8094.483088789355,7240.646450596625,-187500.02235174447,-187500.02235174447,-187500.02235174447,-187500.02235174447
$SILENCE,11535.176519772593,-3238.231329707066,8214.400197792078,7253.118724002687,-187500.02235174447,-187500.02235174447,-187500.02235174447,-187500.02235174447
$SILENCE,11372.500523626868,-3296.457624013141,7621.36371390387,7294.022416355899,-187500.02235174447,-187500.02235174447,-187500.02235174447,-187500.02235174447
$SILENCE,11366.286738668292,-3347.419601371241,7404.551792687392,7285.5287534628815,-187500.02235174447,-187500.02235174447,-187500.02235174447,-187500.02235174447
$SILENCE,11535.80236861734,-3288.589809964873,8003.399730133979,7241.585223863748,-187500.02235174447,-187500.02235174447,-187500.02235174447,-187500.02235174447
$SILENCE,11554.510778726433,-3241.204111719622,8244.262128384367,7245.7873518213455,-187500.02235174447,-187500.02235174447,-187500.02235174447,-187500.02235174447
$SILENCE,11411.929000846028,-3280.543181960962,7766.180666229805,7287.071023830298,-187500.02235174447,-187500.02235174447,-187500.02235174447,-187500.02235174447
$SILENCE,11348.382991359591,-3340.065877445445,7393.8229553488445,7296.6152187127145,-187500.02235174447,-187500.02235174447,-187500.02235174447,-187500.02235174447
$SILENCE,11509.114385737705,-3298.0222461250123,7910.304714477625,7248.916596045089,-187500.02235174447,-187500.02235174447,-187500.02235174447,-187500.02235174447
$SILENCE,11557.662374694632,-3242.1652367312,8271.397146153111,7241.071133741276,-187500.02235174447,-187500.02235174447,-187500.02235174447,-187500.02235174447
$SILENCE,11425.07182658575,-3270.619007422806,7888.355301422514,7276.923331847589,-187500.02235174447,-187500.02235174447,-187500.02235174447,-187500.02235174447
$SILENCE,11333.966116185919,-3339.8647117453474,7403.277743253439,7296.30229429034,-187500.02235174447,-187500.02235174447,-187500.02235174447,-187500.02235174447
$SILENCE,11485.913274993096,-3319.524624291018,7795.662617166355,7252.157598991108,-187500.02235174447,-187500.02235174447,-187500.02235174447,-187500.02235174447
$SILENCE,11584.350357574267,-3251.7317833580714,8267.77616355135,7236.019639494377,-187500.02235174447,-187500.02235174447,-187500.02235174447,-187500.02235174447
$SILENCE,11469.708260262998,-3259.778411361982,8001.656294066464,7273.503514945926,-187500.02235174447,-187500.02235174447,-187500.02235174447,-187500.02235174447
$SILENCE,11339.062313921728,-3327.481845317107,7441.5439297609255,7300.035035614376,-187500.02235174447,-187500.02235174447,-187500.02235174447,-187500.02235174447
$SILENCE,11458.018297912873,-3328.3088598619534,7685.647330957334,7265.456886942016,-187500.02235174447,-187500.02235174447,-187500.02235174447,-187500.02235174447
$SILENCE,11583.478639540512,-3256.5821119048733,8237.668363770052,7239.350049418217,-187500.02235174447,-187500.02235174447,-187500.02235174447,-187500.02235174447
$SILENCE,11506.096900236238,-3252.3576322028202,8097.433519057456,7264.6298723971695,-187500.02235174447,-187500.02235174447,-187500.02235174447,-187500.02235174447
$SILENCE,11352.451008850458,-3317.714132990138,7510.499061405548,7301.44319551506,-187500.02235174447,-187500.02235174447,-187500.02235174447,-187500.02235174447
$SILENCE,11419.26037302737,-3337.808351255459,7584.840963463898,7279.337320248762,-187500.02235174447,-187500.02235174447,-187500.02235174447,-187500.02235174447
$SILENCE,11568.324156799812,-3270.082565555879,8184.158287544047,7242.769866319879,-187500.02235174447,-187500.02235174447,-187500.02235174447,-187500.02235174447
$SILENCE,11516.199888730036,-3248.6025391343287,8175.128182784103,7258.751363605424,-187500.02235174447,-187500.02235174447,-187500.02235174447,-187500.02235174447
$SILENCE,11356.496674596867,-3303.9231066612133,7606.276286396538,7298.738634435968,-187500.02235174447,-187500.02235174447,-187500.02235174447,-187500.02235174447
$SILENCE,11372.813448049243,-3343.0833629469116,7517.8527853313435,7286.959265108021,-187500.02235174447,-187500.02235174447,-187500.02235174447,-187500.02235174447
$SILENCE,11539.736275641475,-3285.0805860853898,8117.550089067232,7238.187758706541,-187500.02235174447,-187500.02235174447,-187500.02235174447,-187500.02235174447
$SILENCE,11534.19304301656,-3252.067059524901,8246.363192363166,7253.498703658427,-187500.02235174447,-187500.02235174447,-187500.02235174447,-187500.02235174447
$SILENCE,11388.124393001128,-3295.429443768197,7739.917366494819,7291.831945399278,-187500.02235174447,-187500.02235174447,-187500.02235174447,-187500.02235174447
$SILENCE,11368.276043924814,-3343.5527495804727,7512.108387006329,7290.759061665423,-187500.02235174447,-187500.02235174447,-187500.02235174447,-187500.02235174447
$SILENCE,11532.024923804394,-3307.32057181842,8027.718428101352,7246.994346021932,-187500.02235174447,-187500.02235174447,-187500.02235174447,-187500.02235174447
$SILENCE,11565.105505598249,-3253.162295003211,8299.605047655708,7241.160540719097,-187500.02235174447,-187500.02235174447,-187500.02235174447,-187500.02235174447
$SILENCE,11392.68414887001,-3282.9571703621355,7810.9959138626955,7292.837773899767,-187500.02235174447,-187500.02235174447,-187500.02235174447,-187500.02235174447
$SILENCE,11323.058464891728,-3340.9599472236573,7446.99775540802,7305.108881605731,-187500.02235174447,-187500.02235174447,-187500.02235174447,-187500.02235174447
$SILENCE,11492.104708207216,-3318.0941126458783,7921.771159383197,7257.34320370474,-187500.02235174447,-187500.02235174447,-187500.02235174447,-187500.02235174447
$SILENCE,11559.942252629073,-3261.231274751577,8270.503076374898,7243.328659931262,-187500.02235174447,-187500.02235174447,-187500.02235174447,-187500.02235174447
$SILENCE,11434.616021468166,-3275.357577247331,7923.961630339817,7281.751308649935,-187500.02235174447,-187500.02235174447,-187500.02235174447,-187500.02235174447
$SILENCE,11333.496729552357,-3338.165979166744,7483.967540737098,7308.863974674222,-187500.02235174447,-187500.02235174447,-187500.02235174447,-187500.02235174447
$SILENCE,11463.114495648682,-3332.42158084173,7832.542995517611,7260.003061294921,-187500.02235174447,-187500.02235174447,-187500.02235174447,-187500.02235174447
$SILENCE,11555.76247641593,-3268.6744056551943,8252.889901744116,7234.142092960131,-187500.02235174447,-187500.02235174447,-187500.02235174447,-187500.02235174447
$SILENCE,11455.961937422984,-3268.9649783331133,8012.161613960459,7268.9661108215,-187500.02235174447,-187500.02235174447,-187500.02235174447,-187500.02235174447
$SILENCE,11330.211023117427,-3326.1407406497888,7504.799366569444,7304.907715905633,-187500.02235174447,-187500.02235174447,-187500.02235174447,-187500.02235174447
$SILENCE,11435.264222057369,-3339.5294355785177,7717.140938894861,7275.7833928803675,-187500.02235174447,-187500.02235174447,-187500.02235174447,-187500.02235174447
$SILENCE,11557.505912483444,-3277.592751692862,8229.800549721784,7239.260642440396,-187500.02235174447,-187500.02235174447,-187500.02235174447,-187500.02235174447
$SILENCE,11487.65671106061,-3264.159353275222,8104.65313251652,7261.880607829167,-187500.02235174447,-187500.02235174447,-187500.02235174447,-187500.02235174447
$SILENCE,11356.049639707762,-3318.94347893518,7559.516436996036,7304.885364161178,-187500.02235174447,-187500.02235174447,-187500.02235174447,-187500.02235174447
$SILENCE,11409.984399078417,-3347.218435671143,7612.914754499764,7283.740613906457,-187500.02235174447,-187500.02235174447,-187500.02235174447,-187500.02235174447
$SILENCE,11540.518586697412,-3291.674350699705,8172.1106972826365,7236.466674383482,-187500.02235174447,-187500.02235174447,-187500.02235174447,-187500.02235174447
$SILENCE,11502.699435079032,-3264.6287399087837,8174.100002539159,7249.676555356569,-187500.02235174447,-187500.02235174447,-187500.02235174447,-187500.02235174447
$SILENCE,11360.832913021197,-3305.84535668437,7639.51333040158,7298.582172224781,-187500.02235174447,-187500.02235174447,-187500.02235174447,-187500.02235174447
$SILENCE,11367.49373286888,-3346.972566482135,7523.239555745073,7289.194439553552,-187500.02235174447,-187500.02235174447,-187500.02235174447,-187500.02235174447
$SILENCE,11526.884022579674,-3305.8900601732803,8102.5520685377205,7239.305345929307,-187500.02235174447,-187500.02235174447,-187500.02235174447,-187500.02235174447
$SILENCE,11526.213470246013,-3267.489763199063,8245.692640029507,7242.658107597603,-187500.02235174447,-187500.02235174447,-187500.02235174447,-187500.02235174447
$SILENCE,11394.069957026239,-3301.039731626479,7744.34301189697,7287.808631397323,-187500.02235174447,-187500.02235174447,-187500.02235174447,-187500.02235174447
$SILENCE,11364.073915967218,-3353.543979351995,7466.890807973244,7289.976750609488,-187500.02235174447,-187500.02235174447,-187500.02235174447,-187500.02235174447
$SILENCE,11517.384531186168,-3321.648040014272,8018.330695430124,7238.09835172872,-187500.02235174447,-187500.02235174447,-187500.02235174447,-187500.02235174447
$SILENCE,11559.785790417885,-3271.7589463900267,8318.22405078698,7234.81264529379,-187500.02235174447,-187500.02235174447,-187500.02235174447,-187500.02235174447
$SILENCE,11432.157329578082,-3297.709321702638,7847.004574180195,7279.806706882323,-187500.02235174447,-187500.02235174447,-187500.02235174447,-187500.02235174447
$SILENCE,11378.356680674158,-3354.438049130207,7477.91021798971,7291.161393065619,-187500.02235174447,-187500.02235174447,-187500.02235174447,-187500.02235174447
$SILENCE,11507.70622583702,-3340.155284423266,7894.882010803463,7247.106104744209,-187500.02235174447,-187500.02235174447,-187500.02235174447,-187500.02235174447
$SILENCE,11584.618578507732,-3281.526658716996,8310.020960571881,7225.38020913365,-187500.02235174447,-187500.02235174447,-187500.02235174447,-187500.02235174447
$SILENCE,11465.148504394116,-3290.065025098923,7945.464008505823,7268.317910232296,-187500.02235174447,-187500.02235174447,-187500.02235174447,-187500.02235174447
$SILENCE,11371.24882593737,-3349.095982205389,7479.832468012866,7294.8717826452,-187500.02235174447,-187500.02235174447,-187500.02235174447,-187500.02235174447
$SILENCE,11474.133905665149,-3346.5702350819392,7786.1631257728495,7256.560892648804,-187500.02235174447,-187500.02235174447,-187500.02235174447,-187500.02235174447
$SILENCE,11577.57777900431,-3284.2312197960878,8297.995722054926,7230.074075469265,-187500.02235174447,-187500.02235174447,-187500.02235174447,-187500.02235174447
$SILENCE,11482.024071457872,-3278.643283682261,8059.793181394718,7267.267378242896,-187500.02235174447,-187500.02235174447,-187500.02235174447,-187500.02235174447
$SILENCE,11362.129314199605,-3338.8588832448586,7519.707980121134,7301.152622837141,-187500.02235174447,-187500.02235174447,-187500.02235174447,-187500.02235174447
$SILENCE,11437.901727903096,-3351.4429153731962,7684.6638542013,7268.29555848784,-187500.02235174447,-187500.02235174447,-187500.02235174447,-187500.02235174447
$SILENCE,11556.723601427508,-3292.322551288909,8216.43420653751,7231.303421414307,-187500.02235174447,-187500.02235174447,-187500.02235174447,-187500.02235174447
$SILENCE,11499.167859455092,-3275.8940191142583,8132.525757852288,7249.922424545578,-187500.02235174447,-187500.02235174447,-187500.02235174447,-187500.02235174447
$SILENCE,11366.733773557398,-3333.270947131032,7563.964434142642,7286.914561619111,-187500.02235174447,-187500.02235174447,-187500.02235174447,-187500.02235174447
$SILENCE,11419.997980594395,-3364.876313790836,7583.745727985589,7265.367479964195,-187500.02235174447,-187500.02235174447,-187500.02235174447,-187500.02235174447
$SILENCE,11565.083153853793,-3303.65488572775,8179.799697375262,7223.547366088315,-187500.02235174447,-187500.02235174447,-187500.02235174447,-187500.02235174447
$SILENCE,11532.360199971225,-3272.4742022125965,8213.975514647427,7237.561909861793,-187500.02235174447,-187500.02235174447,-187500.02235174447,-187500.02235174447
$SILENCE,11390.851305824675,-3320.619859769328,7664.100249302417,7274.576398679781,-187500.02235174447,-187500.02235174447,-187500.02235174447,-187500.02235174447
$SILENCE,11394.49464017089,-3367.2008952141878,7518.232764987084,7269.256683499419,-187500.02235174447,-187500.02235174447,-187500.02235174447,-187500.02235174447
$SILENCE,11551.13566531368,-3314.8754614443137,8098.349940580123,7227.324810901262,-187500.02235174447,-187500.02235174447,-187500.02235174447,-187500.02235174447
$SILENCE,11553.706115926041,-3271.8483533678477,8258.276672157845,7232.555119103804,-187500.02235174447,-187500.02235174447,-187500.02235174447,-187500.02235174447
$SILENCE,11409.44795721149,-3310.22629859761,7763.409049917347,7274.241122512952,-187500.02235174447,-187500.02235174447,-187500.02235174447,-187500.02235174447
$SILENCE,11377.77553531832,-3368.6090551148723,7465.884979472755,7275.179895780075,-187500.02235174447,-187500.02235174447,-187500.02235174447,-187500.02235174447
$SILENCE,11541.747932642453,-3331.2145866411433,7998.080014953615,7227.727142301458,-187500.02235174447,-187500.02235174447,-187500.02235174447,-187500.02235174447
$SILENCE,11578.248331337969,-3278.240952282066,8287.49040216093,7218.898203241612,-187500.02235174447,-187500.02235174447,-187500.02235174447,-187500.02235174447
$SILENCE,11440.047495370805,-3301.7326357045936,7874.139591948938,7256.873817071179,-187500.02235174447,-187500.02235174447,-187500.02235174447,-187500.02235174447
$SILENCE,11358.508331597845,-3362.484677134118,7451.579863021358,7277.571532436792,-187500.02235174447,-187500.02235174447,-187500.02235174447,-187500.02235174447
$SILENCE,11505.5157548804,-3337.6071855553614,7885.538981621145,7233.091560970732,-187500.02235174447,-187500.02235174447,-187500.02235174447,-187500.02235174447
$SILENCE,11582.919845929127,-3276.810440636926,8288.093899261225,7214.785482261835,-187500.02235174447,-187500.02235174447,-187500.02235174447,-187500.02235174447
$SILENCE,11467.718955006476,-3292.3449030333645,7976.689395509887,7248.871892556178,-187500.02235174447,-187500.02235174447,-187500.02235174447,-187500.02235174447
$SILENCE,11355.66966005202,-3357.701403820682,7469.640072541246,7275.4928202024485,-187500.02235174447,-187500.02235174447,-187500.02235174447,-187500.02235174447
$SILENCE,11485.198019170526,-3354.8627322748584,7779.211733247249,7235.483197627449,-187500.02235174447,-187500.02235174447,-187500.02235174447,-187500.02235174447
$SILENCE,11602.745843260986,-3286.1534698192445,8309.708036149506,7208.079958925243,-187500.02235174447,-187500.02235174447,-187500.02235174447,-187500.02235174447
$SILENCE,11496.418594887089,-3285.393510507764,8084.402452040012,7239.707677329502,-187500.02235174447,-187500.02235174447,-187500.02235174447,-187500.02235174447
$SILENCE,11361.883445010597,-3350.6606043172605,7536.091808806874,7270.038994555354,-187500.02235174447,-187500.02235174447,-187500.02235174447,-187500.02235174447
$SILENCE,11451.290422831826,-3363.9822440126236,7674.158534307306,7242.903976786612,-187500.02235174447,-187500.02235174447,-187500.02235174447,-187500.02235174447
$SILENCE,11595.4368228241,-3300.5479932484623,8231.901613700582,7206.805909491291,-187500.02235174447,-187500.02235174447,-187500.02235174447,-187500.02235174447
$SILENCE,11526.638153390664,-3280.0290918384903,8159.928996554494,7228.6435638241255,-187500.02235174447,-187500.02235174447,-187500.02235174447,-187500.02235174447
$SILENCE,11370.242997436882,-3341.317575134942,7589.624236777335,7266.574474164781,-187500.02235174447,-187500.02235174447,-187500.02235174447,-187500.02235174447
$SILENCE,11420.757939905876,-3370.710119093671,7588.774870488032,7248.827189067268,-187500.02235174447,-187500.02235174447,-187500.02235174447,-187500.02235174447
$SILENCE,11581.422279050623,-3314.070798643923,8152.4411621619665,7210.181022904042,-187500.02235174447,-187500.02235174447,-187500.02235174447,-187500.02235174447
$SILENCE,11550.28629902438,-3281.3478447613534,8211.941505901994,7224.441435866527,-187500.02235174447,-187500.02235174447,-187500.02235174447,-187500.02235174447
$SILENCE,11386.045680766783,-3334.097961675878,7657.7076503882,7261.545331662337,-187500.02235174447,-187500.02235174447,-187500.02235174447,-187500.02235174447
$SILENCE,11389.39844243508,-3379.5614098979727,7499.613761855813,7254.616290881192,-187500.02235174447,-187500.02235174447,-187500.02235174447,-187500.02235174447
$SILENCE,11571.967491146028,-3330.365220351842,8083.866010173084,7209.197546148008,-187500.02235174447,-187500.02235174447,-187500.02235174447,-187500.02235174447
$SILENCE,11581.422279050623,-3285.617027952317,8270.525428119354,7210.136319415131,-187500.02235174447,-187500.02235174447,-187500.02235174447,-187500.02235174447
$SILENCE,11421.54025096181,-3318.6976097461716,7780.619893147933,7248.581319878259,-187500.02235174447,-187500.02235174447,-187500.02235174447,-187500.02235174447
$SILENCE,11362.419886877524,-3375.314578451464,7450.574034520869,7253.185779236052,-187500.02235174447,-187500.02235174447,-187500.02235174447,-187500.02235174447
$SILENCE,11535.71296163952,-3341.3399268793974,7974.163648386437,7212.349142116206,-187500.02235174447,-187500.02235174447,-187500.02235174447,-187500.02235174447
$SILENCE,11589.401851821167,-3288.0533680979456,8292.02780628536,7207.565868802771,-187500.02235174447,-187500.02235174447,-187500.02235174447,-187500.02235174447
$SILENCE,11446.775370451853,-3310.002781153057,7891.37278692398,7244.490950642938,-187500.02235174447,-187500.02235174447,-187500.02235174447,-187500.02235174447
$SILENCE,11354.44031410698,-3370.732470838126,7453.591520022335,7264.674575886081,-187500.02235174447,-187500.02235174447,-187500.02235174447,-187500.02235174447
$SILENCE,11509.673179349087,-3351.934653751213,7874.6089785825,7221.043970709321,-187500.02235174447,-187500.02235174447,-187500.02235174447,-187500.02235174447
$SILENCE,11589.893590199184,-3288.7239204316047,8298.934495322048,7202.603781533692,-187500.02235174447,-187500.02235174447,-187500.02235174447,-187500.02235174447
$SILENCE,11470.22235038547,-3296.681141457694,8000.426948121423,7235.974936005466,-187500.02235174447,-187500.02235174447,-187500.02235174447,-187500.02235174447
$SILENCE,11352.652174550554,-3362.0823457339225,7472.165819664696,7262.506456673916,-187500.02235174447,-187500.02235174447,-187500.02235174447,-187500.02235174447
$SILENCE,11470.132943407649,-3365.479810891129,7755.988270758185,7224.396732377617,-187500.02235174447,-187500.02235174447,-187500.02235174447,-187500.02235174447
$SILENCE,11591.413508822145,-3300.995028137568,8271.106573475192,7197.28406635333,-187500.02235174447,-187500.02235174447,-187500.02235174447,-187500.02235174447
$SILENCE,11508.4661851485,-3297.038769368979,8088.448117786422,7222.04979920981,-187500.02235174447,-187500.02235174447,-187500.02235174447,-187500.02235174447
$SILENCE,11360.609395576645,-3359.5565986104725,7519.462110932125,7255.130381003664,-187500.02235174447,-187500.02235174447,-187500.02235174447,-187500.02235174447
$SILENCE,11438.304059303291,-3379.9413895537127,7647.962289805686,7227.794197534824,-187500.02235174447,-187500.02235174447,-187500.02235174447,-187500.02235174447
$SILENCE,11580.751726716964,-3314.4954817885737,8225.084331641714,7193.819545962757,-187500.02235174447,-187500.02235174447,-187500.02235174447,-187500.02235174447
$SILENCE,11524.80531034533,-3293.7977664229593,8176.849267107162,7216.327752629251,-187500.02235174447,-187500.02235174447,-187500.02235174447,-187500.02235174447
$SILENCE,11380.278930697314,-3345.944386237191,7628.940955274219,7254.459828670005,-187500.02235174447,-187500.02235174447,-187500.02235174447,-187500.02235174447
$SILENCE,11411.079634556727,-3378.220305230654,7584.438632063703,7238.455979640005,-187500.02235174447,-187500.02235174447,-187500.02235174447,-187500.02235174447
$SILENCE,11567.519493999422,-3327.392438339286,8154.810447074229,7195.741795985913,-187500.02235174447,-187500.02235174447,-187500.02235174447,-187500.02235174447
$SILENCE,11549.99572634646,-3288.902734387247,8251.3476313767,7203.766072245368,-187500.02235174447,-187500.02235174447,-187500.02235174447,-187500.02235174447
$SILENCE,11394.047605281783,-3336.9813367106126,7685.937903635252,7249.318927445284,-187500.02235174447,-187500.02235174447,-187500.02235174447,-187500.02235174447
$SILENCE,11387.96793078994,-3382.355377954886,7513.293029462461,7241.495816885927,-187500.02235174447,-187500.02235174447,-187500.02235174447,-187500.02235174447
$SILENCE,11548.118179812214,-3342.0775344464228,8060.620195939565,7198.42400532055,-187500.02235174447,-187500.02235174447,-187500.02235174447,-187500.02235174447
$SILENCE,11567.363031788234,-3292.590772222373,8287.244532971923,7198.8263367207455,-187500.02235174447,-187500.02235174447,-187500.02235174447,-187500.02235174447
$SILENCE,11416.287591014814,-3327.481845317107,7783.749137371677,7241.205244208008,-187500.02235174447,-187500.02235174447,-187500.02235174447,-187500.02235174447
$SILENCE,11370.421811392524,-3387.2057065016875,7448.897653686721,7249.00600302291,-187500.02235174447,-187500.02235174447,-187500.02235174447,-187500.02235174447
$SILENCE,11526.3699324572,-3355.6226915863385,7970.587369273588,7202.693188511514,-187500.02235174447,-187500.02235174447,-187500.02235174447,-187500.02235174447
$SILENCE,11576.571950503821,-3299.1174816033226,8308.12106229318,7192.277275595341,-187500.02235174447,-187500.02235174447,-187500.02235174447,-187500.02235174447
$SILENCE,11450.999850153907,-3316.8200632119256,7914.931525579874,7230.5211103583715,-187500.02235174447,-187500.02235174447,-187500.02235174447,-187500.02235174447
$SILENCE,11360.072953709718,-3377.52740115254,7453.256243855506,7252.939910047044,-187500.02235174447,-187500.02235174447,-187500.02235174447,-187500.02235174447
$SILENCE,11498.273789676881,-3362.3058631784756,7865.310652889091,7212.595011305215,-187500.02235174447,-187500.02235174447,-187500.02235174447,-187500.02235174447
$SILENCE,11585.15502037466,-3302.5596502494395,8315.474786218976,7193.528973284838,-187500.02235174447,-187500.02235174447,-187500.02235174447,-187500.02235174447
$SILENCE,11475.072678932273,-3307.253516585054,8030.110064758071,7225.223746922464,-187500.02235174447,-187500.02235174447,-187500.02235174447,-187500.02235174447
$SILENCE,11360.587043832189,-3368.43024115923,7490.047215228941,7256.717354859991,-187500.02235174447,-187500.02235174447,-187500.02235174447,-187500.02235174447
$SILENCE,11471.116420163682,-3374.8004883289923,7756.077677736006,7219.389941619628,-187500.02235174447,-187500.02235174447,-187500.02235174447,-187500.02235174447
$SILENCE,11583.635101751697,-3309.108711374845,8289.233838228445,7188.857458693678,-187500.02235174447,-187500.02235174447,-187500.02235174447,-187500.02235174447
$SILENCE,11504.733443824463,-3298.402225780753,8130.424693873489,7218.115892185676,-187500.02235174447,-187500.02235174447,-187500.02235174447,-187500.02235174447
$SILENCE,11369.795962547776,-3356.0473747309898,7552.945024126176,7257.34320370474,-187500.02235174447,-187500.02235174447,-187500.02235174447,-187500.02235174447
$SILENCE,11435.174815079548,-3379.2708372200536,7655.047792798018,7229.984668491444,-187500.02235174447,-187500.02235174447,-187500.02235174447,-187500.02235174447
$SILENCE,11574.604996991755,-3318.0941126458783,8242.563395805764,7187.829278448735,-187500.02235174447,-187500.02235174447,-187500.02235174447,-187500.02235174447
$SILENCE,11530.19208075906,-3295.541202490473,8210.53334600131,7207.14118565812,-187500.02235174447,-187500.02235174447,-187500.02235174447,-187500.02235174447
$SILENCE,11383.54228538779,-3345.385592625808,7636.875824555854,7251.53175014636,-187500.02235174447,-187500.02235174447,-187500.02235174447,-187500.02235174447
$SILENCE,11408.196259521992,-3385.417566945263,7571.340509812893,7237.852482539712,-187500.02235174447,-187500.02235174447,-187500.02235174447,-187500.02235174447
$SILENCE,11559.092886339771,-3330.4993308185735,8176.111659540136,7193.6630837515695,-187500.02235174447,-187500.02235174447,-187500.02235174447,-187500.02235174447
não,11548.006421089938,-3293.3954350227636,8279.264960201379,7205.2859908683295,-187500.02235174447,-187500.02235174447,-187500.02235174447,-187500.02235174447
não,11411.370207234646,-3333.293298875487,7761.240930705182,7246.167331477086,-187500.02235174447,-187500.02235174447,-187500.02235174447,-187500.02235174447
não,11387.54324764529,-3378.1756017417433,7549.100524079862,7244.915633787589,-187500.02235174447,-187500.02235174447,-187500.02235174447,-187500.02235174447
não,11534.573022672299,-3341.8987204907803,8077.518114747777,7199.85451696569,-187500.02235174447,-187500.02235174447,-187500.02235174447,-187500.02235174447
não,11567.944177144072,-3292.3449030333645,8343.928556910581,7196.993493675411,-187500.02235174447,-187500.02235174447,-187500.02235174447,-187500.02235174447
não,11421.02616083934,-3325.738409249593,7837.192158364315,7240.266470940885,-187500.02235174447,-187500.02235174447,-187500.02235174447,-187500.02235174447
não,11361.503465354857,-3384.5905524004165,7478.9383982346535,7250.704735601514,-187500.02235174447,-187500.02235174447,-187500.02235174447,-187500.02235174447
não,11505.001664757929,-3357.1873136982103,7957.735116211787,7206.604743791193,-187500.02235174447,-187500.02235174447,-187500.02235174447,-187500.02235174447
não,11568.704136455553,-3298.871612414314,8326.002457857425,7194.691263996514,-187500.02235174447,-187500.02235174447,-187500.02235174447,-187500.02235174447
não,11449.301117575302,-3314.5625370219395,7958.539779012178,7231.19166269203,-187500.02235174447,-187500.02235174447,-187500.02235174447,-187500.02235174447
não,11350.998145460862,-3376.543924396506,7477.57494182288,7251.732915846457,-187500.02235174447,-187500.02235174447,-187500.02235174447,-187500.02235174447
não,11491.277693662369,-3368.318482436953,7864.9977284667175,7210.024560692855,-187500.02235174447,-187500.02235174447,-187500.02235174447,-187500.02235174447
não,11579.924712172116,-3303.386664794286,8330.204585815023,7189.796231960801,-187500.02235174447,-187500.02235174447,-187500.02235174447,-187500.02235174447
não,11477.55372256681,-3304.6607142282387,8069.158562321492,7222.943868988022,-187500.02235174447,-187500.02235174447,-187500.02235174447,-187500.02235174447
não,11353.278023395304,-3367.156191725277,7517.830433586888,7254.191607736541,-187500.02235174447,-187500.02235174447,-187500.02235174447,-187500.02235174447
não,11460.40993456959,-3375.6945581072046,7760.123343482416,7221.982743976444,-187500.02235174447,-187500.02235174447,-187500.02235174447,-187500.02235174447
não,11587.546657031377,-3310.5392230199845,8307.3611029817,7193.171345373553,-187500.02235174447,-187500.02235174447,-187500.02235174447,-187500.02235174447
não,11510.075510749282,-3298.134004847289,8161.09128726617,7214.293743883818,-187500.02235174447,-187500.02235174447,-187500.02235174447,-187500.02235174447
não,11362.5316455998,-3354.5051043635735,7578.671881994233,7250.414162923595,-187500.02235174447,-187500.02235174447,-187500.02235174447,-187500.02235174447
não,11425.87648938614,-3380.030796531534,7656.6571183988,7227.727142301458,-187500.02235174447,-187500.02235174447,-187500.02235174447,-187500.02235174447
não,11581.019947650428,-3320.8210254694254,8256.041497712315,7188.18690636002,-187500.02235174447,-187500.02235174447,-187500.02235174447,-187500.02235174447
não,11538.641040163166,-3295.742368190571,8243.39041035061,7204.458976323483,-187500.02235174447,-187500.02235174447,-187500.02235174447,-187500.02235174447
não,11375.272139939325,-3345.8549792593694,7673.398574995826,7244.423895409572,-187500.02235174447,-187500.02235174447,-187500.02235174447,-187500.02235174447
não,11392.68414887001,-3388.993846058112,7573.218056347139,7235.505549371905,-187500.02235174447,-187500.02235174447,-187500.02235174447,-187500.02235174447
não,11566.67012771012,-3333.360354108853,8170.456668192944,7190.80206046129,-187500.02235174447,-187500.02235174447,-187500.02235174447,-187500.02235174447
não,11559.76343867343,-3292.0766820999006,8294.441794686532,7197.32876984224,-187500.02235174447,-187500.02235174447,-187500.02235174447,-187500.02235174447
não,11410.498489200889,-3334.522644820529,7771.567436643534,7235.19262494953,-187500.02235174447,-187500.02235174447,-187500.02235174447,-187500.02235174447
não,11381.307110942258,-3389.0161978025676,7521.317305721916,7240.981726763454,-187500.02235174447,-187500.02235174447,-187500.02235174447,-187500.02235174447
não,11551.448589736056,-3344.9162059922464,8085.564742751688,7194.199525618497,-187500.02235174447,-187500.02235174447,-187500.02235174447,-187500.02235174447
não,11582.852790695762,-3296.479975757596,8339.301745808334,7193.685435496025,-187500.02235174447,-187500.02235174447,-187500.02235174447,-187500.02235174447
não,11431.486777244423,-3326.118388905333,7882.700310075321,7231.057552225298,-187500.02235174447,-187500.02235174447,-187500.02235174447,-187500.02235174447
não,11359.715325798432,-3388.1668315132656,7483.341691892349,7243.038087253343,-187500.02235174447,-187500.02235174447,-187500.02235174447,-187500.02235174447
não,11523.687723122564,-3361.3670899113527,7964.842970948574,7201.66500826657,-187500.02235174447,-187500.02235174447,-187500.02235174447,-187500.02235174447
não,11589.24538960998,-3301.911449660236,8343.79444644385,7189.4386040495165,-187500.02235174447,-187500.02235174447,-187500.02235174447,-187500.02235174447
não,11457.794780468319,-3315.0766271444118,7989.943979971884,7227.570680090271,-187500.02235174447,-187500.02235174447,-187500.02235174447,-187500.02235174447
não,11343.845587235164,-3378.846154075403,7497.758567066022,7252.895206558133,-187500.02235174447,-187500.02235174447,-187500.02235174447,-187500.02235174447
não,11496.530353609367,-3370.5983603713944,7866.1153156894825,7209.175194403553,-187500.02235174447,-187500.02235174447,-187500.02235174447,-187500.02235174447
não,11619.86727951375,-3303.453720027652,8375.779792759395,7182.308397568274,-187500.02235174447,-187500.02235174447,-187500.02235174447,-187500.02235174447
não,11493.289350663346,-3305.1077491173446,8092.426728299467,7214.718427028469,-187500.02235174447,-187500.02235174447,-187500.02235174447,-187500.02235174447
não,11358.06129670874,-3368.385537670319,7546.373611256316,7244.043915753832,-187500.02235174447,-187500.02235174447,-187500.02235174447,-187500.02235174447
não,11463.002736926406,-3380.5001831650957,7734.016505958618,7215.388979362128,-187500.02235174447,-187500.02235174447,-187500.02235174447,-187500.02235174447
não,11600.488317071,-3324.0173249265345,8265.518637361365,7183.314226068763,-187500.02235174447,-187500.02235174447,-187500.02235174447,-187500.02235174447
não,11523.575964400288,-3303.297257816465,8161.381859944089,7208.526993814349,-187500.02235174447,-187500.02235174447,-187500.02235174447,-187500.02235174447
não,11361.861093266141,-3359.1095637213666,7592.798184489988,7245.519130887882,-187500.02235174447,-187500.02235174447,-187500.02235174447,-187500.02235174447
não,11430.682114444031,-3386.803375101492,7643.17901649225,7226.318982400773,-187500.02235174447,-187500.02235174447,-187500.02235174447,-187500.02235174447
não,11596.465003069045,-3327.3030313614645,8238.495378314898,7186.644635992603,-187500.02235174447,-187500.02235174447,-187500.02235174447,-187500.02235174447
não,11552.633232192187,-3300.257420570543,8250.498265087399,7200.681531510536,-187500.02235174447,-187500.02235174447,-187500.02235174447,-187500.02235174447
não,11383.832858065709,-3347.3972496267857,7693.157517094317,7240.9146715300885,-187500.02235174447,-187500.02235174447,-187500.02235174447,-187500.02235174447
não,11403.368282719646,-3391.609000159383,7572.368690057838,7232.555119103804,-187500.02235174447,-187500.02235174447,-187500.02235174447,-187500.02235174447
não,11592.844020467284,-3341.7869617685037,8167.394479202567,7188.455127293483,-187500.02235174447,-187500.02235174447,-187500.02235174447,-187500.02235174447
não,11581.534037772899,-3303.3419613053757,8298.330998221756,7191.249095350397,-187500.02235174447,-187500.02235174447,-187500.02235174447,-187500.02235174447
não,11415.907611359075,-3351.286453162009,7789.8064601190645,7229.828206280256,-187500.02235174447,-187500.02235174447,-187500.02235174447,-187500.02235174447
não,11377.328500429214,-3397.3086949954863,7514.723541107601,7242.43459015305,-187500.02235174447,-187500.02235174447,-187500.02235174447,-187500.02235174447
não,11561.015136362927,-3349.0512787164785,8069.31502453268,7199.13926114312,-187500.02235174447,-187500.02235174447,-187500.02235174447,-187500.02235174447
não,11597.113203658248,-3301.2185455821214,8347.884815679172,7193.640732007115,-187500.02235174447,-187500.02235174447,-187500.02235174447,-187500.02235174447
não,11446.529501262845,-3325.872519716325,7907.287228976158,7234.566776104782,-187500.02235174447,-187500.02235174447,-187500.02235174447,-187500.02235174447
não,11373.886331783096,-3384.2105727446765,7503.525317135492,7253.901035058622,-187500.02235174447,-187500.02235174447,-187500.02235174447,-187500.02235174447
não,11519.686760865065,-3371.6935958497047,7956.8633981780295,7196.904086697589,-187500.02235174447,-187500.02235174447,-187500.02235174447,-187500.02235174447
não,11601.538849060398,-3315.2330893555986,8361.787600730373,7179.983816144922,-187500.02235174447,-187500.02235174447,-187500.02235174447,-187500.02235174447
não,11496.597408842732,-3307.097054373867,8056.328661004146,7232.555119103804,-187500.02235174447,-187500.02235174447,-187500.02235174447,-187500.02235174447
não,11395.679282627021,-3346.302014148476,7529.900375592754,7269.3237387327845,-187500.02235174447,-187500.02235174447,-187500.02235174447,-187500.02235174447
não,11485.756812781909,-3391.810165859481,7813.45460575278,7184.431813291528,-187500.02235174447,-187500.02235174447,-187500.02235174447,-187500.02235174447
não,11608.132613674714,-3325.5595952939507,8357.518417539408,7172.540685241304,-187500.02235174447,-187500.02235174447,-187500.02235174447,-187500.02235174447
não,11518.770339342396,-3309.198118352666,8126.5578420827205,7211.924458971555,-187500.02235174447,-187500.02235174447,-187500.02235174447,-187500.02235174447
não,11359.469456609424,-3385.641084389816,7514.8576515743325,7234.946755760522,-187500.02235174447,-187500.02235174447,-187500.02235174447,-187500.02235174447
não,11462.779219481852,-3403.5001282096064,7749.215692188227,7211.723293271458,-187500.02235174447,-187500.02235174447,-187500.02235174447,-187500.02235174447
não,11622.035398725915,-3345.251482159076,8400.85845003825,7187.583409259726,-187500.02235174447,-187500.02235174447,-187500.02235174447,-187500.02235174447
não,11553.013211847927,-3307.0299991405013,8259.237797169424,7209.778691503846,-187500.02235174447,-187500.02235174447,-187500.02235174447,-187500.02235174447
não,11388.77259359033,-3352.7616682960593,7615.8204812789545,7241.473465141472,-187500.02235174447,-187500.02235174447,-187500.02235174447,-187500.02235174447
não,11435.778312179842,-3376.610979629872,7653.103191030406,7220.753398031402,-187500.02235174447,-187500.02235174447,-187500.02235174447,-187500.02235174447
não,11538.19400527406,-3391.743110626115,8171.6413106490745,7107.005370498344,-187500.02235174447,-187500.02235174447,-187500.02235174447,-187500.02235174447
não,11524.76060685642,-3364.295168434998,8175.016424061826,7158.950824612478,-187500.02235174447,-187500.02235174447,-187500.02235174447,-187500.02235174447
não,11380.97183477543,-3390.223192003154,7662.200351023716,7218.451168352505,-187500.02235174447,-187500.02235174447,-187500.02235174447,-187500.02235174447
não,11424.222460296449,-3400.192070030221,7542.573814698913,7259.488971172449,-187500.02235174447,-187500.02235174447,-187500.02235174447,-187500.02235174447
não,11586.943159931083,-3339.7306012786153,8118.980600712372,7181.146106856598,-187500.02235174447,-187500.02235174447,-187500.02235174447,-187500.02235174447
não,11538.305763996335,-3360.584778855417,8264.915140261071,7126.093760263177,-187500.02235174447,-187500.02235174447,-187500.02235174447,-187500.02235174447
não,11430.480948743934,-3403.7236456541596,7813.968695875252,7234.298555171318,-187500.02235174447,-187500.02235174447,-187500.02235174447,-187500.02235174447
não,11388.906704057063,-3458.3960125918406,7537.052933818452,7203.274333867352,-187500.02235174447,-187500.02235174447,-187500.02235174447,-187500.02235174447
não,11542.530243698387,-3425.002506375612,8081.094393860626,7122.383370683596,-187500.02235174447,-187500.02235174447,-187500.02235174447,-187500.02235174447
não,11590.854715210762,-3345.1397234367996,8276.359233422188,7130.608812643149,-187500.02235174447,-187500.02235174447,-187500.02235174447,-187500.02235174447
não,11439.153425592593,-3394.805299616492,7847.049277669106,7146.590309928693,-187500.02235174447,-187500.02235174447,-187500.02235174447,-187500.02235174447
não,11381.731794086909,-3439.5311402715615,7476.747927278034,7197.798156475802,-187500.02235174447,-187500.02235174447,-187500.02235174447,-187500.02235174447
não,11551.247424035959,-3415.3018492820083,7932.3211827661025,7186.845801692701,-187500.02235174447,-187500.02235174447,-187500.02235174447,-187500.02235174447
não,11598.856639725762,-3376.81214532997,8310.445643716532,7119.164719482032,-187500.02235174447,-187500.02235174447,-187500.02235174447,-187500.02235174447
não,11491.74708029593,-3390.156136769788,8013.435663394412,7168.718536939447,-187500.02235174447,-187500.02235174447,-187500.02235174447,-187500.02235174447
não,11385.553942388768,-3449.9917566766453,7500.7760525674885,7200.033330921332,-187500.02235174447,-187500.02235174447,-187500.02235174447,-187500.02235174447
não,11520.04438877635,-3433.9879076466455,7822.507062257178,7173.300644552785,-187500.02235174447,-187500.02235174447,-187500.02235174447,-187500.02235174447
não,11630.238488941013,-3373.034700517023,8339.681725464074,7134.207443500453,-187500.02235174447,-187500.02235174447,-187500.02235174447,-187500.02235174447
não,11547.894662367662,-3377.281531963531,8140.728848067385,7171.758374185369,-187500.02235174447,-187500.02235174447,-187500.02235174447,-187500.02235174447
não,11402.653026897076,-3440.738134472148,7553.6826316932,7203.944886201011,-187500.02235174447,-187500.02235174447,-187500.02235174447,-187500.02235174447
não,11490.025995972872,-3451.9140066998016,7718.973781940196,7197.082900653232,-187500.02235174447,-187500.02235174447,-187500.02235174447,-187500.02235174447
não,11625.455215627577,-3393.933581582735,8297.436928443543,7158.459086234461,-187500.02235174447,-187500.02235174447,-187500.02235174447,-187500.02235174447
não,11568.90530215565,-3367.491467892107,8219.3399333167,7152.2229495314305,-187500.02235174447,-187500.02235174447,-187500.02235174447,-187500.02235174447
não,11426.189413808515,-3430.5904424894384,7653.32670847496,7213.33261887224,-187500.02235174447,-187500.02235174447,-187500.02235174447,-187500.02235174447
não,11484.996853470428,-3435.284308825053,7660.188694022739,7215.701903784502,-187500.02235174447,-187500.02235174447,-187500.02235174447,-187500.02235174447
não,11623.734131304518,-3394.6041339163944,8249.715954031462,7173.2335893194195,-187500.02235174447,-187500.02235174447,-187500.02235174447,-187500.02235174447
não,11573.979148147006,-3376.320406951953,8284.875248059661,7195.607685519181,-187500.02235174447,-187500.02235174447,-187500.02235174447,-187500.02235174447
não,11427.463463242468,-3409.132767812344,7732.541290824568,7265.8592183422115,-187500.02235174447,-187500.02235174447,-187500.02235174447,-187500.02235174447
não,11418.79098639381,-3451.9140066998016,7553.615576459834,7256.359726948706,-187500.02235174447,-187500.02235174447,-187500.02235174447,-187500.02235174447
não,11573.5321132579,-3399.1415380408216,8142.092304479159,7164.449353748483,-187500.02235174447,-187500.02235174447,-187500.02235174447,-187500.02235174447
não,11593.939255945596,-3350.6382525728054,8368.627234533697,7201.597953033203,-187500.02235174447,-187500.02235174447,-187500.02235174447,-187500.02235174447
não,11422.836652140219,-3391.094910036911,7832.945326917807,7271.827134111779,-187500.02235174447,-187500.02235174447,-187500.02235174447,-187500.02235174447
não,11372.075840482217,-3449.6341287653604,7512.376607939793,7284.612331940214,-187500.02235174447,-187500.02235174447,-187500.02235174447,-187500.02235174447
não,11536.204700017537,-3414.4748347371624,8037.799064850697,7241.8534447972115,-187500.02235174447,-187500.02235174447,-187500.02235174447,-187500.02235174447
não,11584.171543618626,-3353.9239590077354,8361.407621074632,7243.172197720075,-187500.02235174447,-187500.02235174447,-187500.02235174447,-187500.02235174447
não,11428.715160931964,-3368.2067237146766,7945.195787572359,7266.708584631513,-187500.02235174447,-187500.02235174447,-187500.02235174447,-187500.02235174447
não,11325.42774980399,-3433.1161896128883,7490.7401193070555,7290.088509331765,-187500.02235174447,-187500.02235174447,-187500.02235174447,-187500.02235174447
não,11466.087277661238,-3415.1677388152766,7919.848909360041,7250.905901301611,-187500.02235174447,-187500.02235174447,-187500.02235174447,-187500.02235174447
não,11547.33586875628,-3348.3807263828194,8351.595205258753,7232.555119103804,-187500.02235174447,-187500.02235174447,-187500.02235174447,-187500.02235174447
não,11430.525652232845,-3357.7237555651377,8047.276204499746,7274.285826001862,-187500.02235174447,-187500.02235174447,-187500.02235174447,-187500.02235174447
não,11313.201345586938,-3421.470930751673,7518.657448131735,7315.167166610619,-187500.02235174447,-187500.02235174447,-187500.02235174447,-187500.02235174447
não,11437.45469301399,-3418.4087417612964,7808.872498139442,7285.416994740605,-187500.02235174447,-187500.02235174447,-187500.02235174447,-187500.02235174447
não,11560.635156707187,-3352.3369851514085,8336.59718472924,7261.1653520065975,-187500.02235174447,-187500.02235174447,-187500.02235174447,-187500.02235174447
não,11463.717992748976,-3348.3807263828194,8152.865845306617,7278.8902853596555,-187500.02235174447,-187500.02235174447,-187500.02235174447,-187500.02235174447
não,11312.262572319814,-3410.0044858461006,7570.245274334583,7307.20994558453,-187500.02235174447,-187500.02235174447,-187500.02235174447,-187500.02235174447
não,11402.362454219157,-3431.7974366900253,7701.539421265057,7289.932047120577,-187500.02235174447,-187500.02235174447,-187500.02235174447,-187500.02235174447
não,11555.38249676019,-3367.3126539364644,8300.610876156197,7277.683291159069,-187500.02235174447,-187500.02235174447,-187500.02235174447,-187500.02235174447
não,11483.342824380736,-3344.9832612256128,8235.947279446993,7275.246951013441,-187500.02235174447,-187500.02235174447,-187500.02235174447,-187500.02235174447
não,11325.248935848349,-3398.2474682626093,7657.953519577208,7318.296410834362,-187500.02235174447,-187500.02235174447,-187500.02235174447,-187500.02235174447
não,11353.479189095402,-3432.222119834676,7607.751501530588,7298.224544313496,-187500.02235174447,-187500.02235174447,-187500.02235174447,-187500.02235174447
não,11514.679970107076,-3373.034700517023,8205.05716860976,7249.274223956374,-187500.02235174447,-187500.02235174447,-187500.02235174447,-187500.02235174447
não,11487.32143489378,-3339.551787322973,8282.505963147398,7258.863122327701,-187500.02235174447,-187500.02235174447,-187500.02235174447,-187500.02235174447
não,11313.022531631295,-3382.9588750551793,7731.826035001998,7294.223582055996,-187500.02235174447,-187500.02235174447,-187500.02235174447,-187500.02235174447
não,11302.316046037204,-3435.9995646476227,7528.8274918588995,7297.956323380033,-187500.02235174447,-187500.02235174447,-187500.02235174447,-187500.02235174447
não,11482.582865069255,-3390.4243577032516,8115.918411721995,7254.035145525354,-187500.02235174447,-187500.02235174447,-187500.02235174447,-187500.02235174447
não,11494.786917541853,-3344.066839702945,8321.912088622104,7240.802912807812,-187500.02235174447,-187500.02235174447,-187500.02235174447,-187500.02235174447
não,11337.363581343125,-3377.5944563859057,7851.2067021377925,7286.4675267300045,-187500.02235174447,-187500.02235174447,-187500.02235174447,-187500.02235174447
não,11282.668862660988,-3442.325108328475,7506.743968337056,7304.863012416722,-187500.02235174447,-187500.02235174447,-187500.02235174447,-187500.02235174447
não,11446.59655649621,-3398.1804130292435,8003.131509200515,7253.118724002687,-187500.02235174447,-187500.02235174447,-187500.02235174447,-187500.02235174447
não,11495.569228597788,-3329.7617232515486,8341.112237109213,7242.278127941862,-187500.02235174447,-187500.02235174447,-187500.02235174447,-187500.02235174447
não,11363.24690142237,-3353.119296207344,7963.032479647694,7296.6152187127145,-187500.02235174447,-187500.02235174447,-187500.02235174447,-187500.02235174447
não,11261.904092062008,-3416.642953949327,7494.070529230897,7324.9125271931325,-187500.02235174447,-187500.02235174447,-187500.02235174447,-187500.02235174447
não,11419.081559071727,-3402.986038087134,7892.065691002094,7280.9466458495435,-187500.02235174447,-187500.02235174447,-187500.02235174447,-187500.02235174447
não,11512.668313106098,-3338.545958822484,8344.710867966518,7258.013756038399,-187500.02235174447,-187500.02235174447,-187500.02235174447,-187500.02235174447
não,11395.567523904745,-3344.9162059922464,8068.666823943476,7280.454907471527,-187500.02235174447,-187500.02235174447,-187500.02235174447,-187500.02235174447
não,11266.933234564453,-3400.192070030221,7532.336715738383,7314.563669510326,-187500.02235174447,-187500.02235174447,-187500.02235174447,-187500.02235174447
não,11383.497581898879,-3401.667285164271,7801.965809102751,7273.615273668203,-187500.02235174447,-187500.02235174447,-187500.02235174447,-187500.02235174447
não,11519.932630054072,-3341.742258279593,8353.137475626168,7250.257700712407,-187500.02235174447,-187500.02235174447,-187500.02235174447,-187500.02235174447
não,11434.347800534702,-3326.9901069390903,8171.1719240155135,7292.524849477393,-187500.02235174447,-187500.02235174447,-187500.02235174447,-187500.02235174447
não,11270.621272399578,-3387.608037901883,7571.452268535169,7314.809538699334,-187500.02235174447,-187500.02235174447,-187500.02235174447,-187500.02235174447
não,11353.635651306588,-3407.9481253562126,7679.634711698856,7292.211925055019,-187500.02235174447,-187500.02235174447,-187500.02235174447,-187500.02235174447
não,11527.643981891153,-3340.5576158234617,8293.368910952677,7258.326680460773,-187500.02235174447,-187500.02235174447,-187500.02235174447,-187500.02235174447
não,11460.991079925428,-3321.223356869621,8252.86754999966,7254.236311225452,-187500.02235174447,-187500.02235174447,-187500.02235174447,-187500.02235174447
não,11284.009967328308,-3369.391366170808,7644.028382781552,7311.501480519949,-187500.02235174447,-187500.02235174447,-187500.02235174447,-187500.02235174447
não,11325.360694570625,-3407.814014889481,7569.954701656664,7307.634628729181,-187500.02235174447,-187500.02235174447,-187500.02235174447,-187500.02235174447
não,11509.315551437801,-3356.4944096200957,8194.618903949131,7258.729011860969,-187500.02235174447,-187500.02235174447,-187500.02235174447,-187500.02235174447
não,11491.009472728905,-3318.94347893518,8296.676969132062,7269.100221288231,-187500.02235174447,-187500.02235174447,-187500.02235174447,-187500.02235174447
não,11328.154662627538,-3353.968662496646,7767.588826130489,7318.586983512281,-187500.02235174447,-187500.02235174447,-187500.02235174447,-187500.02235174447
não,11304.327703038181,-3406.7187794111705,7530.973259326609,7313.356675309739,-187500.02235174447,-187500.02235174447,-187500.02235174447,-187500.02235174447
não,11478.425440600568,-3358.126086965333,8105.278981361268,7273.905846346122,-187500.02235174447,-187500.02235174447,-187500.02235174447,-187500.02235174447
não,11495.166897197592,-3302.1796705936995,8349.22592034649,7286.087547074265,-187500.02235174447,-187500.02235174447,-187500.02235174447,-187500.02235174447
não,11335.888366209074,-3329.962888951646,7881.716833319287,7317.223527100507,-187500.02235174447,-187500.02235174447,-187500.02235174447,-187500.02235174447
não,11268.766077609787,-3389.1726600137545,7510.432006172181,7344.5150070804375,-187500.02235174447,-187500.02235174447,-187500.02235174447,-187500.02235174447
não,11430.011562110372,-3358.059031731967,8000.4716516103335,7290.5131924764155,-187500.02235174447,-187500.02235174447,-187500.02235174447,-187500.02235174447
não,11481.934664480052,-3303.8336996833923,8349.248272090945,7255.286843214852,-187500.02235174447,-187500.02235174447,-187500.02235174447,-187500.02235174447
não,11354.395610618069,-3328.8229499844256,7981.1597444009485,7291.809593654823,-187500.02235174447,-187500.02235174447,-187500.02235174447,-187500.02235174447
não,11270.777734610765,-3385.931657067735,7515.461148674625,7340.894024478677,-187500.02235174447,-187500.02235174447,-187500.02235174447,-187500.02235174447
não,11415.639390425611,-3375.5380958960172,7898.301827705125,7295.788204167868,-187500.02235174447,-187500.02235174447,-187500.02235174447,-187500.02235174447
não,11513.60708637322,-3313.288487587987,8356.601996016741,7268.697889888035,-187500.02235174447,-187500.02235174447,-187500.02235174447,-187500.02235174447
não,11410.185564778516,-3312.997914910068,8096.159469623503,7292.457794244027,-187500.02235174447,-187500.02235174447,-187500.02235174447,-187500.02235174447
não,11276.097449791128,-3375.6945581072046,7544.250195533061,7326.20892837154,-187500.02235174447,-187500.02235174447,-187500.02235174447,-187500.02235174447
não,11371.852323037663,-3382.2659709770646,7773.668500622332,7301.689064704069,-187500.02235174447,-187500.02235174447,-187500.02235174447,-187500.02235174447
não,11503.727615323975,-3316.641249256283,8320.995667099436,7280.589017938259,-187500.02235174447,-187500.02235174447,-187500.02235174447,-187500.02235174447
não,11436.292402302313,-3307.32057181842,8188.025139334815,7296.525811734893,-187500.02235174447,-187500.02235174447,-187500.02235174447,-187500.02235174447
não,11274.108144534606,-3372.319444694453,7604.577553817935,7321.515062035926,-187500.02235174447,-187500.02235174447,-187500.02235174447,-187500.02235174447
não,11332.490901051868,-3396.772253128559,7671.52102846158,7309.623933985703,-187500.02235174447,-187500.02235174447,-187500.02235174447,-187500.02235174447
não,11492.574094840777,-3325.5372435494955,8274.794611310317,7285.752270907435,-187500.02235174447,-187500.02235174447,-187500.02235174447,-187500.02235174447
não,11438.035838369828,-3302.671408971716,8257.896692502105,7289.7532331649345,-187500.02235174447,-187500.02235174447,-187500.02235174447,-187500.02235174447
não,11282.37828998307,-3362.641139345305,7682.987473367152,7330.500463306959,-187500.02235174447,-187500.02235174447,-187500.02235174447,-187500.02235174447
não,11312.463738019913,-3394.179450771743,7584.5950942748905,7328.198233628063,-187500.02235174447,-187500.02235174447,-187500.02235174447,-187500.02235174447
não,11477.598426055722,-3336.131970421311,8201.838517408194,7270.10604978872,-187500.02235174447,-187500.02235174447,-187500.02235174447,-187500.02235174447
não,11471.049364930317,-3296.5917344798727,8342.051010376335,7283.606503439725,-187500.02235174447,-187500.02235174447,-187500.02235174447,-187500.02235174447
não,11308.239258317859,-3337.1377989218,7785.559628672556,7339.552919811359,-187500.02235174447,-187500.02235174447,-187500.02235174447,-187500.02235174447
não,11272.968205567386,-3397.5992676734054,7554.800218915966,7328.444102817071,-187500.02235174447,-187500.02235174447,-187500.02235174447,-187500.02235174447
não,11416.086425314716,-3377.996787786101,8063.749440163308,7255.108029259209,-187500.02235174447,-187500.02235174447,-187500.02235174447,-187500.02235174447
não,11467.026050928362,-3313.9143364327356,8353.785676215371,7249.184816978553,-187500.02235174447,-187500.02235174447,-187500.02235174447,-187500.02235174447
não,11321.940877668963,-3315.5907172668835,7881.113336218994,7327.885309205689,-187500.02235174447,-187500.02235174447,-187500.02235174447,-187500.02235174447
não,11245.520263376267,-3382.9141715662686,7514.120044007307,7349.8347222608,-187500.02235174447,-187500.02235174447,-187500.02235174447,-187500.02235174447
não,11397.802698350275,-3371.671244105249,7951.230758575292,7296.637570457169,-187500.02235174447,-187500.02235174447,-187500.02235174447,-187500.02235174447
não,11512.71301659501,-3313.3108393324424,8355.50676053843,7264.786334608357,-187500.02235174447,-187500.02235174447,-187500.02235174447,-187500.02235174447
não,11378.088459740695,-3334.589700053895,7976.845857721074,7321.179785869096,-187500.02235174447,-187500.02235174447,-187500.02235174447,-187500.02235174447
não,11265.74859210832,-3395.095872294411,7482.469973858592,7359.088344465297,-187500.02235174447,-187500.02235174447,-187500.02235174447,-187500.02235174447
não,11389.286683712804,-3395.319389738964,7842.288356100125,7311.501480519949,-187500.02235174447,-187500.02235174447,-187500.02235174447,-187500.02235174447
não,11491.568266340288,-3319.7034382466604,8328.908184636615,7312.909640420633,-187500.02235174447,-187500.02235174447,-187500.02235174447,-187500.02235174447
não,11386.716233100442,-3302.22437408261,8082.659015972497,7306.5393932508705,-187500.02235174447,-187500.02235174447,-187500.02235174447,-187500.02235174447
não,11246.593147110123,-3402.315485753475,7508.48740440457,7287.115727319208,-187500.02235174447,-187500.02235174447,-187500.02235174447,-187500.02235174447
não,11362.978680488906,-3405.0871020659333,7726.014581443618,7270.709546889013,-187500.02235174447,-187500.02235174447,-187500.02235174447,-187500.02235174447
não,11513.674141606587,-3307.097054373867,8313.373722240178,7280.790183638357,-187500.02235174447,-187500.02235174447,-187500.02235174447,-187500.02235174447
não,11419.372131749646,-3312.7967492099706,8203.269029053334,7330.344001095772,-187500.02235174447,-187500.02235174447,-187500.02235174447,-187500.02235174447
não,11236.311344660682,-3365.0774794909335,7602.6776555392335,7344.425600102616,-187500.02235174447,-187500.02235174447,-187500.02235174447,-187500.02235174447
não,11296.99633085684,-3388.300941979998,7633.098379742906,7300.325608292295,-187500.02235174447,-187500.02235174447,-187500.02235174447,-187500.02235174447
não,11473.55276030931,-3335.774342510026,8236.260203869368,7267.714413132002,-187500.02235174447,-187500.02235174447,-187500.02235174447,-187500.02235174447
não,11435.353629035191,-3320.217528369132,8243.748038261896,7263.445229941039,-187500.02235174447,-187500.02235174447,-187500.02235174447,-187500.02235174447
não,11291.095470320639,-3368.2290754591318,7671.856304628409,7299.476242002994,-187500.02235174447,-187500.02235174447,-187500.02235174447,-187500.02235174447
não,11311.5696682417,-3420.2415848066316,7534.147207039262,7315.435387544083,-187500.02235174447,-187500.02235174447,-187500.02235174447,-187500.02235174447
não,11483.499286591923,-3364.250464946087,8138.963060255416,7284.8805528736775,-187500.02235174447,-187500.02235174447,-187500.02235174447,-187500.02235174447
não,11483.521638336379,-3303.096092116367,8301.192021512035,7300.124442592197,-187500.02235174447,-187500.02235174447,-187500.02235174447,-187500.02235174447
não,11325.874784693096,-3334.187368653699,7786.20782926176,7332.914451708133,-187500.02235174447,-187500.02235174447,-187500.02235174447,-187500.02235174447
não,11287.42978422997,-3403.544831698517,7504.732311336078,7324.174919626108,-187500.02235174447,-187500.02235174447,-187500.02235174447,-187500.02235174447
não,11444.629602984143,-3376.4768691631402,8056.485123215333,7262.394697951639,-187500.02235174447,-187500.02235174447,-187500.02235174447,-187500.02235174447
não,11488.84135351674,-3316.1718626227216,8331.70215269353,7262.551160162826,-187500.02235174447,-187500.02235174447,-187500.02235174447,-187500.02235174447
não,11357.189578674983,-3365.5692178689505,7893.4067956694125,7333.897928464166,-187500.02235174447,-187500.02235174447,-187500.02235174447,-187500.02235174447
não,11287.049804574228,-3390.558468169984,7516.601087641846,7359.110696209753,-187500.02235174447,-187500.02235174447,-187500.02235174447,-187500.02235174447
não,11442.17091109406,-3376.253351718587,7941.753618926242,7273.01177656791,-187500.02235174447,-187500.02235174447,-187500.02235174447,-187500.02235174447
não,11535.265926750413,-3338.4342001002074,8378.41729860512,7249.564796634293,-187500.02235174447,-187500.02235174447,-187500.02235174447,-187500.02235174447
não,11399.523782673334,-3334.4779413316182,7992.559134073154,7276.5433521918485,-187500.02235174447,-187500.02235174447,-187500.02235174447,-187500.02235174447
não,11281.99831032733,-3417.4476167497182,7506.185174725673,7314.138986365675,-187500.02235174447,-187500.02235174447,-187500.02235174447,-187500.02235174447
não,11403.725910630932,-3395.0735205499554,7813.901640641885,7309.601582241247,-187500.02235174447,-187500.02235174447,-187500.02235174447,-187500.02235174447
não,11512.467147406,-3324.6431737712833,8330.808082915317,7317.8270242008,-187500.02235174447,-187500.02235174447,-187500.02235174447,-187500.02235174447
não,11389.577256390723,-3347.553711837973,8092.873763188573,7330.142835395674,-187500.02235174447,-187500.02235174447,-187500.02235174447,-187500.02235174447
$SILENCE,11291.453098231925,-3405.7129509106817,7512.667180617712,7307.96990489601,-187500.02235174447,-187500.02235174447,-187500.02235174447,-187500.02235174447
$SILENCE,11429.341009776714,-3399.2980002520085,7720.0690174185065,7267.692061387546,-187500.02235174447,-187500.02235174447,-187500.02235174447,-187500.02235174447
$SILENCE,11560.411639262635,-3336.9813367106126,8293.63713188614,7234.790293549335,-187500.02235174447,-187500.02235174447,-187500.02235174447,-187500.02235174447
$SILENCE,11489.869533761685,-3339.3729733673304,8219.786968205806,7282.15364005013,-187500.02235174447,-187500.02235174447,-187500.02235174447,-187500.02235174447
$SILENCE,11338.90585171054,-3382.377729699341,7644.475417670658,7376.545056884892,-187500.02235174447,-187500.02235174447,-187500.02235174447,-187500.02235174447
$SILENCE,11367.739602057887,-3436.379544303363,7603.035283450518,7294.8717826452,-187500.02235174447,-187500.02235174447,-187500.02235174447,-187500.02235174447
$SILENCE,11530.102673781237,-3380.455479676185,8202.553773230764,7209.197546148008,-187500.02235174447,-187500.02235174447,-187500.02235174447,-187500.02235174447
$SILENCE,11535.131816283681,-3313.4673015436297,8278.929684034549,7242.747514575424,-187500.02235174447,-187500.02235174447,-187500.02235174447,-187500.02235174447
$SILENCE,11364.6327095786,-3374.062880761967,7734.240023403171,7311.613239242225,-187500.02235174447,-187500.02235174447,-187500.02235174447,-187500.02235174447
$SILENCE,11346.706610525443,-3419.0792940949555,7561.908073652754,7309.132195607686,-187500.02235174447,-187500.02235174447,-187500.02235174447,-187500.02235174447
$SILENCE,11544.251328021446,-3395.0511688055003,8140.684144578475,7245.295613443329,-187500.02235174447,-187500.02235174447,-187500.02235174447,-187500.02235174447
$SILENCE,11567.206569577047,-3337.3613163663526,8313.463129217998,7219.47934859745,-187500.02235174447,-187500.02235174447,-187500.02235174447,-187500.02235174447
$SILENCE,11420.467367227957,-3337.6965925331824,7843.3388880895245,7261.791200851346,-187500.02235174447,-187500.02235174447,-187500.02235174447,-187500.02235174447
$SILENCE,11356.697840296965,-3438.9723466601786,7530.5932796708685,7274.241122512952,-187500.02235174447,-187500.02235174447,-187500.02235174447,-187500.02235174447
$SILENCE,11521.340789954756,-3392.190145515221,8071.17021932247,7249.743610589935,-187500.02235174447,-187500.02235174447,-187500.02235174447,-187500.02235174447
$SILENCE,11579.075345882815,-3335.819045998937,8382.66413005163,7251.978785035466,-187500.02235174447,-187500.02235174447,-187500.02235174447,-187500.02235174447
$SILENCE,11442.796759938808,-3358.9531015101793,7941.261880548225,7282.623026683692,-187500.02235174447,-187500.02235174447,-187500.02235174447,-187500.02235174447
$SILENCE,11338.324706354702,-3447.7342304866593,7484.660444815212,7295.095300089753,-187500.02235174447,-187500.02235174447,-187500.02235174447,-187500.02235174447
$SILENCE,11492.976426240974,-3411.2785352800533,7944.771104427708,7249.877721056667,-187500.02235174447,-187500.02235174447,-187500.02235174447,-187500.02235174447
$SILENCE,11576.661357481642,-3320.1504731357663,8373.879894480693,7215.56779331777,-187500.02235174447,-187500.02235174447,-187500.02235174447,-187500.02235174447
$SILENCE,11460.186417125036,-3355.9579677531683,8041.107123030081,7232.376305148162,-187500.02235174447,-187500.02235174447,-187500.02235174447,-187500.02235174447
$SILENCE,11366.130276457105,-3438.100628626422,7521.362009210827,7279.270265015396,-187500.02235174447,-187500.02235174447,-187500.02235174447,-187500.02235174447
$SILENCE,11492.194115185037,-3426.34361104293,7843.718867745265,7253.208130980508,-187500.02235174447,-187500.02235174447,-187500.02235174447,-187500.02235174447
$SILENCE,11599.996578692982,-3348.0230984715345,8390.554295844353,7234.209148193497,-187500.02235174447,-187500.02235174447,-187500.02235174447,-187500.02235174447
$SILENCE,11482.851086002718,-3344.1562466807663,8165.583987901687,7257.454962427016,-187500.02235174447,-187500.02235174447,-187500.02235174447,-187500.02235174447
$SILENCE,11345.141988413572,-3404.215384032176,7607.997370719597,7283.897076117644,-187500.02235174447,-187500.02235174447,-187500.02235174447,-187500.02235174447
$SILENCE,11430.726817932942,-3430.7916081895364,7726.953354710741,7251.688212357547,-187500.02235174447,-187500.02235174447,-187500.02235174447,-187500.02235174447
$SILENCE,11596.733224002508,-3375.7169098516597,8298.532163921853,7211.8574037381895,-187500.02235174447,-187500.02235174447,-187500.02235174447,-187500.02235174447
$SILENCE,11522.681894622076,-3341.8540170018696,8244.038610939815,7230.968145247477,-187500.02235174447,-187500.02235174447,-187500.02235174447,-187500.02235174447
$SILENCE,11353.09920943966,-3402.4719479646624,7670.895179616831,7255.510360659405,-187500.02235174447,-187500.02235174447,-187500.02235174447,-187500.02235174447
$SILENCE,11413.001884579884,-3448.6953554982374,7624.60471684989,7247.53078788886,-187500.02235174447,-187500.02235174447,-187500.02235174447,-187500.02235174447
$SILENCE,11564.613767220231,-3372.4312034167297,8214.556660003265,7201.843822222212,-187500.02235174447,-187500.02235174447,-187500.02235174447,-187500.02235174447
$SILENCE,11535.154168028137,-3342.256348402065,8274.414631654578,7207.14118565812,-187500.02235174447,-187500.02235174447,-187500.02235174447,-187500.02235174447
$SILENCE,11380.860076053152,-3391.229020503643,7767.924102297319,7262.886436329656,-187500.02235174447,-187500.02235174447,-187500.02235174447,-187500.02235174447
$SILENCE,11368.968948002928,-3450.483495054662,7566.601939988368,7241.942851775033,-187500.02235174447,-187500.02235174447,-187500.02235174447,-187500.02235174447
$SILENCE,11562.088020096782,-3388.904439080291,8167.349775713656,7216.640677051625,-187500.02235174447,-187500.02235174447,-187500.02235174447,-187500.02235174447
$SILENCE,11540.987973330972,-3327.9512319506684,8382.194743418067,7207.364703102673,-187500.02235174447,-187500.02235174447,-187500.02235174447,-187500.02235174447
$SILENCE,11398.406195450569,-3368.117316736855,7904.359150452513,7239.14888371812,-187500.02235174447,-187500.02235174447,-187500.02235174447,-187500.02235174447
$SILENCE,11349.657040793543,-3430.0987041114217,7554.911977638242,7253.409296680606,-187500.02235174447,-187500.02235174447,-187500.02235174447,-187500.02235174447
$SILENCE,11508.242667703948,-3390.960799570179,8125.954344982428,7190.690301739014,-187500.02235174447,-187500.02235174447,-187500.02235174447,-187500.02235174447
$SILENCE,11557.081229338793,-3356.941444509202,8431.726209131028,7187.695167982003,-187500.02235174447,-187500.02235174447,-187500.02235174447,-187500.02235174447
$SILENCE,11415.348817747692,-3351.487618862107,7986.524163070222,7206.4035780910945,-187500.02235174447,-187500.02235174447,-187500.02235174447,-187500.02235174447
$SILENCE,11338.10118891015,-3428.288212810542,7558.287091050994,7236.354915661206,-187500.02235174447,-187500.02235174447,-187500.02235174447,-187500.02235174447
$SILENCE,11502.23004844547,-3426.5671284874834,8044.795160865207,7203.542554800815,-187500.02235174447,-187500.02235174447,-187500.02235174447,-187500.02235174447
$SILENCE,11574.515590013933,-3352.001708984579,8408.972133275525,7177.1674963435535,-187500.02235174447,-187500.02235174447,-187500.02235174447,-187500.02235174447
$SILENCE,11402.183640263514,-3336.489598332596,8094.147812622526,7194.333636085229,-187500.02235174447,-187500.02235174447,-187500.02235174447,-187500.02235174447
$SILENCE,11300.460851247413,-3407.9481253562126,7597.000312447586,7191.159688372575,-187500.02235174447,-187500.02235174447,-187500.02235174447,-187500.02235174447
$SILENCE,11504.733443824463,-3444.1132478848995,7849.2621003701815,7170.484324751416,-187500.02235174447,-187500.02235174447,-187500.02235174447,-187500.02235174447
$SILENCE,11590.161811132648,-3381.6401221323163,8353.137475626168,7158.36967925664,-187500.02235174447,-187500.02235174447,-187500.02235174447,-187500.02235174447
$SILENCE,11526.258173734925,-3369.5701801264504,8287.758623094394,7174.3511765421845,-187500.02235174447,-187500.02235174447,-187500.02235174447,-187500.02235174447
$SILENCE,11349.791151260275,-3409.222174790165,7698.007845641118,7235.349087160717,-187500.02235174447,-187500.02235174447,-187500.02235174447,-187500.02235174447
$SILENCE,11352.473360594913,-3418.7887214170364,7728.8756047338975,7176.943978899,-187500.02235174447,-187500.02235174447,-187500.02235174447,-187500.02235174447
$SILENCE,11591.502915799967,-3382.869468077358,8322.515585722398,7157.60971994516,-187500.02235174447,-187500.02235174447,-187500.02235174447,-187500.02235174447
$SILENCE,11592.642854767188,-3364.608092857372,8288.987969039437,7189.796231960801,-187500.02235174447,-187500.02235174447,-187500.02235174447,-187500.02235174447
$SILENCE,11403.904724586573,-3412.1949568027208,7747.360497398437,7238.143055217631,-187500.02235174447,-187500.02235174447,-187500.02235174447,-187500.02235174447
$SILENCE,11351.042848949774,-3426.097741853922,7658.51231318859,7205.621267035159,-187500.02235174447,-187500.02235174447,-187500.02235174447,-187500.02235174447
$SILENCE,11539.110426796726,-3380.902514565291,8298.487460432943,7161.923606625034,-187500.02235174447,-187500.02235174447,-187500.02235174447,-187500.02235174447
$SILENCE,11573.912092913639,-3338.4342001002074,8415.722360101028,7161.230702546919,-187500.02235174447,-187500.02235174447,-187500.02235174447,-187500.02235174447
$SILENCE,11357.167226930527,-3366.5973981138945,7766.314776696537,7228.285935912841,-187500.02235174447,-187500.02235174447,-187500.02235174447,-187500.02235174447
$SILENCE,11347.041886692274,-3423.5943464749275,7558.555311984457,7232.890395270633,-187500.02235174447,-187500.02235174447,-187500.02235174447,-187500.02235174447
$SILENCE,11523.844185333752,-3387.898610579802,8146.964984770416,7166.349252027185,-187500.02235174447,-187500.02235174447,-187500.02235174447,-187500.02235174447
$SILENCE,11565.999575376462,-3336.0425634434896,8366.079135665792,7190.04210114981,-187500.02235174447,-187500.02235174447,-187500.02235174447,-187500.02235174447
$SILENCE,11379.92130278603,-3355.9132642642576,7902.883935318463,7226.654258567603,-187500.02235174447,-187500.02235174447,-187500.02235174447,-187500.02235174447
$SILENCE,11303.701854193432,-3416.7323609271484,7587.143193142795,7204.123700156653,-187500.02235174447,-187500.02235174447,-187500.02235174447,-187500.02235174447
$SILENCE,11509.18144097107,-3385.8646018343693,8066.476352986855,7186.2646563368635,-187500.02235174447,-187500.02235174447,-187500.02235174447,-187500.02235174447
$SILENCE,11582.472811040023,-3327.8171214839367,8420.125653758723,7188.097499382198,-187500.02235174447,-187500.02235174447,-187500.02235174447,-187500.02235174447
$SILENCE,11439.93573664853,-3355.935616008713,8036.97205030585,7234.946755760522,-187500.02235174447,-187500.02235174447,-187500.02235174447,-187500.02235174447
$SILENCE,11299.320912280193,-3399.6332764188382,7508.48740440457,7235.885529027645,-187500.02235174447,-187500.02235174447,-187500.02235174447,-187500.02235174447
$SILENCE,11441.299193060302,-3398.4933374516177,7925.593307685055,7204.481328067938,-187500.02235174447,-187500.02235174447,-187500.02235174447,-187500.02235174447
$SILENCE,11545.927708855595,-3342.1892931686994,8378.529057327398,7202.313208855773,-187500.02235174447,-187500.02235174447,-187500.02235174447,-187500.02235174447
$SILENCE,11450.21753909797,-3341.5857960684057,8118.555917567721,7222.09450269872,-187500.02235174447,-187500.02235174447,-187500.02235174447,-187500.02235174447
$SILENCE,11303.18776407096,-3394.3582647273856,7563.360937042348,7230.990496991933,-187500.02235174447,-187500.02235174447,-187500.02235174447,-187500.02235174447
$SILENCE,11420.199146294493,-3414.318372525975,7806.279695782626,7203.631961778637,-187500.02235174447,-187500.02235174447,-187500.02235174447,-187500.02235174447
$SILENCE,11563.853807908752,-3341.1164094348446,8364.045126920359,7188.90216218259,-187500.02235174447,-187500.02235174447,-187500.02235174447,-187500.02235174447
$SILENCE,11504.845202546741,-3324.6878772601935,8220.859851939662,7208.526993814349,-187500.02235174447,-187500.02235174447,-187500.02235174447,-187500.02235174447
$SILENCE,11382.044718509283,-3385.417566945263,7635.7805890775435,7233.00215399291,-187500.02235174447,-187500.02235174447,-187500.02235174447,-187500.02235174447
$SILENCE,11430.346838277203,-3410.9209073687684,7707.529688779079,7210.471595581961,-187500.02235174447,-187500.02235174447,-187500.02235174447,-187500.02235174447
$SILENCE,11570.112296356237,-3357.2096654426655,8280.382547424144,7162.013013602855,-187500.02235174447,-187500.02235174447,-187500.02235174447,-187500.02235174447
$SILENCE,11523.866537078207,-3325.4031330827634,8299.381530211154,7180.542609756304,-187500.02235174447,-187500.02235174447,-187500.02235174447,-187500.02235174447
$SILENCE,11428.31282953177,-3358.5284183655285,7708.066130646006,7276.766869636402,-187500.02235174447,-187500.02235174447,-187500.02235174447,-187500.02235174447
$SILENCE,11416.01937008135,-3407.7246079116594,7616.088702212418,7255.733878103957,-187500.02235174447,-187500.02235174447,-187500.02235174447,-187500.02235174447
$SILENCE,11550.733333913486,-3357.969624754146,8221.4409972955,7181.034348134322,-187500.02235174447,-187500.02235174447,-187500.02235174447,-187500.02235174447
$SILENCE,11584.77504071892,-3329.9852406961013,8321.643867688641,7186.219952847952,-187500.02235174447,-187500.02235174447,-187500.02235174447,-187500.02235174447
$SILENCE,11426.390579508612,-3351.4429153731962,7808.40311150588,7239.215938951485,-187500.02235174447,-187500.02235174447,-187500.02235174447,-187500.02235174447
$SILENCE,11433.096102845206,-3412.5749364584613,7577.621350004834,7218.719389285969,-187500.02235174447,-187500.02235174447,-187500.02235174447,-187500.02235174447
$SILENCE,11573.085078368793,-3374.8228400734474,8099.109899891603,7184.431813291528,-187500.02235174447,-187500.02235174447,-187500.02235174447,-187500.02235174447
$SILENCE,11614.748730033485,-3315.8365864558923,8393.303560412354,7200.122737899153,-187500.02235174447,-187500.02235174447,-187500.02235174447,-187500.02235174447
$SILENCE,11442.372076794158,-3357.053203231478,7913.299848234636,7236.62313659467,-187500.02235174447,-187500.02235174447,-187500.02235174447,-187500.02235174447
$SILENCE,11360.92231999902,-3400.281477008042,7535.197739028662,7243.887453542645,-187500.02235174447,-187500.02235174447,-187500.02235174447,-187500.02235174447
$SILENCE,11512.265981705903,-3386.6022094013942,7955.455238277345,7188.119851126654,-187500.02235174447,-187500.02235174447,-187500.02235174447,-187500.02235174447
$SILENCE,11598.901343214673,-3329.5158540625403,8345.180254600078,7173.300644552785,-187500.02235174447,-187500.02235174447,-187500.02235174447,-187500.02235174447
$SILENCE,11497.916161765595,-3341.071705945934,7997.744738786786,7210.9186304710665,-187500.02235174447,-187500.02235174447,-187500.02235174447,-187500.02235174447
$SILENCE,11348.315936126226,-3406.830538133447,7491.09774721834,7208.102310669698,-187500.02235174447,-187500.02235174447,-187500.02235174447,-187500.02235174447
$SILENCE,11520.737292854465,-3386.311636723475,7862.27081564317,7213.042046194321,-187500.02235174447,-187500.02235174447,-187500.02235174447,-187500.02235174447
$SILENCE,11616.53686958991,-3309.198118352666,8352.198702359045,7221.513357342882,-187500.02235174447,-187500.02235174447,-187500.02235174447,-187500.02235174447
$SILENCE,11506.476879891978,-3316.551842278462,8111.984504697861,7242.7922180643345,-187500.02235174447,-187500.02235174447,-187500.02235174447,-187500.02235174447
$SILENCE,11321.918525924508,-3365.323348679942,7552.319175281427,7277.370366736694,-187500.02235174447,-187500.02235174447,-187500.02235174447,-187500.02235174447
$SILENCE,11490.428327373067,-3409.423340490263,7753.574282357012,7217.601802063204,-187500.02235174447,-187500.02235174447,-187500.02235174447,-187500.02235174447
$SILENCE,11592.598151278276,-3342.681031546716,8282.282445702846,7177.614531232659,-187500.02235174447,-187500.02235174447,-187500.02235174447,-187500.02235174447
$SILENCE,11512.914182295106,-3293.7977664229593,8177.989206074382,7256.695003115536,-187500.02235174447,-187500.02235174447,-187500.02235174447,-187500.02235174447
$SILENCE,11350.953441971951,-3345.6985170481826,7615.395798134304,7281.572494694293,-187500.02235174447,-187500.02235174447,-187500.02235174447,-187500.02235174447
$SILENCE,11380.770669075331,-3386.378691956841,7650.6892026292335,7258.863122327701,-187500.02235174447,-187500.02235174447,-187500.02235174447,-187500.02235174447
$SILENCE,11586.473773297523,-3330.1417029072886,8242.138712661113,7226.676610312058,-187500.02235174447,-187500.02235174447,-187500.02235174447,-187500.02235174447
$SILENCE,11582.29399708438,-3295.138871090278,8262.63526232663,7273.145887034641,-187500.02235174447,-187500.02235174447,-187500.02235174447,-187500.02235174447
$SILENCE,11356.764895530332,-3341.719906535138,7697.471403774191,7293.910657633622,-187500.02235174447,-187500.02235174447,-187500.02235174447,-187500.02235174447
$SILENCE,11376.792058562287,-3382.5341919105285,7597.514402570057,7273.01177656791,-187500.02235174447,-187500.02235174447,-187500.02235174447,-187500.02235174447
$SILENCE,11550.912147869129,-3319.0552376574565,8146.093266736659,7242.43459015305,-187500.02235174447,-187500.02235174447,-187500.02235174447,-187500.02235174447
$SILENCE,11551.828569391797,-3279.0456150824566,8286.998663782915,7235.483197627449,-187500.02235174447,-187500.02235174447,-187500.02235174447,-187500.02235174447
$SILENCE,11366.86788402413,-3342.9492524801794,7780.709300125754,7259.667785128091,-187500.02235174447,-187500.02235174447,-187500.02235174447,-187500.02235174447
$SILENCE,11302.494859992847,-3389.6643983917716,7504.195869469151,7289.686177931569,-187500.02235174447,-187500.02235174447,-187500.02235174447,-187500.02235174447
$SILENCE,11534.684781394575,-3321.4692260586294,8063.570626207666,7284.902904618133,-187500.02235174447,-187500.02235174447,-187500.02235174447,-187500.02235174447
$SILENCE,11575.00732839195,-3270.328434744887,8355.216187860511,7282.667730172602,-187500.02235174447,-187500.02235174447,-187500.02235174447,-187500.02235174447
$SILENCE,11385.665701111044,-3298.8269089254036,7921.61469717201,7320.151605624153,-187500.02235174447,-187500.02235174447,-187500.02235174447,-187500.02235174447
$SILENCE,11339.62110753311,-3357.5896450984055,7504.508793891525,7315.6365532441805,-187500.02235174447,-187500.02235174447,-187500.02235174447,-187500.02235174447
$SILENCE,11515.484632907466,-3338.098923933378,7993.520259084733,7282.175991794586,-187500.02235174447,-187500.02235174447,-187500.02235174447,-187500.02235174447
$SILENCE,11541.971450087005,-3271.490725456563,8382.552371329353,7268.921407332588,-187500.02235174447,-187500.02235174447,-187500.02235174447,-187500.02235174447
$SILENCE,11431.352666777691,-3268.808516121926,8024.924460044439,7310.9426869085655,-187500.02235174447,-187500.02235174447,-187500.02235174447,-187500.02235174447
$SILENCE,11384.615169121644,-3351.3088049064645,7552.766210170533,7314.027227643398,-187500.02235174447,-187500.02235174447,-187500.02235174447,-187500.02235174447
$SILENCE,11406.5422304323,-3359.936578266213,7828.184405348827,7287.898038375144,-187500.02235174447,-187500.02235174447,-187500.02235174447,-187500.02235174447
$SILENCE,11469.104763162704,-3276.005777836535,8286.26105621589,7289.037977342365,-187500.02235174447,-187500.02235174447,-187500.02235174447,-187500.02235174447
$SILENCE,11432.939640634018,-3270.2390277670656,8124.479129848377,7326.275983604906,-187500.02235174447,-187500.02235174447,-187500.02235174447,-187500.02235174447
$SILENCE,11332.803825474242,-3347.7995810269813,7539.779846642,7312.239088086973,-187500.02235174447,-187500.02235174447,-187500.02235174447,-187500.02235174447
$SILENCE,11398.696768128488,-3352.9851857406125,7738.017468216118,7317.916431178622,-187500.02235174447,-187500.02235174447,-187500.02235174447,-187500.02235174447
$SILENCE,11500.128984466672,-3279.9173331162137,8264.177532694046,7274.554046935326,-187500.02235174447,-187500.02235174447,-187500.02235174447,-187500.02235174447
$SILENCE,11500.41955714459,-3289.0591965984345,8190.95321785846,7277.727994647979,-187500.02235174447,-187500.02235174447,-187500.02235174447,-187500.02235174447
$SILENCE,11297.219848301393,-3335.3049558764646,7635.981754777641,7335.037867431387,-187500.02235174447,-187500.02235174447,-187500.02235174447,-187500.02235174447
$SILENCE,11353.747410028865,-3350.9511769951796,7635.668830355267,7343.509178579949,-187500.02235174447,-187500.02235174447,-187500.02235174447,-187500.02235174447
$SILENCE,11542.887871609673,-3294.3789117787974,8229.062942154758,7283.2935790173515,-187500.02235174447,-187500.02235174447,-187500.02235174447,-187500.02235174447
$SILENCE,11474.245664387425,-3254.9280828151805,8271.01716649737,7311.009742141931,-187500.02235174447,-187500.02235174447,-187500.02235174447,-187500.02235174447
$SILENCE,11315.324761310192,-3307.186461351688,7712.8494039594425,7344.626765802714,-187500.02235174447,-187500.02235174447,-187500.02235174447,-187500.02235174447
$SILENCE,11341.632764534088,-3358.975453254635,7556.051916605463,7287.58511395277,-187500.02235174447,-187500.02235174447,-187500.02235174447,-187500.02235174447
$SILENCE,11531.667295893109,-3324.5314150490067,8150.407153416533,7269.815477110801,-187500.02235174447,-187500.02235174447,-187500.02235174447,-187500.02235174447
$SILENCE,11516.311647452314,-3281.258437783532,8306.712902392495,7264.540465419348,-187500.02235174447,-187500.02235174447,-187500.02235174447,-187500.02235174447
$SILENCE,11349.075895437705,-3299.966847892624,7805.519736471145,7319.816329457322,-187500.02235174447,-187500.02235174447,-187500.02235174447,-187500.02235174447
$SILENCE,11315.034188632273,-3363.6693195902494,7503.234744457573,7338.480036077504,-187500.02235174447,-187500.02235174447,-187500.02235174447,-187500.02235174447
$SILENCE,11486.069737204283,-3323.1456068927773,8042.224710252847,7290.468488987504,-187500.02235174447,-187500.02235174447,-187500.02235174447,-187500.02235174447
$SILENCE,11514.791728829352,-3262.3712137187977,8341.22399583149,7280.387852238161,-187500.02235174447,-187500.02235174447,-187500.02235174447,-187500.02235174447
$SILENCE,11433.16315807857,-3290.266190799021,7950.2249300748035,7334.143797653174,-187500.02235174447,-187500.02235174447,-187500.02235174447,-187500.02235174447
$SILENCE,11343.19738664596,-3363.557560867973,7501.670122345701,7313.177861354096,-187500.02235174447,-187500.02235174447,-187500.02235174447,-187500.02235174447
$SILENCE,11428.782216165331,-3345.51970309254,7927.403798985934,7274.308177746318,-187500.02235174447,-187500.02235174447,-187500.02235174447,-187500.02235174447
$SILENCE,11518.613877131209,-3274.776431891493,8352.712792481518,7282.10893656122,-187500.02235174447,-187500.02235174447,-187500.02235174447,-187500.02235174447
$SILENCE,11438.371114536658,-3278.486821471074,8046.4938934438105,7332.556823796848,-187500.02235174447,-187500.02235174447,-187500.02235174447,-187500.02235174447
$SILENCE,11333.586136530177,-3355.443877630696,7520.982029555086,7325.44896906006,-187500.02235174447,-187500.02235174447,-187500.02235174447,-187500.02235174447
$SILENCE,11439.041666870316,-3347.218435671143,7827.558556504078,7293.329512277784,-187500.02235174447,-187500.02235174447,-187500.02235174447,-187500.02235174447
$SILENCE,11526.414635946112,-3281.034920338979,8321.018018843892,7280.991349338455,-187500.02235174447,-187500.02235174447,-187500.02235174447,-187500.02235174447
$SILENCE,11467.026050928362,-3284.722958174105,8134.783284042273,7306.762910695424,-187500.02235174447,-187500.02235174447,-187500.02235174447,-187500.02235174447
$SILENCE,11352.58511931719,-3340.8928919902914,7602.40943460577,7327.482977805493,-187500.02235174447,-187500.02235174447,-187500.02235174447,-187500.02235174447
$SILENCE,11416.511108459366,-3356.650871831283,7738.375096127403,7299.945628636555,-187500.02235174447,-187500.02235174447,-187500.02235174447,-187500.02235174447
$SILENCE,11526.727560368487,-3302.6043537383503,8288.764451594883,7264.272244485885,-187500.02235174447,-187500.02235174447,-187500.02235174447,-187500.02235174447
$SILENCE,11485.153315681615,-3286.332283774887,8223.832633952217,7284.075890073287,-187500.02235174447,-187500.02235174447,-187500.02235174447,-187500.02235174447
$SILENCE,11334.569613286212,-3334.969679709635,7630.438522152725,7336.066047676331,-187500.02235174447,-187500.02235174447,-187500.02235174447,-187500.02235174447
$SILENCE,11384.324596443725,-3358.0813834764226,7629.611507607879,7321.06802714682,-187500.02235174447,-187500.02235174447,-187500.02235174447,-187500.02235174447
$SILENCE,11545.011287332927,-3308.2146415966326,8217.305924571267,7269.077869543776,-187500.02235174447,-187500.02235174447,-187500.02235174447,-187500.02235174447
$SILENCE,11501.492440878445,-3274.642321424761,8280.471954401964,7282.958302850521,-187500.02235174447,-187500.02235174447,-187500.02235174447,-187500.02235174447
$SILENCE,11372.925206771519,-3319.591679524384,7742.353706640448,7321.671524247114,-187500.02235174447,-187500.02235174447,-187500.02235174447,-187500.02235174447
$SILENCE,11362.933976999997,-3364.3622236683636,7569.462963278647,7321.135082380186,-187500.02235174447,-187500.02235174447,-187500.02235174447,-187500.02235174447
$SILENCE,11512.198926472536,-3325.872519716325,8148.70842083793,7271.335395733762,-187500.02235174447,-187500.02235174447,-187500.02235174447,-187500.02235174447
$SILENCE,11533.321324982802,-3277.9503796041467,8349.36003081322,7278.8679336152,-187500.02235174447,-187500.02235174447,-187500.02235174447,-187500.02235174447
$SILENCE,11395.299302971282,-3308.6393247412834,7854.872388228463,7307.232297328985,-187500.02235174447,-187500.02235174447,-187500.02235174447,-187500.02235174447
$SILENCE,11357.860131008641,-3364.965720768657,7526.748779624556,7314.898945677155,-187500.02235174447,-187500.02235174447,-187500.02235174447,-187500.02235174447
$SILENCE,11517.451586419535,-3334.9920314540905,8051.567739435165,7275.738689391457,-187500.02235174447,-187500.02235174447,-187500.02235174447,-187500.02235174447
$SILENCE,11572.682746968598,-3283.6053709513394,8369.901283967649,7267.20032300953,-187500.02235174447,-187500.02235174447,-187500.02235174447,-187500.02235174447
$SILENCE,11448.541158263823,-3306.359446806842,7974.72244199782,7297.084605346276,-187500.02235174447,-187500.02235174447,-187500.02235174447,-187500.02235174447
$SILENCE,11363.336308400192,-3381.148383754299,7524.245384245562,7298.82804141379,-187500.02235174447,-187500.02235174447,-187500.02235174447,-187500.02235174447
$SILENCE,11522.90541206663,-3367.223246958643,7948.749714940753,7262.10412527372,-187500.02235174447,-187500.02235174447,-187500.02235174447,-187500.02235174447
$SILENCE,11595.05684316836,-3296.234106568588,8369.23073163399,7250.81649432379,-187500.02235174447,-187500.02235174447,-187500.02235174447,-187500.02235174447
$SILENCE,11486.427365115567,-3294.289504800976,8070.164390821981,7281.550142949837,-187500.02235174447,-187500.02235174447,-187500.02235174447,-187500.02235174447
$SILENCE,11382.759974331853,-3363.9151887792577,7550.8439601473765,7304.550087994348,-187500.02235174447,-187500.02235174447,-187500.02235174447,-187500.02235174447
$SILENCE,11492.104708207216,-3369.8160493154587,7836.767475219664,7272.408279467617,-187500.02235174447,-187500.02235174447,-187500.02235174447,-187500.02235174447
$SILENCE,11605.316293873346,-3297.0164176245235,8348.689478479562,7252.984613535955,-187500.02235174447,-187500.02235174447,-187500.02235174447,-187500.02235174447
$SILENCE,11516.065778263304,-3288.2098303091325,8169.495543181365,7283.226523783985,-187500.02235174447,-187500.02235174447,-187500.02235174447,-187500.02235174447
$SILENCE,11369.43833463649,-3349.453610116674,7606.768024774555,7312.931992165089,-187500.02235174447,-187500.02235174447,-187500.02235174447,-187500.02235174447
$SILENCE,11453.659707744087,-3373.0794040059336,7730.708447779232,7275.559875435815,-187500.02235174447,-187500.02235174447,-187500.02235174447,-187500.02235174447
$SILENCE,11587.569008775832,-3309.220470097121,8301.348483723223,7243.283956442351,-187500.02235174447,-187500.02235174447,-187500.02235174447,-187500.02235174447
$SILENCE,11540.339772741769,-3291.0485018549566,8247.480779585932,7261.746497362435,-187500.02235174447,-187500.02235174447,-187500.02235174447,-187500.02235174447
$SILENCE,11409.11268104466,-3344.1562466807663,7679.500601232124,7301.152622837141,-187500.02235174447,-187500.02235174447,-187500.02235174447,-187500.02235174447
$SILENCE,11437.991134880916,-3381.1707354987548,7638.820426323466,7290.580247709781,-187500.02235174447,-187500.02235174447,-187500.02235174447,-187500.02235174447
$SILENCE,11604.601038050776,-3324.2408423710876,8258.276672157845,7247.061401255299,-187500.02235174447,-187500.02235174447,-187500.02235174447,-187500.02235174447
$SILENCE,11586.116145386237,-3284.812365151926,8346.923690667592,7259.488971172449,-187500.02235174447,-187500.02235174447,-187500.02235174447,-187500.02235174447
$SILENCE,11424.445977741001,-3330.8346069854033,7775.344881456481,7296.905791390633,-187500.02235174447,-187500.02235174447,-187500.02235174447,-187500.02235174447
$SILENCE,11426.412931253068,-3376.7450900966037,7586.293826853494,7285.752270907435,-187500.02235174447,-187500.02235174447,-187500.02235174447,-187500.02235174447
$SILENCE,11585.222075608024,-3342.0775344464228,8120.232298401868,7234.6338313381475,-187500.02235174447,-187500.02235174447,-187500.02235174447,-187500.02235174447
$SILENCE,11603.997540950482,-3296.8599554133366,8339.748780697439,7234.745590060425,-187500.02235174447,-187500.02235174447,-187500.02235174447,-187500.02235174447
$SILENCE,11466.087277661238,-3327.548900550473,7868.909283746396,7273.838791112757,-187500.02235174447,-187500.02235174447,-187500.02235174447,-187500.02235174447
$SILENCE,11414.722968902943,-3386.311636723475,7526.055875546441,7285.931084863078,-187500.02235174447,-187500.02235174447,-187500.02235174447,-187500.02235174447
$SILENCE,11575.364956303234,-3351.286453162009,8038.514320673266,7246.390848921639,-187500.02235174447,-187500.02235174447,-187500.02235174447,-187500.02235174447
$SILENCE,11630.171433707648,-3296.837603668881,8374.37163285871,7228.241232423929,-187500.02235174447,-187500.02235174447,-187500.02235174447,-187500.02235174447
$SILENCE,11499.100804221727,-3313.355542821353,7992.045043950683,7265.635700897658,-187500.02235174447,-187500.02235174447,-187500.02235174447,-187500.02235174447
$SILENCE,11399.657893140065,-3373.057052261478,7535.912994851232,7291.228448298985,-187500.02235174447,-187500.02235174447,-187500.02235174447,-187500.02235174447
$SILENCE,11540.786807630875,-3358.908398021269,7922.598173928043,7251.464694912994,-187500.02235174447,-187500.02235174447,-187500.02235174447,-187500.02235174447
$SILENCE,11629.433826140623,-3299.385702536786,8375.444516592564,7232.309249914796,-187500.02235174447,-187500.02235174447,-187500.02235174447,-187500.02235174447
$SILENCE,11529.94621157005,-3307.611144496339,8097.455870801911,7265.322776475285,-187500.02235174447,-187500.02235174447,-187500.02235174447,-187500.02235174447
$SILENCE,11410.96787583445,-3370.6207121158495,7556.990689872586,7293.553029722337,-187500.02235174447,-187500.02235174447,-187500.02235174447,-187500.02235174447
$SILENCE,11517.049255019338,-3370.0172150155563,7816.941477887807,7263.825209596778,-187500.02235174447,-187500.02235174447,-187500.02235174447,-187500.02235174447
$SILENCE,11631.579593608332,-3302.000856638057,8349.449437791043,7241.071133741276,-187500.02235174447,-187500.02235174447,-187500.02235174447,-187500.02235174447
não,11543.983107087983,-3291.227315810599,8190.439127735988,7261.366517706695,-187500.02235174447,-187500.02235174447,-187500.02235174447,-187500.02235174447
não,11384.436355166,-3344.5362263365064,7613.920583000253,7301.264381559418,-187500.02235174447,-187500.02235174447,-187500.02235174447,-187500.02235174447
não,11447.445922785511,-3362.3058631784756,7707.015598656607,7283.382985995172,-187500.02235174447,-187500.02235174447,-187500.02235174447,-187500.02235174447
não,11600.91300021565,-3303.2749060720093,8288.429175428055,7242.7922180643345,-187500.02235174447,-187500.02235174447,-187500.02235174447,-187500.02235174447
não,11555.784828160386,-3284.678254685194,8254.25335815589,7256.247968226429,-187500.02235174447,-187500.02235174447,-187500.02235174447,-187500.02235174447
não,11399.412023951058,-3335.841397743392,7682.495734989136,7299.431538514083,-187500.02235174447,-187500.02235174447,-187500.02235174447,-187500.02235174447
não,11430.950335377496,-3375.4933924071065,7609.964324231663,7285.685215674069,-187500.02235174447,-187500.02235174447,-187500.02235174447,-187500.02235174447
não,11590.228866366013,-3321.0221911695235,8210.466290767943,7238.09835172872,-187500.02235174447,-187500.02235174447,-187500.02235174447,-187500.02235174447
não,11581.86931393973,-3283.158336062233,8321.2638880329,7249.475389656472,-187500.02235174447,-187500.02235174447,-187500.02235174447,-187500.02235174447
não,11430.033913854828,-3329.8511302293696,7777.915332068841,7285.439346485061,-187500.02235174447,-187500.02235174447,-187500.02235174447,-187500.02235174447
não,11417.78515789332,-3381.3719011988524,7547.3794397568045,7290.334378520773,-187500.02235174447,-187500.02235174447,-187500.02235174447,-187500.02235174447
não,11598.163735647648,-3337.89775823328,8119.248821645835,7246.167331477086,-187500.02235174447,-187500.02235174447,-187500.02235174447,-187500.02235174447
não,11627.422169139645,-3292.546068733462,8349.22592034649,7242.546348875327,-187500.02235174447,-187500.02235174447,-187500.02235174447,-187500.02235174447
não,11476.011452199395,-3319.2116998686433,7893.429147413868,7277.593884181248,-187500.02235174447,-187500.02235174447,-187500.02235174447,-187500.02235174447
não,11420.869698628152,-3383.4729651776515,7530.01213431503,7288.032148841876,-187500.02235174447,-187500.02235174447,-187500.02235174447,-187500.02235174447
não,11587.233732609002,-3359.869523032847,8014.3297331726235,7235.684363327547,-187500.02235174447,-187500.02235174447,-187500.02235174447,-187500.02235174447
não,11654.266614230468,-3303.4090165387415,8356.400830316643,7221.267488153874,-187500.02235174447,-187500.02235174447,-187500.02235174447,-187500.02235174447
não,11530.728522625986,-3318.965830679635,7985.160706658448,7257.901997316122,-187500.02235174447,-187500.02235174447,-187500.02235174447,-187500.02235174447
não,11419.282724771825,-3377.8179738304584,7509.448529416148,7284.522924962393,-187500.02235174447,-187500.02235174447,-187500.02235174447,-187500.02235174447
não,11563.160903830636,-3370.8665813048583,7884.063766487095,7241.607575608204,-187500.02235174447,-187500.02235174447,-187500.02235174447,-187500.02235174447
não,11673.757335395496,-3317.267098101032,8347.571891256797,7216.104235184698,-187500.02235174447,-187500.02235174447,-187500.02235174447,-187500.02235174447
não,11566.33485154329,-3318.0494091569676,8097.545277779732,7249.564796634293,-187500.02235174447,-187500.02235174447,-187500.02235174447,-187500.02235174447
não,11433.587841223221,-3372.2747412055423,7553.548521226468,7280.901942360633,-187500.02235174447,-187500.02235174447,-187500.02235174447,-187500.02235174447
não,11549.012249590427,-3388.1221280243553,7778.6529396358665,7243.798046564823,-187500.02235174447,-187500.02235174447,-187500.02235174447,-187500.02235174447
não,11680.395803498723,-3324.196138882177,8321.107425821714,7215.456034595494,-187500.02235174447,-187500.02235174447,-187500.02235174447,-187500.02235174447
não,11597.761404247452,-3308.4158072967302,8184.672377666519,7239.238290695941,-187500.02235174447,-187500.02235174447,-187500.02235174447,-187500.02235174447
não,11452.162140865583,-3367.2679504475536,7615.0605219674735,7272.7882591233565,-187500.02235174447,-187500.02235174447,-187500.02235174447,-187500.02235174447
não,11531.33201972628,-3394.224154260654,7692.151688593828,7254.772753092379,-187500.02235174447,-187500.02235174447,-187500.02235174447,-187500.02235174447
não,11691.772841426473,-3333.0697814309337,8293.748890608418,7213.66789503907,-187500.02235174447,-187500.02235174447,-187500.02235174447,-187500.02235174447
não,11653.506654918989,-3306.4712055291184,8279.108497990192,7230.297592913818,-187500.02235174447,-187500.02235174447,-187500.02235174447,-187500.02235174447
não,11496.463298376,-3364.0940027349,7680.9758163661745,7271.089526544753,-187500.02235174447,-187500.02235174447,-187500.02235174447,-187500.02235174447
não,11509.494365393444,-3410.2280032906538,7576.324948826426,7258.48314267196,-187500.02235174447,-187500.02235174447,-187500.02235174447,-187500.02235174447
não,11678.36179475329,-3371.7830028275257,8171.484848437888,7206.895316469111,-187500.02235174447,-187500.02235174447,-187500.02235174447,-187500.02235174447
não,11679.367623253778,-3324.5761185379174,8313.619591429186,7210.873926982156,-187500.02235174447,-187500.02235174447,-187500.02235174447,-187500.02235174447
não,11533.008400560428,-3347.3748978823305,7804.960942859762,7265.3898317086505,-187500.02235174447,-187500.02235174447,-187500.02235174447,-187500.02235174447
não,11502.006531000916,-3405.355322999397,7531.912032593732,7262.506456673916,-187500.02235174447,-187500.02235174447,-187500.02235174447,-187500.02235174447
não,11677.668890675175,-3366.9773777696346,8086.0564811297045,7211.075092682254,-187500.02235174447,-187500.02235174447,-187500.02235174447,-187500.02235174447
não,11713.521088781488,-3318.295278345976,8347.951870912537,7212.304438627296,-187500.02235174447,-187500.02235174447,-187500.02235174447,-187500.02235174447
não,11570.469924267521,-3344.7597437810596,7917.971362825795,7256.538540904348,-187500.02235174447,-187500.02235174447,-187500.02235174447,-187500.02235174447
não,11492.015301229394,-3411.747921913615,7509.24736371605,7259.600729894725,-187500.02235174447,-187500.02235174447,-187500.02235174447,-187500.02235174447
não,11649.572747894854,-3384.2999797224975,7977.985796688295,7221.267488153874,-187500.02235174447,-187500.02235174447,-187500.02235174447,-187500.02235174447
não,11726.261583121013,-3322.60916502585,8356.914920439116,7204.99541819041,-187500.02235174447,-187500.02235174447,-187500.02235174447,-187500.02235174447
não,11620.873108014239,-3343.776267025026,8013.167442460948,7242.211072708496,-187500.02235174447,-187500.02235174447,-187500.02235174447,-187500.02235174447
não,11495.926856509073,-3416.6876574382377,7519.395055698759,7259.444267683539,-187500.02235174447,-187500.02235174447,-187500.02235174447,-187500.02235174447
não,11632.63012559773,-3409.6468579348157,7871.032699469651,7217.512395085382,-187500.02235174447,-187500.02235174447,-187500.02235174447,-187500.02235174447
não,11750.714391555119,-3339.507083834062,8356.736106483473,7204.101348412198,-187500.02235174447,-187500.02235174447,-187500.02235174447,-187500.02235174447
não,11655.630070642243,-3340.0211739565343,8125.529661837776,7240.579395363259,-187500.02235174447,-187500.02235174447,-187500.02235174447,-187500.02235174447
não,11520.446720176546,-3397.6216194178605,7565.573759743424,7270.128401533175,-187500.02235174447,-187500.02235174447,-187500.02235174447,-187500.02235174447
não,11594.453346068067,-3425.6507069648155,7745.997040986663,7219.300534641807,-187500.02235174447,-187500.02235174447,-187500.02235174447,-187500.02235174447
não,11734.911708225216,-3358.193142198699,8339.50291150843,7195.250057607896,-187500.02235174447,-187500.02235174447,-187500.02235174447,-187500.02235174447
não,11679.188809298135,-3345.9220344927353,8212.500299513376,7212.5056043273935,-187500.02235174447,-187500.02235174447,-187500.02235174447,-187500.02235174447
não,11528.448644691545,-3416.7547126716036,7601.448309594191,7231.772808047868,-187500.02235174447,-187500.02235174447,-187500.02235174447,-187500.02235174447
não,11597.224962380526,-3419.4592737506955,7639.51333040158,7243.038087253343,-187500.02235174447,-187500.02235174447,-187500.02235174447,-187500.02235174447
não,11758.336336414379,-3346.346717637386,8244.35153536219,7205.33069435724,-187500.02235174447,-187500.02235174447,-187500.02235174447,-187500.02235174447
não,11687.101326835314,-3361.0765172334336,8235.410837580066,7186.37641505914,-187500.02235174447,-187500.02235174447,-187500.02235174447,-187500.02235174447
não,11540.183310530581,-3407.0093520890896,7697.896086918841,7233.113912715186,-187500.02235174447,-187500.02235174447,-187500.02235174447,-187500.02235174447
não,11561.417467763124,-3444.2697100960863,7587.389062331804,7226.386037634139,-187500.02235174447,-187500.02235174447,-187500.02235174447,-187500.02235174447
não,11734.621135547297,-3400.5273461970505,8161.583025644187,7173.904141653078,-187500.02235174447,-187500.02235174447,-187500.02235174447,-187500.02235174447
não,11735.269336136502,-3361.8141248004586,8312.859632117705,7180.073223122743,-187500.02235174447,-187500.02235174447,-187500.02235174447,-187500.02235174447
não,11582.741031973486,-3400.7508636416037,7809.855974895475,7226.833072523245,-187500.02235174447,-187500.02235174447,-187500.02235174447,-187500.02235174447
não,11550.420409491111,-3447.600120019927,7540.048067575463,7236.354915661206,-187500.02235174447,-187500.02235174447,-187500.02235174447,-187500.02235174447
não,11711.55413526942,-3407.836366633936,8068.376251265557,7158.570844956737,-187500.02235174447,-187500.02235174447,-187500.02235174447,-187500.02235174447
não,11752.636641578274,-3370.799526071492,8375.489220081476,7155.821580388735,-187500.02235174447,-187500.02235174447,-187500.02235174447,-187500.02235174447
não,11598.364901347746,-3401.063788063978,7888.914095033896,7208.079958925243,-187500.02235174447,-187500.02235174447,-187500.02235174447,-187500.02235174447
não,11521.407845188123,-3462.7098992717147,7469.461258585604,7219.591107319726,-187500.02235174447,-187500.02235174447,-187500.02235174447,-187500.02235174447
não,11684.26265528949,-3437.743000715137,7941.7759706706975,7180.3414440562065,-187500.02235174447,-187500.02235174447,-187500.02235174447,-187500.02235174447
não,11761.644394593763,-3377.840325574914,8347.661298234618,7165.969272371444,-187500.02235174447,-187500.02235174447,-187500.02235174447,-187500.02235174447
não,11635.669962843653,-3390.8490408479024,8017.749550074286,7201.016807677366,-187500.02235174447,-187500.02235174447,-187500.02235174447,-187500.02235174447
não,11523.6206678892,-3456.4961143131395,7508.263886960017,7221.647467809614,-187500.02235174447,-187500.02235174447,-187500.02235174447,-187500.02235174447
não,11654.803056097397,-3451.5563787885167,7842.914204944874,7184.6776824805365,-187500.02235174447,-187500.02235174447,-187500.02235174447,-187500.02235174447
não,11767.701717341151,-3385.931657067735,8352.489275036964,7161.744792669391,-187500.02235174447,-187500.02235174447,-187500.02235174447,-187500.02235174447
não,11673.936149351139,-3381.394252943308,8141.689973078964,7194.400691318595,-187500.02235174447,-187500.02235174447,-187500.02235174447,-187500.02235174447
não,11537.18817677357,-3432.0433058790336,7562.645681219778,7228.62121207967,-187500.02235174447,-187500.02235174447,-187500.02235174447,-187500.02235174447
não,11652.769047351963,-3439.39702980483,7749.282747421593,7194.7136157409695,-187500.02235174447,-187500.02235174447,-187500.02235174447,-187500.02235174447
não,11756.078810224391,-3427.0588668655,8274.97342526596,7122.629239872604,-187500.02235174447,-187500.02235174447,-187500.02235174447,-187500.02235174447
não,11686.877809390762,-3409.1774713012546,8186.393461989577,7152.737039653903,-187500.02235174447,-187500.02235174447,-187500.02235174447,-187500.02235174447
não,11545.748894899953,-3454.5962160344384,7626.214042450672,7213.399674105606,-187500.02235174447,-187500.02235174447,-187500.02235174447,-187500.02235174447
não,11598.789584492397,-3483.5193733596057,7635.355905932893,7184.923551669544,-187500.02235174447,-187500.02235174447,-187500.02235174447,-187500.02235174447
não,11760.549159115453,-3423.102608096911,8245.15619816258,7142.187016270997,-187500.02235174447,-187500.02235174447,-187500.02235174447,-187500.02235174447
não,11734.79994950294,-3391.184317014732,8288.272713216867,7149.965423341445,-187500.02235174447,-187500.02235174447,-187500.02235174447,-187500.02235174447
não,11579.05299413836,-3426.8800529098576,7726.841595988464,7190.131508127632,-187500.02235174447,-187500.02235174447,-187500.02235174447,-187500.02235174447
não,11574.314424313836,-3464.252169639131,7575.453230792669,7200.636828021626,-187500.02235174447,-187500.02235174447,-187500.02235174447,-187500.02235174447
não,11699.305379307913,-3454.775029990081,8151.927072039494,7126.36198119664,-187500.02235174447,-187500.02235174447,-187500.02235174447,-187500.02235174447
não,11731.089559923359,-3395.9228868392574,8367.12966765519,7147.46202796245,-187500.02235174447,-187500.02235174447,-187500.02235174447,-187500.02235174447
não,11572.079249868304,-3442.258053095109,7815.622724964944,7178.866228922157,-187500.02235174447,-187500.02235174447,-187500.02235174447,-187500.02235174447
não,11520.178499243082,-3490.671931585304,7468.030746940464,7191.003226161388,-187500.02235174447,-187500.02235174447,-187500.02235174447,-187500.02235174447
não,11678.138277308737,-3456.049079424033,8010.373474404035,7139.013068558344,-187500.02235174447,-187500.02235174447,-187500.02235174447,-187500.02235174447
não,11738.4209321047,-3400.0803113079446,8335.211376573012,7144.8245221167235,-187500.02235174447,-187500.02235174447,-187500.02235174447,-187500.02235174447
não,11610.390139864701,-3417.805244661003,7932.120017066004,7187.315188326263,-187500.02235174447,-187500.02235174447,-187500.02235174447,-187500.02235174447
não,11511.349560183235,-3482.73706230367,7486.090956460352,7205.777729246346,-187500.02235174447,-187500.02235174447,-187500.02235174447,-187500.02235174447
não,11661.285061989434,-3470.5330098310724,7925.503900707234,7150.32305125273,-187500.02235174447,-187500.02235174447,-187500.02235174447,-187500.02235174447
não,11755.743534057563,-3402.4719479646624,8386.061595208836,7130.340591709685,-187500.02235174447,-187500.02235174447,-187500.02235174447,-187500.02235174447
não,11621.96834349255,-3410.2280032906538,8022.577526876632,7179.000339388888,-187500.02235174447,-187500.02235174447,-187500.02235174447,-187500.02235174447
não,11497.938513510051,-3480.9265710027903,7501.893639790254,7206.157708902087,-187500.02235174447,-187500.02235174447,-187500.02235174447,-187500.02235174447
não,11611.597134065287,-3485.441623382762,7780.888114081396,7172.093650352198,-187500.02235174447,-187500.02235174447,-187500.02235174447,-187500.02235174447
não,11735.716371025608,-3418.4757969946622,8301.192021512035,7152.312356509252,-187500.02235174447,-187500.02235174447,-187500.02235174447,-187500.02235174447
não,11649.349230450302,-3411.9043841248017,8112.856222731617,7182.643673735103,-187500.02235174447,-187500.02235174447,-187500.02235174447,-187500.02235174447
não,11506.678045592076,-3475.539800589061,7544.876044377809,7223.614421321681,-187500.02235174447,-187500.02235174447,-187500.02235174447,-187500.02235174447
não,11585.512648285943,-3493.0412164975664,7687.971912380685,7186.666987737059,-187500.02235174447,-187500.02235174447,-187500.02235174447,-187500.02235174447
não,11725.971010443094,-3425.0472098645223,8269.072564729759,7150.32305125273,-187500.02235174447,-187500.02235174447,-187500.02235174447,-187500.02235174447
não,11665.554245180398,-3406.0035235886007,8203.62665696462,7172.853609663679,-187500.02235174447,-187500.02235174447,-187500.02235174447,-187500.02235174447
não,11517.585696886266,-3459.021861436589,7615.932240001231,7216.752435773902,-187500.02235174447,-187500.02235174447,-187500.02235174447,-187500.02235174447
não,11553.19202580357,-3495.45520489874,7592.395853089793,7197.619342520159,-187500.02235174447,-187500.02235174447,-187500.02235174447,-187500.02235174447
não,11720.561888284908,-3434.524349513573,8189.880334124606,7165.7234031824355,-187500.02235174447,-187500.02235174447,-187500.02235174447,-187500.02235174447
não,11693.113946093792,-3402.248430520109,8245.223253395945,7180.184981845019,-187500.02235174447,-187500.02235174447,-187500.02235174447,-187500.02235174447
não,11528.113368524715,-3449.2765008540755,7696.175002595784,7228.598860335214,-187500.02235174447,-187500.02235174447,-187500.02235174447,-187500.02235174447
não,11516.199888730036,-3499.679684600793,7514.276506218494,7232.711581314991,-187500.02235174447,-187500.02235174447,-187500.02235174447,-187500.02235174447
não,11680.708727921097,-3448.7624107316033,8092.851411444118,7185.281179580829,-187500.02235174447,-187500.02235174447,-187500.02235174447,-187500.02235174447
não,11691.616379215286,-3400.1697182857656,8292.877172574661,7186.823449948246,-187500.02235174447,-187500.02235174447,-187500.02235174447,-187500.02235174447
não,11528.605106902733,-3435.0607913805,7804.625666692933,7224.173214933064,-187500.02235174447,-187500.02235174447,-187500.02235174447,-187500.02235174447
não,11475.922045221574,-3494.2705624426085,7470.422383597182,7235.460845882994,-187500.02235174447,-187500.02235174447,-187500.02235174447,-187500.02235174447
não,11626.125767961237,-3457.3678323468966,7992.9614654733505,7201.463842566472,-187500.02235174447,-187500.02235174447,-187500.02235174447,-187500.02235174447
não,11654.288965974923,-3399.745035141115,8312.613762928697,7198.960447187477,-187500.02235174447,-187500.02235174447,-187500.02235174447,-187500.02235174447
não,11512.534202639366,-3415.994753360123,7913.1880895123595,7241.249947696919,-187500.02235174447,-187500.02235174447,-187500.02235174447,-187500.02235174447
não,11415.728797403432,-3477.6855680567705,7444.673173984668,7255.108029259209,-187500.02235174447,-187500.02235174447,-187500.02235174447,-187500.02235174447
não,11566.04427886537,-3464.833314994969,7859.230978397248,7211.946810716011,-187500.02235174447,-187500.02235174447,-187500.02235174447,-187500.02235174447
não,11650.466817673067,-3406.182337544243,8297.079300532258,7187.181077859531,-187500.02235174447,-187500.02235174447,-187500.02235174447,-187500.02235174447
não,11536.718790140008,-3412.351419013908,8004.830241779118,7226.162520189586,-187500.02235174447,-187500.02235174447,-187500.02235174447,-187500.02235174447
não,11409.649122911587,-3463.9839487056674,7473.484572587558,7256.717354859991,-187500.02235174447,-187500.02235174447,-187500.02235174447,-187500.02235174447
não,11517.5186416529,-3455.0432509235443,7753.283709679093,7228.308287657295,-187500.02235174447,-187500.02235174447,-187500.02235174447,-187500.02235174447
não,11632.317201175358,-3393.7547676270924,8275.308701432788,7209.823394992757,-187500.02235174447,-187500.02235174447,-187500.02235174447,-187500.02235174447
não,11549.548691457354,-3388.993846058112,8111.403359342023,7239.372401162673,-187500.02235174447,-187500.02235174447,-187500.02235174447,-187500.02235174447
não,11391.723023858432,-3444.314413584997,7531.44264596017,7265.792163108846,-187500.02235174447,-187500.02235174447,-187500.02235174447,-187500.02235174447
não,11462.846274715219,-3460.8100009930135,7642.79903683651,7239.7970843073235,-187500.02235174447,-187500.02235174447,-187500.02235174447,-187500.02235174447
não,11617.185070179114,-3401.57787818645,8254.186302922524,7200.368607088162,-187500.02235174447,-187500.02235174447,-187500.02235174447,-187500.02235174447
não,11554.644889193165,-3374.0852325064225,8199.983322618404,7222.586241076737,-187500.02235174447,-187500.02235174447,-187500.02235174447,-187500.02235174447
não,11392.795907592286,-3421.448579007218,7598.497879326092,7262.215883995997,-187500.02235174447,-187500.02235174447,-187500.02235174447,-187500.02235174447
não,11430.793873166309,-3462.553437060528,7547.312384523438,7257.074982771276,-187500.02235174447,-187500.02235174447,-187500.02235174447,-187500.02235174447
não,11593.447517567578,-3406.7187794111705,8141.3546969121335,7210.091615926221,-187500.02235174447,-187500.02235174447,-187500.02235174447,-187500.02235174447
não,11570.805200434352,-3364.80925855747,8237.355439347677,7222.854462010201,-187500.02235174447,-187500.02235174447,-187500.02235174447,-187500.02235174447
não,11424.177756807538,-3405.7129509106817,7718.258526117626,7281.192515038552,-187500.02235174447,-187500.02235174447,-187500.02235174447,-187500.02235174447
não,11408.978570577929,-3457.680756769271,7505.425215414192,7271.737727133957,-187500.02235174447,-187500.02235174447,-187500.02235174447,-187500.02235174447
não,11577.935406915594,-3417.1123405828885,8073.897132146018,7221.826281765257,-187500.02235174447,-187500.02235174447,-187500.02235174447,-187500.02235174447
não,11592.821668722829,-3367.446764403196,8287.535105649842,7228.554156846304,-187500.02235174447,-187500.02235174447,-187500.02235174447,-187500.02235174447
não,11440.248661070904,-3398.001599073601,7813.432254008324,7267.066212542798,-187500.02235174447,-187500.02235174447,-187500.02235174447,-187500.02235174447
não,11384.436355166,-3452.025765422078,7462.308700359906,7279.225561526485,-187500.02235174447,-187500.02235174447,-187500.02235174447,-187500.02235174447
não,11548.364049001224,-3413.290192281031,7971.034404162694,7235.125569716164,-187500.02235174447,-187500.02235174447,-187500.02235174447,-187500.02235174447
não,11602.254104882968,-3356.5391131090064,8314.491309462943,7225.313153900284,-187500.02235174447,-187500.02235174447,-187500.02235174447,-187500.02235174447
não,11477.441963844534,-3375.6945581072046,7941.150121825948,7273.5482184348375,-187500.02235174447,-187500.02235174447,-187500.02235174447,-187500.02235174447
não,11377.797887062776,-3441.900425183824,7467.807229495911,7294.335340778272,-187500.02235174447,-187500.02235174447,-187500.02235174447,-187500.02235174447
não,11516.401054430135,-3428.7575994441036,7857.375783607457,7239.9758982629655,-187500.02235174447,-187500.02235174447,-187500.02235174447,-187500.02235174447
não,11609.004331708471,-3364.8539620463807,8300.275599989367,7220.686342798036,-187500.02235174447,-187500.02235174447,-187500.02235174447,-187500.02235174447
