WORD,Channel_1,Channel_2,Channel_3,Channel_4,Channel_5,Channel_6,Channel_7,Channel_8
$SILENCE,11028.887156115432,-1542.3150709050979,6248.117238058715,7757.351727169958,-187500.02235174447,-187500.02235174447,-187500.02235174447,-187500.02235174447
$SILENCE,10853.604776096914,-1578.0778620335893,5690.418862154349,7796.422576477836,-187500.02235174447,-187500.02235174447,-187500.02235174447,-187500.02235174447
$SILENCE,10802.151060360797,-1627.5869760020944,5361.691756450147,7805.095053326494,-187500.02235174447,-187500.02235174447,-187500.02235174447,-187500.02235174447
$SILENCE,10996.27596095514,-1588.627885416494,5956.024641516762,7766.806515074553,-187500.02235174447,-187500.02235174447,-187500.02235174447,-187500.02235174447
$SILENCE,11046.14270283493,-1538.4929226032405,6284.14825012067,7761.9785382722075,-187500.02235174447,-187500.02235174447,-187500.02235174447,-187500.02235174447
$SILENCE,10876.716479863702,-1562.3198821925978,5813.554622358635,7794.232105521215,-187500.02235174447,-187500.02235174447,-187500.02235174447,-187500.02235174447
$SILENCE,10775.619539692349,-1623.2283858333094,5338.62475617227,7809.096015583995,-187500.02235174447,-187500.02235174447,-187500.02235174447,-187500.02235174447
$SILENCE,10956.221634891228,-1602.2624495342316,5830.25137546675,7772.39445118838,-187500.02235174447,-187500.02235174447,-187500.02235174447,-187500.02235174447
$SILENCE,11056.782133195655,-1543.991451739246,6288.260971100446,7754.15542771285,-187500.02235174447,-187500.02235174447,-187500.02235174447,-187500.02235174447
$SILENCE,10920.838823418479,-1557.7824780681703,5934.611670328578,7783.235047249204,-187500.02235174447,-187500.02235174447,-187500.02235174447,-187500.02235174447
$SILENCE,10771.395059990295,-1619.8085689316474,5354.092163335343,7808.492518483701,-187500.02235174447,-187500.02235174447,-187500.02235174447,-187500.02235174447
$SILENCE,10914.200355315252,-1611.4937199942733,5696.6102953684685,7777.155372757361,-187500.02235174447,-187500.02235174447,-187500.02235174447,-187500.02235174447
$SILENCE,11049.674278458868,-1545.6454808289386,6260.477752742499,7754.244834690671,-187500.02235174447,-187500.02235174447,-187500.02235174447,-187500.02235174447
$SILENCE,10945.895128952878,-1544.4608383728075,6042.6376512810775,7781.223390248227,-187500.02235174447,-187500.02235174447,-187500.02235174447,-187500.02235174447
$SILENCE,10778.32410077144,-1609.3703042710192,5403.891849981767,7810.21360280676,-187500.02235174447,-187500.02235174447,-187500.02235174447,-187500.02235174447
$SILENCE,10873.497828662137,-1621.3061358101531,5571.127601996374,7785.246704250182,-187500.02235174447,-187500.02235174447,-187500.02235174447,-187500.02235174447
$SILENCE,11045.00276386771,-1554.3403094220532,6209.493423639944,7757.262320192137,-187500.02235174447,-187500.02235174447,-187500.02235174447,-187500.02235174447
$SILENCE,10988.899885284887,-1544.058506972612,6133.676306447543,7775.121364011928,-187500.02235174447,-187500.02235174447,-187500.02235174447,-187500.02235174447
$SILENCE,10814.913906444777,-1606.7998536586588,5490.571914979448,7811.398245262891,-187500.02235174447,-187500.02235174447,-187500.02235174447,-187500.02235174447
$SILENCE,10860.511465133604,-1634.6724789944267,5469.829496124923,7796.869611366941,-187500.02235174447,-187500.02235174447,-187500.02235174447,-187500.02235174447
$SILENCE,11041.381781265949,-1568.7124811068156,6130.144730823605,7760.7491923271655,-187500.02235174447,-187500.02235174447,-187500.02235174447,-187500.02235174447
$SILENCE,11011.98923730722,-1540.7504487932265,6201.223278191481,7771.142753498883,-187500.02235174447,-187500.02235174447,-187500.02235174447,-187500.02235174447
$SILENCE,10833.041171198032,-1597.635638431983,5594.552230185536,7806.167937060349,-187500.02235174447,-187500.02235174447,-187500.02235174447,-187500.02235174447
$SILENCE,10828.079083928953,-1642.629700020516,5400.717902269113,7805.318570771047,-187500.02235174447,-187500.02235174447,-187500.02235174447,-187500.02235174447
$SILENCE,11020.66171415588,-1579.083690534078,6042.861168725631,7772.282692466104,-187500.02235174447,-187500.02235174447,-187500.02235174447,-187500.02235174447
$SILENCE,11033.938650362332,-1530.8039225106147,6257.303805029846,7779.614064647444,-187500.02235174447,-187500.02235174447,-187500.02235174447,-187500.02235174447
$SILENCE,10855.214101697697,-1575.954446310335,5722.493615447715,7815.130986586927,-187500.02235174447,-187500.02235174447,-187500.02235174447,-187500.02235174447
$SILENCE,10783.353243273885,-1637.1982261178764,5365.312739051908,7814.862765653464,-187500.02235174447,-187500.02235174447,-187500.02235174447,-187500.02235174447
$SILENCE,10958.568568059036,-1586.7726906267037,5925.581565568634,7775.747212856676,-187500.02235174447,-187500.02235174447,-187500.02235174447,-187500.02235174447
$SILENCE,11020.281734500139,-1526.3559253640087,6268.010290623938,7774.316701211536,-187500.02235174447,-187500.02235174447,-187500.02235174447,-187500.02235174447
$SILENCE,10875.44243042975,-1560.7552600807262,5835.079352269096,7807.866669638953,-187500.02235174447,-187500.02235174447,-187500.02235174447,-187500.02235174447
$SILENCE,10774.658414680769,-1632.3255458266194,5352.236968545552,7821.344771545502,-187500.02235174447,-187500.02235174447,-187500.02235174447,-187500.02235174447
$SILENCE,10936.842672448478,-1600.7648826557258,5800.992941974752,7783.0562332935615,-187500.02235174447,-187500.02235174447,-187500.02235174447,-187500.02235174447
$SILENCE,11042.745237677722,-1530.893329488436,6266.982110378995,7770.069869765029,-187500.02235174447,-187500.02235174447,-187500.02235174447,-187500.02235174447
$SILENCE,10928.840747933478,-1551.345175665042,5948.380344913047,7796.02024507764,-187500.02235174447,-187500.02235174447,-187500.02235174447,-187500.02235174447
$SILENCE,10786.638949708815,-1626.6482027349714,5374.834582189868,7814.996876120195,-187500.02235174447,-187500.02235174447,-187500.02235174447,-187500.02235174447
$SILENCE,10908.63477094588,-1615.2711648072202,5678.4159753818485,7786.5878089175,-187500.02235174447,-187500.02235174447,-187500.02235174447,-187500.02235174447
$SILENCE,11040.890042887931,-1542.6279953274723,6241.411714722123,7762.939663283785,-187500.02235174447,-187500.02235174447,-187500.02235174447,-187500.02235174447
$SILENCE,10943.794064974078,-1545.9807569957684,6054.171151420016,7785.626683905922,-187500.02235174447,-187500.02235174447,-187500.02235174447,-187500.02235174447
$SILENCE,10773.9431588582,-1615.628792718505,5430.445722394672,7819.6236872224445,-187500.02235174447,-187500.02235174447,-187500.02235174447,-187500.02235174447
$SILENCE,10857.33751742095,-1625.0612288786447,5555.883712277855,7798.92597185683,-187500.02235174447,-187500.02235174447,-187500.02235174447,-187500.02235174447
$SILENCE,11028.84245262652,-1552.663928587905,6182.492516337934,7765.86774180743,-187500.02235174447,-187500.02235174447,-187500.02235174447,-187500.02235174447
$SILENCE,10968.64920480838,-1537.0624109581008,6139.286594305825,7780.865762336942,-187500.02235174447,-187500.02235174447,-187500.02235174447,-187500.02235174447
$SILENCE,10788.248275309596,-1600.3849029999858,5515.516461791571,7815.198041820293,-187500.02235174447,-187500.02235174447,-187500.02235174447,-187500.02235174447
$SILENCE,10825.352171105405,-1630.2691853367312,5456.194932007186,7803.6421899369,-187500.02235174447,-187500.02235174447,-187500.02235174447,-187500.02235174447
$SILENCE,11013.017417552164,-1562.6775101038827,6099.075806030728,7766.068907507528,-187500.02235174447,-187500.02235174447,-187500.02235174447,-187500.02235174447
$SILENCE,10995.136021987919,-1532.1450271779331,6207.057083494316,7774.294349467082,-187500.02235174447,-187500.02235174447,-187500.02235174447,-187500.02235174447
$SILENCE,10819.987752436133,-1587.3985394714523,5628.236309079684,7813.007570863673,-187500.02235174447,-187500.02235174447,-187500.02235174447,-187500.02235174447
$SILENCE,10804.162717361774,-1636.1700458729324,5386.010454417522,7808.112538827961,-187500.02235174447,-187500.02235174447,-187500.02235174447,-187500.02235174447
$SILENCE,10991.783260319622,-1580.8718300905027,5996.838926892153,7764.101953995461,-187500.02235174447,-187500.02235174447,-187500.02235174447,-187500.02235174447
$SILENCE,11020.773472878156,-1536.9730039802796,6246.373801991201,7767.365308685936,-187500.02235174447,-187500.02235174447,-187500.02235174447,-187500.02235174447
$SILENCE,10858.164531965796,-1578.1225655224998,5740.129141822951,7804.424500992835,-187500.02235174447,-187500.02235174447,-187500.02235174447,-187500.02235174447
$SILENCE,10788.427089265238,-1638.9416621853904,5349.48770397755,7813.745178430699,-187500.02235174447,-187500.02235174447,-187500.02235174447,-187500.02235174447
$SILENCE,10961.988384960698,-1597.3003622651534,5886.175440093928,7772.1932854882825,-187500.02235174447,-187500.02235174447,-187500.02235174447,-187500.02235174447
$SILENCE,11018.113615287974,-1541.085724960056,6263.025851610405,7759.944529526774,-187500.02235174447,-187500.02235174447,-187500.02235174447,-187500.02235174447
$SILENCE,10863.551302379527,-1566.4549549168296,5851.597291421568,7795.081471810517,-187500.02235174447,-187500.02235174447,-187500.02235174447,-187500.02235174447
$SILENCE,10745.668202122237,-1631.140903370488,5335.696677648625,7813.1640330748605,-187500.02235174447,-187500.02235174447,-187500.02235174447,-187500.02235174447
$SILENCE,10913.909782637333,-1609.660876948938,5758.837551932043,7775.590750645489,-187500.02235174447,-187500.02235174447,-187500.02235174447,-187500.02235174447
$SILENCE,11027.858975870487,-1542.7844575386594,6260.276587042402,7762.514980139134,-187500.02235174447,-187500.02235174447,-187500.02235174447,-187500.02235174447
$SILENCE,10906.958390111731,-1551.345175665042,5969.882723079053,7791.6840066533105,-187500.02235174447,-187500.02235174447,-187500.02235174447,-187500.02235174447
$SILENCE,10765.963586087655,-1619.8532724205581,5375.169858356698,7820.316591300559,-187500.02235174447,-187500.02235174447,-187500.02235174447,-187500.02235174447
$SILENCE,10898.755299896635,-1617.953374141857,5648.196416878273,7788.957093829763,-187500.02235174447,-187500.02235174447,-187500.02235174447,-187500.02235174447
$SILENCE,11045.740371434733,-1550.6522715869276,6236.919014086606,7761.129171982905,-187500.02235174447,-187500.02235174447,-187500.02235174447,-187500.02235174447
$SILENCE,10947.012716175643,-1546.7183645627933,6076.925227275518,7785.246704250182,-187500.02235174447,-187500.02235174447,-187500.02235174447,-187500.02235174447
$SILENCE,10761.828513363424,-1610.5102432382398,5440.258138210552,7817.053236610083,-187500.02235174447,-187500.02235174447,-187500.02235174447,-187500.02235174447
$SILENCE,10841.221909668673,-1631.3867725594966,5523.652496773302,7787.459526951257,-187500.02235174447,-187500.02235174447,-187500.02235174447,-187500.02235174447
$SILENCE,11020.840528111521,-1562.5210478926956,6164.6781760070535,7757.262320192137,-187500.02235174447,-187500.02235174447,-187500.02235174447,-187500.02235174447
$SILENCE,10965.631719306914,-1538.2247016697768,6154.798704957808,7778.474125680224,-187500.02235174447,-187500.02235174447,-187500.02235174447,-187500.02235174447
$SILENCE,10783.50970548507,-1595.9369058533796,5535.47656959016,7818.394341277402,-187500.02235174447,-187500.02235174447,-187500.02235174447,-187500.02235174447
$SILENCE,10816.702046001203,-1633.8007609606698,5440.504007399561,7805.475032982235,-187500.02235174447,-187500.02235174447,-187500.02235174447,-187500.02235174447
$SILENCE,11009.999932050698,-1572.1322980084776,6086.648236113577,7764.951320284763,-187500.02235174447,-187500.02235174447,-187500.02235174447,-187500.02235174447
$SILENCE,10991.202114963784,-1534.9836987237572,6217.115368499204,7773.1320587554055,-187500.02235174447,-187500.02235174447,-187500.02235174447,-187500.02235174447
$SILENCE,10804.296827828506,-1581.4306237018852,5644.106047642952,7814.773358675642,-187500.02235174447,-187500.02235174447,-187500.02235174447,-187500.02235174447
$SILENCE,10777.295920526496,-1635.0971621390775,5374.432250789672,7815.801538920587,-187500.02235174447,-187500.02235174447,-187500.02235174447,-187500.02235174447
$SILENCE,10979.93683575831,-1588.247905760754,5974.42012720348,7767.29825345257,-187500.02235174447,-187500.02235174447,-187500.02235174447,-187500.02235174447
$SILENCE,11005.50723141518,-1537.956480736313,6245.524435701899,7762.559683628045,-187500.02235174447,-187500.02235174447,-187500.02235174447,-187500.02235174447
$SILENCE,10830.046037441021,-1571.4840974192737,5760.558636255102,7803.798652148087,-187500.02235174447,-187500.02235174447,-187500.02235174447,-187500.02235174447
$SILENCE,10750.138551013297,-1635.1642173724435,5343.206863785608,7815.645076709399,-187500.02235174447,-187500.02235174447,-187500.02235174447,-187500.02235174447
$SILENCE,10947.347992342471,-1604.922307124413,5856.000585079263,7770.718070354233,-187500.02235174447,-187500.02235174447,-187500.02235174447,-187500.02235174447
$SILENCE,11015.207888508785,-1540.4598761153075,6259.226055053003,7763.073773750517,-187500.02235174447,-187500.02235174447,-187500.02235174447,-187500.02235174447
$SILENCE,10858.544511621538,-1558.6765478463826,5881.1015941025735,7801.608181191466,-187500.02235174447,-187500.02235174447,-187500.02235174447,-187500.02235174447
$SILENCE,10734.26881245003,-1626.3352783125972,5351.901692378723,7820.40599827838,-187500.02235174447,-187500.02235174447,-187500.02235174447,-187500.02235174447
$SILENCE,10926.180890343296,-1615.9640688853347,5732.03781033013,7781.49161118169,-187500.02235174447,-187500.02235174447,-187500.02235174447,-187500.02235174447
$SILENCE,11045.963888879287,-1548.7523733082264,6237.500159442444,7760.592730115978,-187500.02235174447,-187500.02235174447,-187500.02235174447,-187500.02235174447
$SILENCE,10891.580389926481,-1549.1547047084218,5981.8856098515525,7791.795765375587,-187500.02235174447,-187500.02235174447,-187500.02235174447,-187500.02235174447
$SILENCE,10705.949152225156,-1613.9524118843572,5387.530373040482,7820.383646533925,-187500.02235174447,-187500.02235174447,-187500.02235174447,-187500.02235174447
$SILENCE,10860.24324420014,-1623.697772466871,5607.404483247338,7786.408994961857,-187500.02235174447,-187500.02235174447,-187500.02235174447,-187500.02235174447
$SILENCE,11049.718981947779,-1558.698899590838,6194.7859757883525,7757.687003336788,-187500.02235174447,-187500.02235174447,-187500.02235174447,-187500.02235174447
$SILENCE,10935.278050336607,-1545.8913500179472,6079.696843587976,7781.849239092975,-187500.02235174447,-187500.02235174447,-187500.02235174447,-187500.02235174447
$SILENCE,10720.522489610015,-1606.6880949363822,5474.121031060342,7819.735445944721,-187500.02235174447,-187500.02235174447,-187500.02235174447,-187500.02235174447
$SILENCE,10821.9547059482,-1632.079676637611,5518.511595548582,7798.188364289805,-187500.02235174447,-187500.02235174447,-187500.02235174447,-187500.02235174447
$SILENCE,11051.887101159942,-1568.0419287731563,6130.480006990434,7760.168046971327,-187500.02235174447,-187500.02235174447,-187500.02235174447,-187500.02235174447
$SILENCE,10978.931007257821,-1541.1751319378773,6140.225367572948,7772.148581999372,-187500.02235174447,-187500.02235174447,-187500.02235174447,-187500.02235174447
$SILENCE,10738.515643896539,-1593.7464348967594,5559.638805346347,7813.141681330405,-187500.02235174447,-187500.02235174447,-187500.02235174447,-187500.02235174447
$SILENCE,10770.724507656636,-1637.309984840153,5433.396152662773,7805.1844603043155,-187500.02235174447,-187500.02235174447,-187500.02235174447,-187500.02235174447
$SILENCE,11030.116502060475,-1584.604571414539,6043.777590248298,7761.48679989419,-187500.02235174447,-187500.02235174447,-187500.02235174447,-187500.02235174447
$SILENCE,11015.051426297598,-1545.6007773400281,6204.508984626411,7768.415840675336,-187500.02235174447,-187500.02235174447,-187500.02235174447,-187500.02235174447
$SILENCE,10776.334795514918,-1587.532649938184,5650.722164001723,7809.721864428743,-187500.02235174447,-187500.02235174447,-187500.02235174447,-187500.02235174447
$SILENCE,10734.760550828047,-1643.4343628209072,5364.373965784785,7810.21360280676,-187500.02235174447,-187500.02235174447,-187500.02235174447,-187500.02235174447
$SILENCE,10994.107841742974,-1600.3625512555304,5928.487292347824,7762.8055528170535,-187500.02235174447,-187500.02235174447,-187500.02235174447,-187500.02235174447
$SILENCE,11037.246708541717,-1542.8515127720252,6216.735388843464,7764.146657484372,-187500.02235174447,-187500.02235174447,-187500.02235174447,-187500.02235174447
$SILENCE,10810.778833720546,-1568.7795363401815,5772.919150938887,7804.737425415209,-187500.02235174447,-187500.02235174447,-187500.02235174447,-187500.02235174447
$SILENCE,10710.330094138395,-1635.857121450558,5353.600424957326,7817.142643587905,-187500.02235174447,-187500.02235174447,-187500.02235174447,-187500.02235174447
$SILENCE,10950.052553421565,-1610.465539749329,5825.132825986484,7774.227294233716,-187500.02235174447,-187500.02235174447,-187500.02235174447,-187500.02235174447
$SILENCE,11029.602411938002,-1547.8583035300142,6224.826720336285,7759.9892330156845,-187500.02235174447,-187500.02235174447,-187500.02235174447,-187500.02235174447
$SILENCE,10832.840005497934,-1560.375280424986,5881.325111547126,7795.752024144176,-187500.02235174447,-187500.02235174447,-187500.02235174447,-187500.02235174447
$SILENCE,10679.060003645422,-1629.7550952142592,5359.590692471349,7819.020190122151,-187500.02235174447,-187500.02235174447,-187500.02235174447,-187500.02235174447
$SILENCE,10886.551247424037,-1619.696810209371,5705.506289661681,7781.759832115154,-187500.02235174447,-187500.02235174447,-187500.02235174447,-187500.02235174447
$SILENCE,11043.125217333463,-1549.3558704085196,6216.042484765349,7760.145695226872,-187500.02235174447,-187500.02235174447,-187500.02235174447,-187500.02235174447
$SILENCE,10893.457936460727,-1552.2392454432543,5987.831173876664,7788.666521151844,-187500.02235174447,-187500.02235174447,-187500.02235174447,-187500.02235174447
$SILENCE,10688.805364227936,-1622.7813509442033,5402.953076714644,7818.617858721956,-187500.02235174447,-187500.02235174447,-187500.02235174447,-187500.02235174447
$SILENCE,10840.327839890462,-1631.498531281773,5594.284009252073,7787.414823462346,-187500.02235174447,-187500.02235174447,-187500.02235174447,-187500.02235174447
$SILENCE,11037.827853897556,-1556.731946078771,6180.011472703394,7758.089334736984,-187500.02235174447,-187500.02235174447,-187500.02235174447,-187500.02235174447
$SILENCE,10929.39954154486,-1543.052678472123,6078.5345528763,7781.1786867593155,-187500.02235174447,-187500.02235174447,-187500.02235174447,-187500.02235174447
$SILENCE,10705.189192913675,-1608.9679728708236,5469.4495164691825,7817.947306388296,-187500.02235174447,-187500.02235174447,-187500.02235174447,-187500.02235174447
$SILENCE,10789.879952654834,-1637.1311708845105,5487.576781222437,7798.21071603426,-187500.02235174447,-187500.02235174447,-187500.02235174447,-187500.02235174447
$SILENCE,11027.99308633722,-1566.924341550391,6110.7881201253085,7762.760849328143,-187500.02235174447,-187500.02235174447,-187500.02235174447,-187500.02235174447
$SILENCE,10974.88534151141,-1537.0624109581008,6145.858007175685,7776.3060064680585,-187500.02235174447,-187500.02235174447,-187500.02235174447,-187500.02235174447
$SILENCE,10736.191062473186,-1595.9369058533796,5554.654366332814,7813.365198774958,-187500.02235174447,-187500.02235174447,-187500.02235174447,-187500.02235174447
$SILENCE,10747.881024823311,-1642.6520517649712,5401.902544725245,7806.503213227179,-187500.02235174447,-187500.02235174447,-187500.02235174447,-187500.02235174447
$SILENCE,10998.824059823044,-1578.7484143672484,6025.024476650296,7763.96784352873,-187500.02235174447,-187500.02235174447,-187500.02235174447,-187500.02235174447
$SILENCE,10998.55583888958,-1534.1343324344555,6201.245629935936,7767.477067408213,-187500.02235174447,-187500.02235174447,-187500.02235174447,-187500.02235174447
$SILENCE,10772.155019301776,-1580.6483126459495,5663.015623452142,7802.5916579475,-187500.02235174447,-187500.02235174447,-187500.02235174447,-187500.02235174447
$SILENCE,10722.534146610993,-1641.8026854756697,5347.163122554198,7805.519736471145,-187500.02235174447,-187500.02235174447,-187500.02235174447,-187500.02235174447
$SILENCE,10976.964053745754,-1593.7240831523043,5933.605841828089,7763.006718517151,-187500.02235174447,-187500.02235174447,-187500.02235174447,-187500.02235174447
$SILENCE,11036.173824807862,-1535.5201405906846,6260.433049253589,7756.591767858478,-187500.02235174447,-187500.02235174447,-187500.02235174447,-187500.02235174447
$SILENCE,10830.358961863394,-1568.1760392398883,5796.1649651724065,7793.069814809539,-187500.02235174447,-187500.02235174447,-187500.02235174447,-187500.02235174447
$SILENCE,10714.107538951343,-1638.4946272962843,5321.302154219407,7805.363274259958,-187500.02235174447,-187500.02235174447,-187500.02235174447,-187500.02235174447
$SILENCE,10932.528785768603,-1606.7998536586588,5818.248488694249,7760.77154407162,-187500.02235174447,-187500.02235174447,-187500.02235174447,-187500.02235174447
$SILENCE,11037.961964364287,-1539.5658063370952,6283.880029187207,7749.081581721495,-187500.02235174447,-187500.02235174447,-187500.02235174447,-187500.02235174447
$SILENCE,10865.026517513576,-1562.8786758039805,5919.367780610059,7779.278788480615,-187500.02235174447,-187500.02235174447,-187500.02235174447,-187500.02235174447
$SILENCE,10693.678044519193,-1638.4946272962843,5322.24092748653,7799.283599768115,-187500.02235174447,-187500.02235174447,-187500.02235174447,-187500.02235174447
$SILENCE,10877.655253130824,-1625.8435399345803,5685.233257440717,7765.398355173869,-187500.02235174447,-187500.02235174447,-187500.02235174447,-187500.02235174447
$SILENCE,11044.309859789593,-1553.826219299581,6269.083174357793,7743.381886885391,-187500.02235174447,-187500.02235174447,-187500.02235174447,-187500.02235174447
$SILENCE,10912.546326225558,-1558.9447687798463,6034.635726766077,7770.7851255875985,-187500.02235174447,-187500.02235174447,-187500.02235174447,-187500.02235174447
$SILENCE,10703.825736501902,-1626.2905748236865,5357.914311637201,7802.524602714134,-187500.02235174447,-187500.02235174447,-187500.02235174447,-187500.02235174447
$SILENCE,10830.671886285769,-1635.8347697061026,5547.322994151473,7776.104840767961,-187500.02235174447,-187500.02235174447,-187500.02235174447,-187500.02235174447
$SILENCE,11019.365312977472,-1564.2644839602094,6238.997726320949,7745.281785164093,-187500.02235174447,-187500.02235174447,-187500.02235174447,-187500.02235174447
$SILENCE,10926.627925232402,-1552.5298181211733,6150.976556655951,7761.710317338743,-187500.02235174447,-187500.02235174447,-187500.02235174447,-187500.02235174447
$SILENCE,10710.777129027501,-1616.7240281968152,5436.860673053346,7793.11451829845,-187500.02235174447,-187500.02235174447,-187500.02235174447,-187500.02235174447
$SILENCE,10779.441687994205,-1642.2497203647758,5423.471978124617,7776.73068961271,-187500.02235174447,-187500.02235174447,-187500.02235174447,-187500.02235174447
$SILENCE,11010.961057062275,-1574.0992515205446,6165.214617873981,7744.410067130336,-187500.02235174447,-187500.02235174447,-187500.02235174447,-187500.02235174447
$SILENCE,10970.124419942429,-1546.9195302628912,6237.410752464623,7755.29536668007,-187500.02235174447,-187500.02235174447,-187500.02235174447,-187500.02235174447
$SILENCE,10741.533129398005,-1601.3236762671086,5546.317165650984,7794.656788665866,-187500.02235174447,-187500.02235174447,-187500.02235174447,-187500.02235174447
$SILENCE,10736.325172939918,-1644.9095779549573,5326.778331610958,7785.425518205824,-187500.02235174447,-187500.02235174447,-187500.02235174447,-187500.02235174447
$SILENCE,10977.7910682906,-1585.5880481705724,6066.732831803898,7743.985383985685,-187500.02235174447,-187500.02235174447,-187500.02235174447,-187500.02235174447
$SILENCE,10989.570437618548,-1541.5104081047068,6307.595230054287,7750.333279410992,-187500.02235174447,-187500.02235174447,-187500.02235174447,-187500.02235174447
$SILENCE,10772.982033846622,-1585.6551034039383,5680.561742849558,7788.107727540461,-187500.02235174447,-187500.02235174447,-187500.02235174447,-187500.02235174447
$SILENCE,10712.274695906008,-1646.1389238999993,5273.692938529603,7790.678178152822,-187500.02235174447,-187500.02235174447,-187500.02235174447,-187500.02235174447
$SILENCE,10954.88053022391,-1603.6482576904605,5939.663164575478,7742.554872340545,-187500.02235174447,-187500.02235174447,-187500.02235174447,-187500.02235174447
$SILENCE,11015.789033864623,-1547.7018413188268,6336.138407723714,7738.196282171761,-187500.02235174447,-187500.02235174447,-187500.02235174447,-187500.02235174447
$SILENCE,10813.058711654987,-1576.8708678330026,5816.952087515841,7782.564494915545,-187500.02235174447,-187500.02235174447,-187500.02235174447,-187500.02235174447
$SILENCE,10690.817021228913,-1643.9484529433792,5251.408249307662,7799.529468957123,-187500.02235174447,-187500.02235174447,-187500.02235174447,-187500.02235174447
$SILENCE,10911.249925047152,-1619.6744584649157,5791.940485470353,7751.763791056132,-187500.02235174447,-187500.02235174447,-187500.02235174447,-187500.02235174447
$SILENCE,11024.975600835753,-1555.1002687335335,6336.0713524903485,7737.615136815923,-187500.02235174447,-187500.02235174447,-187500.02235174447,-187500.02235174447
$SILENCE,10860.131485477863,-1567.7737078396926,5954.460019404891,7777.423593690824,-187500.02235174447,-187500.02235174447,-187500.02235174447,-187500.02235174447
$SILENCE,10695.399128842251,-1636.952356928868,5275.168153663654,7803.284562025615,-187500.02235174447,-187500.02235174447,-187500.02235174447,-187500.02235174447
$SILENCE,10871.91085480581,-1632.571415015628,5648.2411203671845,7759.788067315587,-187500.02235174447,-187500.02235174447,-187500.02235174447,-187500.02235174447
$SILENCE,11027.478996214748,-1561.761088581215,6310.478605089022,7734.776465270098,-187500.02235174447,-187500.02235174447,-187500.02235174447,-187500.02235174447
$SILENCE,10891.558038182025,-1559.503562391229,6079.607436610155,7767.410012174847,-187500.02235174447,-187500.02235174447,-187500.02235174447,-187500.02235174447
$SILENCE,10685.251436859542,-1625.8435399345803,5339.854102117312,7800.602352690978,-187500.02235174447,-187500.02235174447,-187500.02235174447,-187500.02235174447
$SILENCE,10807.850755196901,-1643.8813977100133,5507.648647743303,7763.386698172892,-187500.02235174447,-187500.02235174447,-187500.02235174447,-187500.02235174447
$SILENCE,11032.284621272638,-1574.0545480316339,6286.539886777388,7725.522843065602,-187500.02235174447,-187500.02235174447,-187500.02235174447,-187500.02235174447
$SILENCE,10932.037047390586,-1552.7309838212711,6206.319475927291,7756.971747514218,-187500.02235174447,-187500.02235174447,-187500.02235174447,-187500.02235174447
$SILENCE,10695.622646286804,-1613.1477490839661,5450.986975549099,7798.233067778715,-187500.02235174447,-187500.02235174447,-187500.02235174447,-187500.02235174447
$SILENCE,10762.074382552431,-1645.5130750552507,5406.886983738778,7775.121364011928,-187500.02235174447,-187500.02235174447,-187500.02235174447,-187500.02235174447
$SILENCE,10999.584019134525,-1592.6735511629047,6121.807530141775,7732.183662913283,-187500.02235174447,-187500.02235174447,-187500.02235174447,-187500.02235174447
$SILENCE,10963.709469283756,-1558.9671205243017,6241.7469908889525,7749.886244521886,-187500.02235174447,-187500.02235174447,-187500.02235174447,-187500.02235174447
$SILENCE,10719.31549540943,-1602.3295047675974,5557.314223922995,7793.181573531816,-187500.02235174447,-187500.02235174447,-187500.02235174447,-187500.02235174447
$SILENCE,10714.845146518368,-1650.3857553465075,5299.464499886572,7783.212695504749,-187500.02235174447,-187500.02235174447,-187500.02235174447,-187500.02235174447
$SILENCE,10985.949455016787,-1602.4859669787845,6030.657116253033,7733.010677458129,-187500.02235174447,-187500.02235174447,-187500.02235174447,-187500.02235174447
$SILENCE,11000.545144146103,-1556.888408289958,6309.0704451883375,7740.34204963947,-187500.02235174447,-187500.02235174447,-187500.02235174447,-187500.02235174447
$SILENCE,10758.36399297285,-1589.4548999613405,5706.757987351178,7784.620855405433,-187500.02235174447,-187500.02235174447,-187500.02235174447,-187500.02235174447
$SILENCE,10675.483724532573,-1647.1894558893987,5263.142915146699,7786.185477517305,-187500.02235174447,-187500.02235174447,-187500.02235174447,-187500.02235174447
$SILENCE,10952.444190078282,-1616.634621218994,5896.703111732378,7736.229328659693,-187500.02235174447,-187500.02235174447,-187500.02235174447,-187500.02235174447
$SILENCE,11034.788016651633,-1562.6551583594273,6320.089855204804,7730.172005912305,-187500.02235174447,-187500.02235174447,-187500.02235174447,-187500.02235174447
$SILENCE,10805.369711562362,-1578.7707661117038,5845.852893096554,7777.043614035084,-187500.02235174447,-187500.02235174447,-187500.02235174447,-187500.02235174447
$SILENCE,10648.77338990848,-1637.0864673955998,5272.910627473668,7795.68496891081,-187500.02235174447,-187500.02235174447,-187500.02235174447,-187500.02235174447
$SILENCE,10898.978817341187,-1624.7036009673598,5761.631519988957,7744.7229915527105,-187500.02235174447,-187500.02235174447,-187500.02235174447,-187500.02235174447
$SILENCE,11039.124255075963,-1566.1643822389105,6309.115148677248,7729.680267534289,-187500.02235174447,-187500.02235174447,-187500.02235174447,-187500.02235174447
$SILENCE,10847.301584160517,-1571.372338696997,5969.569798656678,7768.2593784641485,-187500.02235174447,-187500.02235174447,-187500.02235174447,-187500.02235174447
$SILENCE,10640.279727015464,-1631.0961998815776,5311.310924447886,7793.472146209735,-187500.02235174447,-187500.02235174447,-187500.02235174447,-187500.02235174447
$SILENCE,10837.265650900084,-1636.1253423840217,5614.512337984126,7748.522788110112,-187500.02235174447,-187500.02235174447,-187500.02235174447,-187500.02235174447
$SILENCE,11037.447874241814,-1574.0321962871787,6248.608976436732,7721.387770341369,-187500.02235174447,-187500.02235174447,-187500.02235174447,-187500.02235174447
$SILENCE,10898.241209774162,-1563.5492281376396,6070.085593472194,7758.290500437081,-187500.02235174447,-187500.02235174447,-187500.02235174447,-187500.02235174447
$SILENCE,10671.125134363787,-1621.4402462768849,5392.157184142731,7796.780204389121,-187500.02235174447,-187500.02235174447,-187500.02235174447,-187500.02235174447
$SILENCE,10795.46788876866,-1645.3789645885188,5498.953819150188,7759.721012082221,-187500.02235174447,-187500.02235174447,-187500.02235174447,-187500.02235174447
$SILENCE,11016.079606542542,-1585.4315859593853,6179.452679092012,7719.219651129205,-187500.02235174447,-187500.02235174447,-187500.02235174447,-187500.02235174447
$SILENCE,10930.07009387852,-1561.4034606699302,6158.9784811709505,7747.427552631802,-187500.02235174447,-187500.02235174447,-187500.02235174447,-187500.02235174447
$SILENCE,10703.713977779626,-1609.4150077599297,5503.178298852241,7796.333169500014,-187500.02235174447,-187500.02235174447,-187500.02235174447,-187500.02235174447
$SILENCE,10754.608899904359,-1650.3634036020524,5415.514757098527,7773.668500622332,-187500.02235174447,-187500.02235174447,-187500.02235174447,-187500.02235174447
$SILENCE,10974.438306622304,-1597.926211109902,6088.972817536929,7721.544232552556,-187500.02235174447,-187500.02235174447,-187500.02235174447,-187500.02235174447
$SILENCE,10949.873739465922,-1563.6162833710055,6212.42150216359,7735.581128070489,-187500.02235174447,-187500.02235174447,-187500.02235174447,-187500.02235174447
$SILENCE,10761.64969940778,-1600.831937889092,5634.4500940382595,7787.839506606997,-187500.02235174447,-187500.02235174447,-187500.02235174447,-187500.02235174447
$SILENCE,10751.524359169527,-1645.110743655055,5389.899657952745,7784.263227494148,-187500.02235174447,-187500.02235174447,-187500.02235174447,-187500.02235174447
$SILENCE,10943.97287892972,-1608.7221036818153,5976.27532199327,7730.261412890127,-187500.02235174447,-187500.02235174447,-187500.02235174447,-187500.02235174447
talvez,10971.376117631928,-1558.5647891241063,6270.8042586808515,7733.524767580601,-187500.02235174447,-187500.02235174447,-187500.02235174447,-187500.02235174447
talvez,10783.956740374177,-1587.2867807491757,5713.5752694100465,7787.772451373631,-187500.02235174447,-187500.02235174447,-187500.02235174447,-187500.02235174447
talvez,10711.447681361162,-1644.7307639993148,5297.43049114114,7791.549896186579,-187500.02235174447,-187500.02235174447,-187500.02235174447,-187500.02235174447
talvez,10891.938017837765,-1621.4625980213402,5847.752791375255,7730.037895445574,-187500.02235174447,-187500.02235174447,-187500.02235174447,-187500.02235174447
talvez,10955.841655235488,-1566.6784723613825,6260.030717853394,7720.851328474442,-187500.02235174447,-187500.02235174447,-187500.02235174447,-187500.02235174447
talvez,10820.881822214345,-1581.2965132351535,5855.464143212336,7770.338090698492,-187500.02235174447,-187500.02235174447,-187500.02235174447,-187500.02235174447
talvez,10713.302876150952,-1645.2895576106976,5310.640372114226,7795.193230532794,-187500.02235174447,-187500.02235174447,-187500.02235174447,-187500.02235174447
talvez,10849.089723716943,-1636.013583661745,5726.919260849865,7741.951375240252,-187500.02235174447,-187500.02235174447,-187500.02235174447,-187500.02235174447
talvez,10946.20805337525,-1570.0759375185894,6253.951043361551,7721.857156974931,-187500.02235174447,-187500.02235174447,-187500.02235174447,-187500.02235174447
talvez,10849.737924306146,-1571.3052834636312,5969.167467256483,7762.984366772696,-187500.02235174447,-187500.02235174447,-187500.02235174447,-187500.02235174447
talvez,10718.086149464387,-1635.1865691168987,5340.971689340078,7794.254457265671,-187500.02235174447,-187500.02235174447,-187500.02235174447,-187500.02235174447
talvez,10816.567935534471,-1642.3167755981417,5601.861250622422,7755.183607957793,-187500.02235174447,-187500.02235174447,-187500.02235174447,-187500.02235174447
talvez,10946.92330919782,-1573.339292209064,6224.938479058562,7725.746360510155,-187500.02235174447,-187500.02235174447,-187500.02235174447,-187500.02235174447
talvez,10878.929302564777,-1560.8446670585474,6074.712404574443,7757.776410314609,-187500.02235174447,-187500.02235174447,-187500.02235174447,-187500.02235174447
talvez,10735.11817873933,-1624.0106968892453,5406.752873272047,7795.819079377542,-187500.02235174447,-187500.02235174447,-187500.02235174447,-187500.02235174447
talvez,10788.449441009694,-1650.0951826685887,5482.905266631278,7765.130134240406,-187500.02235174447,-187500.02235174447,-187500.02235174447,-187500.02235174447
talvez,10935.680381736802,-1583.5540394251395,6164.342899840224,7724.539366309567,-187500.02235174447,-187500.02235174447,-187500.02235174447,-187500.02235174447
talvez,10900.58814294197,-1558.050699001634,6159.023184659861,7744.946508997263,-187500.02235174447,-187500.02235174447,-187500.02235174447,-187500.02235174447
talvez,10754.228920248619,-1613.8183014176252,5500.8984209178,7788.308893240559,-187500.02235174447,-187500.02235174447,-187500.02235174447,-187500.02235174447
talvez,10765.248330265085,-1655.146676915488,5386.345730584351,7771.276863965615,-187500.02235174447,-187500.02235174447,-187500.02235174447,-187500.02235174447
talvez,10927.052608377053,-1596.4956994647623,6079.62978835461,7726.8192442440095,-187500.02235174447,-187500.02235174447,-187500.02235174447,-187500.02235174447
talvez,10917.642523961369,-1555.3014344336314,6231.398133206146,7741.616099073422,-187500.02235174447,-187500.02235174447,-187500.02235174447,-187500.02235174447
talvez,10772.378536746328,-1600.6531239334495,5620.860233409433,7781.960997815251,-187500.02235174447,-187500.02235174447,-187500.02235174447,-187500.02235174447
talvez,10744.014173032543,-1656.018394949245,5322.397389697718,7780.150506514372,-187500.02235174447,-187500.02235174447,-187500.02235174447,-187500.02235174447
talvez,10903.896201121355,-1606.4869292362846,5968.005176544807,7733.43536060278,-187500.02235174447,-187500.02235174447,-187500.02235174447,-187500.02235174447
talvez,10939.904861438854,-1556.0613937451117,6268.591435979776,7736.586956570978,-187500.02235174447,-187500.02235174447,-187500.02235174447,-187500.02235174447
talvez,10800.228810337641,-1589.5443069391617,5744.7559529252,7777.0659657795395,-187500.02235174447,-187500.02235174447,-187500.02235174447,-187500.02235174447
talvez,10721.729483810603,-1653.403240847974,5290.277932915442,7787.638340906899,-187500.02235174447,-187500.02235174447,-187500.02235174447,-187500.02235174447
talvez,10873.7660495956,-1620.4120660319409,5844.891768084975,7740.766732784121,-187500.02235174447,-187500.02235174447,-187500.02235174447,-187500.02235174447
talvez,10948.085599909497,-1558.2295129572765,6283.522401275922,7726.975706455196,-187500.02235174447,-187500.02235174447,-187500.02235174447,-187500.02235174447
talvez,10828.481415329148,-1580.3353882235754,5869.232817796805,7761.643262105377,-187500.02235174447,-187500.02235174447,-187500.02235174447,-187500.02235174447
talvez,10721.818890788423,-1653.7385170148036,5287.841592769813,7781.5363146706,-187500.02235174447,-187500.02235174447,-187500.02235174447,-187500.02235174447
talvez,10859.550340122027,-1641.3109470976528,5700.119519247952,7740.163235683827,-187500.02235174447,-187500.02235174447,-187500.02235174447,-187500.02235174447
talvez,10975.913521756354,-1570.5453241521507,6263.942273133072,7720.672514518799,-187500.02235174447,-187500.02235174447,-187500.02235174447,-187500.02235174447
talvez,10880.62803514338,-1578.055510289134,5988.032339576762,7748.433381132291,-187500.02235174447,-187500.02235174447,-187500.02235174447,-187500.02235174447
talvez,10734.782902572502,-1647.591787289594,5334.109703792299,7778.049442535573,-187500.02235174447,-187500.02235174447,-187500.02235174447,-187500.02235174447
talvez,10830.470720585672,-1652.1738949029323,5572.803982830523,7745.997040986663,-187500.02235174447,-187500.02235174447,-187500.02235174447,-187500.02235174447
talvez,10965.475257095726,-1578.2343242447764,6221.943345301551,7718.705561006733,-187500.02235174447,-187500.02235174447,-187500.02235174447,-187500.02235174447
talvez,10891.379224226383,-1566.6784723613825,6095.25365772887,7747.919291009819,-187500.02235174447,-187500.02235174447,-187500.02235174447,-187500.02235174447
talvez,10726.333943168396,-1629.9339091699017,5415.492405354072,7787.34776822898,-187500.02235174447,-187500.02235174447,-187500.02235174447,-187500.02235174447
talvez,10776.781830404023,-1652.7103367698596,5463.369841977339,7765.197189473772,-187500.02235174447,-187500.02235174447,-187500.02235174447,-187500.02235174447
talvez,10940.664820750335,-1582.1905830133658,6163.31471959528,7726.796892499554,-187500.02235174447,-187500.02235174447,-187500.02235174447,-187500.02235174447
talvez,10904.387939499371,-1558.2965681906426,6182.917199482585,7745.125322952906,-187500.02235174447,-187500.02235174447,-187500.02235174447,-187500.02235174447
talvez,10730.916050781734,-1615.8746619075134,5512.878955945845,7783.905599582863,-187500.02235174447,-187500.02235174447,-187500.02235174447,-187500.02235174447
talvez,10739.65558286376,-1656.890112983002,5361.691756450147,7771.433326176802,-187500.02235174447,-187500.02235174447,-187500.02235174447,-187500.02235174447
talvez,10932.506434024148,-1598.2614872767315,6068.6327300826,7729.702619278743,-187500.02235174447,-187500.02235174447,-187500.02235174447,-187500.02235174447
talvez,10932.931117168799,-1558.855361802025,6251.581758449288,7737.011639715629,-187500.02235174447,-187500.02235174447,-187500.02235174447,-187500.02235174447
talvez,10755.011231304554,-1604.274106535209,5637.244062095173,7775.166067500838,-187500.02235174447,-187500.02235174447,-187500.02235174447,-187500.02235174447
talvez,10712.632323817292,-1658.6111973060606,5294.301246917396,7775.411936689847,-187500.02235174447,-187500.02235174447,-187500.02235174447,-187500.02235174447
talvez,10905.214954044219,-1611.4266647609074,5947.933310023941,7730.306116379037,-187500.02235174447,-187500.02235174447,-187500.02235174447,-187500.02235174447
talvez,10947.705620253757,-1559.8164868136034,6288.082157144804,7730.663744290322,-187500.02235174447,-187500.02235174447,-187500.02235174447,-187500.02235174447
talvez,10782.503876984581,-1590.5277836951952,5767.398270058426,7770.673366865321,-187500.02235174447,-187500.02235174447,-187500.02235174447,-187500.02235174447
talvez,10688.112460149821,-1651.1904181468985,5270.85426698378,7785.023186805629,-187500.02235174447,-187500.02235174447,-187500.02235174447,-187500.02235174447
talvez,10882.371471210894,-1622.0884468660888,5828.284421954682,7741.169064184316,-187500.02235174447,-187500.02235174447,-187500.02235174447,-187500.02235174447
talvez,10977.41108863486,-1562.275178703687,6317.988791226005,7731.535462324079,-187500.02235174447,-187500.02235174447,-187500.02235174447,-187500.02235174447
talvez,10827.699104273213,-1585.565696426117,5905.867326959054,7761.732669083199,-187500.02235174447,-187500.02235174447,-187500.02235174447,-187500.02235174447
talvez,10685.16202988172,-1647.6588425229602,5277.693900787103,7780.217561747738,-187500.02235174447,-187500.02235174447,-187500.02235174447,-187500.02235174447
talvez,10858.276290688073,-1623.98834514479,5706.3556559509825,7756.1670847138275,-187500.02235174447,-187500.02235174447,-187500.02235174447,-187500.02235174447
talvez,10991.470335897247,-1562.3198821925978,6309.338666121801,7739.872663005908,-187500.02235174447,-187500.02235174447,-187500.02235174447,-187500.02235174447
talvez,10882.080898532975,-1552.1051349765223,6060.966081734429,7788.241838007193,-187500.02235174447,-187500.02235174447,-187500.02235174447,-187500.02235174447
talvez,10717.63911457528,-1595.1098913085332,5371.146544354742,7813.678123197333,-187500.02235174447,-187500.02235174447,-187500.02235174447,-187500.02235174447
talvez,10814.153947133296,-1636.795894717681,5560.801096058023,7752.277881178604,-187500.02235174447,-187500.02235174447,-187500.02235174447,-187500.02235174447
talvez,10961.65310879387,-1609.5714699711168,6200.284504924358,7695.347988050937,-187500.02235174447,-187500.02235174447,-187500.02235174447,-187500.02235174447
talvez,10882.974968311188,-1569.7406613517596,6114.565564938255,7748.701602065755,-187500.02235174447,-187500.02235174447,-187500.02235174447,-187500.02235174447
talvez,10741.9354607982,-1564.7115188493156,5523.652496773302,7850.580853293044,-187500.02235174447,-187500.02235174447,-187500.02235174447,-187500.02235174447
talvez,10765.9412343432,-1638.1369993849994,5473.472830471138,7795.170878788338,-187500.02235174447,-187500.02235174447,-187500.02235174447,-187500.02235174447
talvez,10935.792140459078,-1589.4548999613405,6127.64133544461,7706.456805045224,-187500.02235174447,-187500.02235174447,-187500.02235174447,-187500.02235174447
talvez,10924.504509509148,-1552.9321495213687,6225.877252325685,7745.684116564288,-187500.02235174447,-187500.02235174447,-187500.02235174447,-187500.02235174447
talvez,10695.063852675421,-1640.3274703416193,5518.176319381752,7771.0756982655175,-187500.02235174447,-187500.02235174447,-187500.02235174447,-187500.02235174447
talvez,10700.11534692232,-1668.4459648663958,5272.061261184366,7764.526637140112,-187500.02235174447,-187500.02235174447,-187500.02235174447,-187500.02235174447
talvez,10894.039081816565,-1612.3207345391197,5946.078115234151,7700.824165442487,-187500.02235174447,-187500.02235174447,-187500.02235174447,-187500.02235174447
talvez,10906.377244755895,-1588.4267197163965,6181.84431574873,7689.156554836817,-187500.02235174447,-187500.02235174447,-187500.02235174447,-187500.02235174447
talvez,10745.355277699862,-1632.593766760083,5629.242137580173,7777.960035557751,-187500.02235174447,-187500.02235174447,-187500.02235174447,-187500.02235174447
talvez,10692.69456776316,-1673.788031791214,5269.535514060916,7778.451773935769,-187500.02235174447,-187500.02235174447,-187500.02235174447,-187500.02235174447
talvez,10886.417136957305,-1618.5121677532397,5903.878021702531,7737.950412982752,-187500.02235174447,-187500.02235174447,-187500.02235174447,-187500.02235174447
talvez,10920.682361207291,-1554.7873443111594,6256.499142229455,7724.628773287389,-187500.02235174447,-187500.02235174447,-187500.02235174447,-187500.02235174447
talvez,10753.088981281398,-1606.8445571475695,5740.5761767120575,7764.772506329121,-187500.02235174447,-187500.02235174447,-187500.02235174447,-187500.02235174447
talvez,10678.903541434234,-1666.501363098784,5253.397554564185,7798.411881734358,-187500.02235174447,-187500.02235174447,-187500.02235174447,-187500.02235174447
talvez,10835.566918321481,-1666.7025287988818,5748.555749482603,7722.952392453241,-187500.02235174447,-187500.02235174447,-187500.02235174447,-187500.02235174447
talvez,10940.508358539148,-1585.3198272371087,6260.7683254204185,7736.72106703771,-187500.02235174447,-187500.02235174447,-187500.02235174447,-187500.02235174447
talvez,10812.343455832417,-1590.8630598620248,5901.799309468188,7785.202000761271,-187500.02235174447,-187500.02235174447,-187500.02235174447,-187500.02235174447
talvez,10671.594520997349,-1659.9075984844685,5273.38001410723,7785.693739139288,-187500.02235174447,-187500.02235174447,-187500.02235174447,-187500.02235174447
talvez,10815.115072144876,-1653.5373513147058,5626.895204412366,7785.850201350475,-187500.02235174447,-187500.02235174447,-187500.02235174447,-187500.02235174447
talvez,10953.204149389763,-1587.3314842380864,6230.414656450112,7763.319642939526,-187500.02235174447,-187500.02235174447,-187500.02235174447,-187500.02235174447
talvez,10838.517348589581,-1578.3013794781423,5993.173240801482,7771.589788387989,-187500.02235174447,-187500.02235174447,-187500.02235174447,-187500.02235174447
talvez,10676.668366988704,-1639.0310691632117,5334.310869492397,7826.709190214777,-187500.02235174447,-187500.02235174447,-187500.02235174447,-187500.02235174447
talvez,10772.646757679791,-1657.5830170611164,5501.010179640077,7826.820948937053,-187500.02235174447,-187500.02235174447,-187500.02235174447,-187500.02235174447
talvez,10937.423817804316,-1589.5219551947064,6159.716088737976,7773.7802593446095,-187500.02235174447,-187500.02235174447,-187500.02235174447,-187500.02235174447
talvez,10849.737924306146,-1581.5423824241618,6071.449049883968,7776.976558801718,-187500.02235174447,-187500.02235174447,-187500.02235174447,-187500.02235174447
talvez,10667.68296571767,-1633.9348714274015,5404.1153674263205,7841.193120621815,-187500.02235174447,-187500.02235174447,-187500.02235174447,-187500.02235174447
talvez,10715.02396047401,-1656.9795199608232,5382.434175304673,7836.007515908184,-187500.02235174447,-187500.02235174447,-187500.02235174447,-187500.02235174447
talvez,10878.974006053688,-1601.5695454561169,6063.91651200253,7801.339960258003,-187500.02235174447,-187500.02235174447,-187500.02235174447,-187500.02235174447
talvez,10825.687447272236,-1585.118661537011,6113.626791671132,7792.421614220335,-187500.02235174447,-187500.02235174447,-187500.02235174447,-187500.02235174447
talvez,10652.126151576776,-1623.0942753665777,5478.457269484672,7839.069704898561,-187500.02235174447,-187500.02235174447,-187500.02235174447,-187500.02235174447
talvez,10693.253361374542,-1665.7861072762141,5306.170023223165,7867.881103501452,-187500.02235174447,-187500.02235174447,-187500.02235174447,-187500.02235174447
talvez,10896.386014984371,-1627.3187550686307,5988.881705866063,7834.375838562947,-187500.02235174447,-187500.02235174447,-187500.02235174447,-187500.02235174447
talvez,10878.549322909037,-1569.6736061183938,6202.9443625145395,7834.040562396117,-187500.02235174447,-187500.02235174447,-187500.02235174447,-187500.02235174447
talvez,10688.961826439123,-1608.342124026075,5636.30528882805,7870.585664580544,-187500.02235174447,-187500.02235174447,-187500.02235174447,-187500.02235174447
talvez,10633.641258912237,-1676.246723681298,5251.89998768568,7876.017138483184,-187500.02235174447,-187500.02235174447,-187500.02235174447,-187500.02235174447
talvez,10775.41837399225,-1661.1816479184208,5796.053206450129,7797.093128811494,-187500.02235174447,-187500.02235174447,-187500.02235174447,-187500.02235174447
talvez,10892.072128304497,-1591.2653912622204,6225.5196244144,7834.465245540768,-187500.02235174447,-187500.02235174447,-187500.02235174447,-187500.02235174447
talvez,10765.807123876468,-1605.4811007357957,5788.520668568692,7867.1658476788825,-187500.02235174447,-187500.02235174447,-187500.02235174447,-187500.02235174447
talvez,10627.047494297922,-1672.7822032907252,5240.254728824464,7864.394231366424,-187500.02235174447,-187500.02235174447,-187500.02235174447,-187500.02235174447
talvez,10772.0432605795,-1664.310892142164,5687.0437487415975,7792.06398630905,-187500.02235174447,-187500.02235174447,-187500.02235174447,-187500.02235174447
talvez,10860.064430244498,-1598.5520599546505,6181.263170392892,7803.396320747891,-187500.02235174447,-187500.02235174447,-187500.02235174447,-187500.02235174447
talvez,10764.466019209149,-1583.6881498918713,5887.963579650353,7890.679882845865,-187500.02235174447,-187500.02235174447,-187500.02235174447,-187500.02235174447
talvez,10637.731628147558,-1662.6792147969265,5287.61807532526,7911.601115656033,-187500.02235174447,-187500.02235174447,-187500.02235174447,-187500.02235174447
talvez,10778.838190893912,-1678.5713051046498,5588.070224293498,7844.232957867737,-187500.02235174447,-187500.02235174447,-187500.02235174447,-187500.02235174447
talvez,10917.240192561174,-1599.1332053104884,6189.265094907892,7799.954152101774,-187500.02235174447,-187500.02235174447,-187500.02235174447,-187500.02235174447
talvez,10780.380461261328,-1600.1613855554326,5965.613539888089,7830.7772077056425,-187500.02235174447,-187500.02235174447,-187500.02235174447,-187500.02235174447
talvez,10583.975682732545,-1660.2875781402086,5298.369264408263,7884.197876953826,-187500.02235174447,-187500.02235174447,-187500.02235174447,-187500.02235174447
talvez,10719.181384942698,-1659.304101384175,5454.853827339867,7878.744051306731,-187500.02235174447,-187500.02235174447,-187500.02235174447,-187500.02235174447
talvez,10934.205166602751,-1582.4141004579187,6138.861911161174,7863.589568566033,-187500.02235174447,-187500.02235174447,-187500.02235174447,-187500.02235174447
talvez,10888.562904425014,-1564.8232775715921,6118.611230684666,7873.379632637458,-187500.02235174447,-187500.02235174447,-187500.02235174447,-187500.02235174447
talvez,10660.508055747516,-1637.8017232181696,5438.537053887493,7870.920940747374,-187500.02235174447,-187500.02235174447,-187500.02235174447,-187500.02235174447
talvez,10678.903541434234,-1690.9318197884345,5352.304023778918,7816.8073674210755,-187500.02235174447,-187500.02235174447,-187500.02235174447,-187500.02235174447
talvez,10910.579372713491,-1605.3916937579745,6051.19836940746,7780.329320470014,-187500.02235174447,-187500.02235174447,-187500.02235174447,-187500.02235174447
talvez,10888.16057302482,-1560.6435013584498,6164.231141117948,7827.536204759623,-187500.02235174447,-187500.02235174447,-187500.02235174447,-187500.02235174447
talvez,10654.294270788942,-1617.6851532083933,5526.357057852395,7904.5156126637,-187500.02235174447,-187500.02235174447,-187500.02235174447,-187500.02235174447
talvez,10644.459503228605,-1666.9036944989796,5276.598665308794,7910.997618555739,-187500.02235174447,-187500.02235174447,-187500.02235174447,-187500.02235174447
talvez,10945.06811440803,-1598.1944320433656,5994.022607090785,7913.121034278994,-187500.02235174447,-187500.02235174447,-187500.02235174447,-187500.02235174447
talvez,10942.967050429232,-1547.2101029408102,6241.143493788659,7876.978263494762,-187500.02235174447,-187500.02235174447,-187500.02235174447,-187500.02235174447
talvez,10718.086149464387,-1594.1040628080443,5694.464527900759,7862.248463898714,-187500.02235174447,-187500.02235174447,-187500.02235174447,-187500.02235174447
talvez,10654.182512066665,-1657.828886250125,5295.441185884618,7902.392196940446,-187500.02235174447,-187500.02235174447,-187500.02235174447,-187500.02235174447
talvez,10895.44724171725,-1611.5607752276392,5856.402916479459,7854.537112061634,-187500.02235174447,-187500.02235174447,-187500.02235174447,-187500.02235174447
talvez,10965.296443140083,-1556.6425391009498,6253.436953239078,7852.659565527388,-187500.02235174447,-187500.02235174447,-187500.02235174447,-187500.02235174447
talvez,10768.019946577544,-1575.440356187863,5811.0735787240965,7879.705176318309,-187500.02235174447,-187500.02235174447,-187500.02235174447,-187500.02235174447
talvez,10630.981401322057,-1643.143790142988,5267.836781482313,7888.668225844887,-187500.02235174447,-187500.02235174447,-187500.02235174447,-187500.02235174447
talvez,10859.48328488866,-1620.8814526655024,5756.557673997602,7874.69838556032,-187500.02235174447,-187500.02235174447,-187500.02235174447,-187500.02235174447
talvez,10993.951379531787,-1546.0478122291343,6302.633142785209,7873.290225659636,-187500.02235174447,-187500.02235174447,-187500.02235174447,-187500.02235174447
talvez,10841.333668390951,-1542.6279953274723,6025.516215028312,7920.430054715879,-187500.02235174447,-187500.02235174447,-187500.02235174447,-187500.02235174447
talvez,10638.156311292209,-1641.4450575643848,5438.31353644294,7942.267709048714,-187500.02235174447,-187500.02235174447,-187500.02235174447,-187500.02235174447
talvez,10817.014970423577,-1631.3644208150413,5709.395493196905,7894.27851370317,-187500.02235174447,-187500.02235174447,-187500.02235174447,-187500.02235174447
talvez,10967.6880797968,-1550.83108554257,6133.318678536258,7834.97933566324,-187500.02235174447,-187500.02235174447,-187500.02235174447,-187500.02235174447
talvez,10803.13453711683,-1585.699806892849,5902.045178657196,7833.7723414626535,-187500.02235174447,-187500.02235174447,-187500.02235174447,-187500.02235174447
talvez,10634.53532869045,-1634.4713132943289,5323.380866453751,7907.466042931801,-187500.02235174447,-187500.02235174447,-187500.02235174447,-187500.02235174447
talvez,10739.879100308312,-1652.889150725502,5431.540957872982,7860.572083064567,-187500.02235174447,-187500.02235174447,-187500.02235174447,-187500.02235174447
talvez,10991.55974287507,-1554.250902444232,6238.237767009469,7871.591493081033,-187500.02235174447,-187500.02235174447,-187500.02235174447,-187500.02235174447
talvez,10934.808663703045,-1530.6027568105171,6310.053921944371,7942.33476428208,-187500.02235174447,-187500.02235174447,-187500.02235174447,-187500.02235174447
talvez,10683.150372880742,-1623.2730893222201,5598.955523843232,7940.636031703477,-187500.02235174447,-187500.02235174447,-187500.02235174447,-187500.02235174447
talvez,10671.72863146408,-1704.0969972726105,5285.7852322799245,7848.390382336424,-187500.02235174447,-187500.02235174447,-187500.02235174447,-187500.02235174447
talvez,10924.705675209247,-1607.8503856480581,5967.960473055897,7819.958963389274,-187500.02235174447,-187500.02235174447,-187500.02235174447,-187500.02235174447
talvez,10920.145919340363,-1550.8087337981146,6148.160236854582,7837.862710697975,-187500.02235174447,-187500.02235174447,-187500.02235174447,-187500.02235174447
talvez,10714.778091285001,-1591.086577306578,5586.997340559643,7892.758595080209,-187500.02235174447,-187500.02235174447,-187500.02235174447,-187500.02235174447
talvez,10706.507945836538,-1628.7716184582257,5342.871587618779,7906.281400475669,-187500.02235174447,-187500.02235174447,-187500.02235174447,-187500.02235174447
talvez,10910.422910502304,-1628.36928705803,5979.628083661567,7830.9560216612845,-187500.02235174447,-187500.02235174447,-187500.02235174447,-187500.02235174447
talvez,10942.721181240224,-1588.3820162274858,6291.479622302011,7837.5274345311445,-187500.02235174447,-187500.02235174447,-187500.02235174447,-187500.02235174447
talvez,10749.825626590924,-1620.5238247542175,5732.529548708147,7890.434013656857,-187500.02235174447,-187500.02235174447,-187500.02235174447,-187500.02235174447
talvez,10646.225291040575,-1687.981389520334,5223.580327460805,7880.755708307709,-187500.02235174447,-187500.02235174447,-187500.02235174447,-187500.02235174447
talvez,10884.807811356523,-1629.3527638140636,5816.370942160004,7829.234937338226,-187500.02235174447,-187500.02235174447,-187500.02235174447,-187500.02235174447
talvez,10988.966940518254,-1559.3918036689524,6269.19493308007,7819.824852922542,-187500.02235174447,-187500.02235174447,-187500.02235174447,-187500.02235174447
talvez,10775.70894667017,-1637.6899644958933,5831.659535367434,7823.781111691131,-187500.02235174447,-187500.02235174447,-187500.02235174447,-187500.02235174447
talvez,10674.857875687823,-1684.1145377295659,5330.019334556978,7906.102586520027,-187500.02235174447,-187500.02235174447,-187500.02235174447,-187500.02235174447
talvez,10858.34334592144,-1667.596598577094,5734.094170820019,7843.696516000809,-187500.02235174447,-187500.02235174447,-187500.02235174447,-187500.02235174447
talvez,10992.230295208728,-1590.1925075283657,6284.975264665516,7822.305896557081,-187500.02235174447,-187500.02235174447,-187500.02235174447,-187500.02235174447
talvez,10867.596968125936,-1580.6483126459495,6010.361732287613,7851.251405626704,-187500.02235174447,-187500.02235174447,-187500.02235174447,-187500.02235174447
talvez,10704.138660924276,-1642.987327931801,5382.501230538039,7884.041414742639,-187500.02235174447,-187500.02235174447,-187500.02235174447,-187500.02235174447
talvez,10802.262819083075,-1698.7102268588815,5618.982686875187,7821.5012337566895,-187500.02235174447,-187500.02235174447,-187500.02235174447,-187500.02235174447
talvez,10986.240027694706,-1625.1953393453766,6238.394229220657,7803.977466103729,-187500.02235174447,-187500.02235174447,-187500.02235174447,-187500.02235174447
talvez,10887.937055580265,-1617.148711341466,6059.647328811566,7809.990085362207,-187500.02235174447,-187500.02235174447,-187500.02235174447,-187500.02235174447
talvez,10711.201812172152,-1665.115554942555,5438.827626565412,7849.642080025921,-187500.02235174447,-187500.02235174447,-187500.02235174447,-187500.02235174447
talvez,10792.003368378088,-1678.4595463823732,5533.107284677897,7824.205794835782,-187500.02235174447,-187500.02235174447,-187500.02235174447,-187500.02235174447
talvez,10984.451888138281,-1612.6560107059493,6183.36423437169,7790.007625819162,-187500.02235174447,-187500.02235174447,-187500.02235174447,-187500.02235174447
talvez,10921.73289319669,-1614.4217985179184,6160.766620727375,7796.3778729889245,-187500.02235174447,-187500.02235174447,-187500.02235174447,-187500.02235174447
talvez,10742.896585809778,-1666.3672526320522,5532.0791044329535,7833.235899595726,-187500.02235174447,-187500.02235174447,-187500.02235174447,-187500.02235174447
talvez,10758.74397262859,-1696.6538663689932,5424.164882202731,7831.134835616927,-187500.02235174447,-187500.02235174447,-187500.02235174447,-187500.02235174447
talvez,10949.583166788003,-1647.0106419337562,6095.678340873521,7784.06206179405,-187500.02235174447,-187500.02235174447,-187500.02235174447,-187500.02235174447
talvez,10956.243986635684,-1604.4752722353069,6255.00157535095,7794.097995054483,-187500.02235174447,-187500.02235174447,-187500.02235174447,-187500.02235174447
talvez,10781.65451069528,-1650.0951826685887,5655.281919870606,7823.043504124106,-187500.02235174447,-187500.02235174447,-187500.02235174447,-187500.02235174447
talvez,10732.301858937963,-1702.3312094606413,5334.869663103779,7815.198041820293,-187500.02235174447,-187500.02235174447,-187500.02235174447,-187500.02235174447
talvez,10910.624076202403,-1668.244799166298,5972.3190632246815,7764.236064462193,-187500.02235174447,-187500.02235174447,-187500.02235174447,-187500.02235174447
talvez,10960.066134937542,-1603.0894640790777,6281.935427419595,7774.137887255894,-187500.02235174447,-187500.02235174447,-187500.02235174447,-187500.02235174447
talvez,10816.746749490112,-1622.8707579220245,5786.374901100981,7819.288411055614,-187500.02235174447,-187500.02235174447,-187500.02235174447,-187500.02235174447
talvez,10724.881079778801,-1693.725787845348,5333.550910180916,7823.781111691131,-187500.02235174447,-187500.02235174447,-187500.02235174447,-187500.02235174447
talvez,10875.733003107669,-1674.302121913686,5850.323241987615,7769.1981517312715,-187500.02235174447,-187500.02235174447,-187500.02235174447,-187500.02235174447
talvez,10959.753210515168,-1614.6453159624716,6307.617581798742,7768.505247653156,-187500.02235174447,-187500.02235174447,-187500.02235174447,-187500.02235174447
talvez,10844.14998819232,-1630.0680196366334,5897.4183675549475,7805.922067871341,-187500.02235174447,-187500.02235174447,-187500.02235174447,-187500.02235174447
talvez,10728.971449014121,-1686.7073400863815,5308.494604646517,7813.45460575278,-187500.02235174447,-187500.02235174447,-187500.02235174447,-187500.02235174447
talvez,10850.900215017822,-1678.5936568491052,5710.468376930759,7782.944474571285,-187500.02235174447,-187500.02235174447,-187500.02235174447,-187500.02235174447
talvez,10952.868873222933,-1621.3284875546085,6284.304712331857,7751.607328844944,-187500.02235174447,-187500.02235174447,-187500.02235174447,-187500.02235174447
talvez,10855.90700577581,-1619.2944788091754,6009.311200298214,7769.935759298296,-187500.02235174447,-187500.02235174447,-187500.02235174447,-187500.02235174447
talvez,10724.814024545434,-1681.2311626948313,5343.1845120411535,7809.721864428743,-187500.02235174447,-187500.02235174447,-187500.02235174447,-187500.02235174447
talvez,10822.558203048493,-1689.2330872098312,5579.643616633847,7787.7500996291765,-187500.02235174447,-187500.02235174447,-187500.02235174447,-187500.02235174447
talvez,10965.341146628994,-1620.6579352209492,6256.052107340349,7757.061154492039,-187500.02235174447,-187500.02235174447,-187500.02235174447,-187500.02235174447
talvez,10904.611456943925,-1612.052513605656,6141.946451896007,7778.20590474676,-187500.02235174447,-187500.02235174447,-187500.02235174447,-187500.02235174447
talvez,10743.522434654527,-1663.4615258528622,5454.295033728485,7811.957038874274,-187500.02235174447,-187500.02235174447,-187500.02235174447,-187500.02235174447
talvez,10779.575798460937,-1688.339017431619,5459.950025075677,7786.878381595419,-187500.02235174447,-187500.02235174447,-187500.02235174447,-187500.02235174447
talvez,10935.12158812542,-1634.7171824833374,6159.336109082235,7750.266224177626,-187500.02235174447,-187500.02235174447,-187500.02235174447,-187500.02235174447
talvez,10917.7766344281,-1607.0680745921225,6203.458452637012,7771.478029665713,-187500.02235174447,-187500.02235174447,-187500.02235174447,-187500.02235174447
talvez,10745.914071311245,-1654.4537728373734,5540.259842903596,7812.1135010854605,-187500.02235174447,-187500.02235174447,-187500.02235174447,-187500.02235174447
talvez,10748.037487034499,-1694.5751541346497,5377.337977568863,7819.199004077793,-187500.02235174447,-187500.02235174447,-187500.02235174447,-187500.02235174447
talvez,10930.651239234357,-1636.6841359954044,6070.666738828032,7765.644224362877,-187500.02235174447,-187500.02235174447,-187500.02235174447,-187500.02235174447
talvez,10944.732838241202,-1594.662856419427,6264.881046400195,7764.347823184469,-187500.02235174447,-187500.02235174447,-187500.02235174447,-187500.02235174447
talvez,10780.93925487271,-1630.984441159301,5670.391699122393,7803.619838192444,-187500.02235174447,-187500.02235174447,-187500.02235174447,-187500.02235174447
talvez,10726.825681546412,-1683.399281906996,5334.713200892592,7816.0474081095945,-187500.02235174447,-187500.02235174447,-187500.02235174447,-187500.02235174447
talvez,10906.846631389455,-1643.210845376354,5959.332699696148,7772.550913399567,-187500.02235174447,-187500.02235174447,-187500.02235174447,-187500.02235174447
talvez,10959.149713414874,-1582.928190580391,6281.6001512527655,7773.243817477682,-187500.02235174447,-187500.02235174447,-187500.02235174447,-187500.02235174447
talvez,10808.789528464024,-1612.052513605656,5782.865677221498,7806.994951605196,-187500.02235174447,-187500.02235174447,-187500.02235174447,-187500.02235174447
talvez,10719.673123320714,-1679.7559475607811,5308.829880813347,7812.851108652486,-187500.02235174447,-187500.02235174447,-187500.02235174447,-187500.02235174447
talvez,10882.349119466438,-1654.118496670544,5832.531253401191,7783.436212949302,-187500.02235174447,-187500.02235174447,-187500.02235174447,-187500.02235174447
talvez,10975.51119035616,-1587.018559815712,6297.648703771675,7774.741384356187,-187500.02235174447,-187500.02235174447,-187500.02235174447,-187500.02235174447
talvez,10847.77097079408,-1597.2333070317875,5929.001382470296,7814.1028063419835,-187500.02235174447,-187500.02235174447,-187500.02235174447,-187500.02235174447
talvez,10704.697454535659,-1654.632586793016,5339.183549783654,7841.640155510921,-187500.02235174447,-187500.02235174447,-187500.02235174447,-187500.02235174447
talvez,10846.988659738143,-1644.954281443868,5702.622914626946,7814.326323786537,-187500.02235174447,-187500.02235174447,-187500.02235174447,-187500.02235174447
talvez,10985.435364894314,-1586.3927109709634,6254.375726506201,7780.172858258827,-187500.02235174447,-187500.02235174447,-187500.02235174447,-187500.02235174447
talvez,10881.790325855056,-1591.243039517765,6014.608563734122,7797.540163700601,-187500.02235174447,-187500.02235174447,-187500.02235174447,-187500.02235174447
talvez,10712.542916839471,-1651.8833222250132,5383.954093927633,7831.783036206131,-187500.02235174447,-187500.02235174447,-187500.02235174447,-187500.02235174447
talvez,10804.922676673255,-1668.3789096330297,5575.329729953973,7811.554707474078,-187500.02235174447,-187500.02235174447,-187500.02235174447,-187500.02235174447
talvez,10973.812457777556,-1602.1059873230442,6205.9394962715505,7773.7802593446095,-187500.02235174447,-187500.02235174447,-187500.02235174447,-187500.02235174447
talvez,10925.487986265181,-1572.4452224308518,6128.5801087117325,7803.619838192444,-187500.02235174447,-187500.02235174447,-187500.02235174447,-187500.02235174447
$SILENCE,10730.9831060151,-1626.4917405237843,5476.602074694882,7840.522568288156,-187500.02235174447,-187500.02235174447,-187500.02235174447,-187500.02235174447
$SILENCE,10777.944121115699,-1661.762793274259,5473.338720004406,7825.949230903296,-187500.02235174447,-187500.02235174447,-187500.02235174447,-187500.02235174447
$SILENCE,10980.830905536523,-1602.9106501234353,6151.490646778423,7792.578076431522,-187500.02235174447,-187500.02235174447,-187500.02235174447,-187500.02235174447
$SILENCE,10946.096294652974,-1570.2994549631424,6203.994894503939,7794.232105521215,-187500.02235174447,-187500.02235174447,-187500.02235174447,-187500.02235174447
$SILENCE,10752.105504525365,-1616.2993450521644,5575.061509020509,7842.891853200419,-187500.02235174447,-187500.02235174447,-187500.02235174447,-187500.02235174447
$SILENCE,10749.490350424094,-1665.2496654092868,5370.475992021084,7844.9258619458515,-187500.02235174447,-187500.02235174447,-187500.02235174447,-187500.02235174447
$SILENCE,10954.209977890252,-1611.6948856943711,6031.5735377757,7788.979445574218,-187500.02235174447,-187500.02235174447,-187500.02235174447,-187500.02235174447
$SILENCE,10969.766792031145,-1563.079841504078,6256.633252696187,7796.981370089218,-187500.02235174447,-187500.02235174447,-187500.02235174447,-187500.02235174447
$SILENCE,10788.695310198702,-1594.729911652793,5705.707455361779,7840.299050843603,-187500.02235174447,-187500.02235174447,-187500.02235174447,-187500.02235174447
$SILENCE,10713.772262784512,-1649.7375547573038,5327.873567089268,7843.025963667151,-187500.02235174447,-187500.02235174447,-187500.02235174447,-187500.02235174447
$SILENCE,10916.457881505237,-1613.505376995251,5919.881870732531,7797.048425322584,-187500.02235174447,-187500.02235174447,-187500.02235174447,-187500.02235174447
$SILENCE,10984.65305383838,-1559.0788792465783,6290.8761252017175,7808.269001039148,-187500.02235174447,-187500.02235174447,-187500.02235174447,-187500.02235174447
$SILENCE,10814.623333766858,-1587.6220569160052,5826.473930653802,7841.1037136439945,-187500.02235174447,-187500.02235174447,-187500.02235174447,-187500.02235174447
$SILENCE,10699.534201566483,-1653.2914821256975,5304.314828433375,7844.411771823379,-187500.02235174447,-187500.02235174447,-187500.02235174447,-187500.02235174447
$SILENCE,10884.517238678603,-1634.2030923608652,5780.116412653496,7801.272905024637,-187500.02235174447,-187500.02235174447,-187500.02235174447,-187500.02235174447
$SILENCE,10987.245856195195,-1564.7562223382263,6270.357223791746,7786.073718795028,-187500.02235174447,-187500.02235174447,-187500.02235174447,-187500.02235174447
$SILENCE,10859.125656977374,-1564.7785740826816,5955.13057173855,7832.900623428896,-187500.02235174447,-187500.02235174447,-187500.02235174447,-187500.02235174447
$SILENCE,10711.69355055017,-1631.4761795373179,5387.999759674044,7858.672184785865,-187500.02235174447,-187500.02235174447,-187500.02235174447,-187500.02235174447
$SILENCE,10835.656325299302,-1635.4547900503624,5662.948568218776,7829.793730949609,-187500.02235174447,-187500.02235174447,-187500.02235174447,-187500.02235174447
$SILENCE,10998.019397022654,-1571.9534840528352,6266.557427234344,7797.16018404486,-187500.02235174447,-187500.02235174447,-187500.02235174447,-187500.02235174447
$SILENCE,10870.525046649582,-1560.799963569637,6042.48118906989,7825.479844269735,-187500.02235174447,-187500.02235174447,-187500.02235174447,-187500.02235174447
$SILENCE,10683.530352536483,-1622.2672608217313,5378.142640369254,7859.342737119525,-187500.02235174447,-187500.02235174447,-187500.02235174447,-187500.02235174447
$SILENCE,10788.538847987515,-1645.46837156634,5515.963496680677,7835.716943230265,-187500.02235174447,-187500.02235174447,-187500.02235174447,-187500.02235174447
$SILENCE,10986.731766072722,-1586.057434804134,6178.960940713995,7795.841431121998,-187500.02235174447,-187500.02235174447,-187500.02235174447,-187500.02235174447
$SILENCE,10916.323771038506,-1563.3480624375418,6129.697695934498,7817.969658132752,-187500.02235174447,-187500.02235174447,-187500.02235174447,-187500.02235174447
$SILENCE,10710.508908094038,-1605.6152112025275,5477.406737495272,7863.634272054944,-187500.02235174447,-187500.02235174447,-187500.02235174447,-187500.02235174447
$SILENCE,10752.79840860348,-1641.378002331019,5422.6673153242255,7839.561443276578,-187500.02235174447,-187500.02235174447,-187500.02235174447,-187500.02235174447
$SILENCE,10958.859140736955,-1587.8008708716477,6101.534497920811,7787.951265329274,-187500.02235174447,-187500.02235174447,-187500.02235174447,-187500.02235174447
$SILENCE,10939.25666084965,-1557.1566292234218,6204.352522415224,7803.150451558883,-187500.02235174447,-187500.02235174447,-187500.02235174447,-187500.02235174447
$SILENCE,10749.378591701818,-1596.9650860983238,5584.806869603022,7849.619728281466,-187500.02235174447,-187500.02235174447,-187500.02235174447,-187500.02235174447
$SILENCE,10730.781940315002,-1646.7424210002926,5342.491607963038,7844.478827056745,-187500.02235174447,-187500.02235174447,-187500.02235174447,-187500.02235174447
$SILENCE,10946.11864639743,-1604.2070513018432,5995.721339669388,7796.489631711202,-187500.02235174447,-187500.02235174447,-187500.02235174447,-187500.02235174447
$SILENCE,10965.519960584637,-1558.2295129572765,6246.4408572245675,7799.663579423855,-187500.02235174447,-187500.02235174447,-187500.02235174447,-187500.02235174447
$SILENCE,10776.044222837,-1583.151708024944,5706.087435017519,7846.937518946829,-187500.02235174447,-187500.02235174447,-187500.02235174447,-187500.02235174447
$SILENCE,10700.540030066972,-1640.9756709308233,5300.135052220232,7858.850998741508,-187500.02235174447,-187500.02235174447,-187500.02235174447,-187500.02235174447
$SILENCE,10905.39376799986,-1612.9465833838683,5877.59237022309,7816.516794743156,-187500.02235174447,-187500.02235174447,-187500.02235174447,-187500.02235174447
$SILENCE,10977.232274679218,-1555.055565244623,6274.715813960531,7803.753948659176,-187500.02235174447,-187500.02235174447,-187500.02235174447,-187500.02235174447
$SILENCE,10806.800223207501,-1569.1371642514664,5838.566224404124,7842.936556689329,-187500.02235174447,-187500.02235174447,-187500.02235174447,-187500.02235174447
$SILENCE,10679.998776912544,-1630.2468335922758,5292.803680038891,7861.287338887137,-187500.02235174447,-187500.02235174447,-187500.02235174447,-187500.02235174447
$SILENCE,10864.19950296873,-1623.7871794446921,5737.961022610787,7817.388512776914,-187500.02235174447,-187500.02235174447,-187500.02235174447,-187500.02235174447
$SILENCE,10984.116611971453,-1565.315015949609,6257.95200561905,7798.277771267626,-187500.02235174447,-187500.02235174447,-187500.02235174447,-187500.02235174447
$SILENCE,10849.067371972487,-1564.018614771201,5949.4308769024465,7838.443856053813,-187500.02235174447,-187500.02235174447,-187500.02235174447,-187500.02235174447
$SILENCE,10683.64211125876,-1622.691943966382,5323.045590286922,7869.021042468673,-187500.02235174447,-187500.02235174447,-187500.02235174447,-187500.02235174447
$SILENCE,10815.405644822795,-1630.8950341814798,5610.354913515439,7829.279640827137,-187500.02235174447,-187500.02235174447,-187500.02235174447,-187500.02235174447
$SILENCE,10977.858123523965,-1568.2877979621646,6233.432141951578,7801.16114630236,-187500.02235174447,-187500.02235174447,-187500.02235174447,-187500.02235174447
$SILENCE,10885.366604967905,-1554.8543995445252,6067.24692192637,7835.336963574525,-187500.02235174447,-187500.02235174447,-187500.02235174447,-187500.02235174447
$SILENCE,10698.908352721734,-1610.5102432382398,5396.269905122507,7873.89372275993,-187500.02235174447,-187500.02235174447,-187500.02235174447,-187500.02235174447
$SILENCE,10775.396022247794,-1637.958185429357,5481.206534052674,7837.415675808868,-187500.02235174447,-187500.02235174447,-187500.02235174447,-187500.02235174447
$SILENCE,10959.775562259623,-1574.9486178098462,6145.522731008856,7795.349692743981,-187500.02235174447,-187500.02235174447,-187500.02235174447,-187500.02235174447
$SILENCE,10906.958390111731,-1545.958405251313,6132.111684335671,7819.221355822248,-187500.02235174447,-187500.02235174447,-187500.02235174447,-187500.02235174447
$SILENCE,10722.936478011188,-1596.5404029536728,5492.3377027914175,7866.98703372324,-187500.02235174447,-187500.02235174447,-187500.02235174447,-187500.02235174447
$SILENCE,10744.416504432738,-1640.9309674419128,5395.465242322117,7854.537112061634,-187500.02235174447,-187500.02235174447,-187500.02235174447,-187500.02235174447
$SILENCE,10934.92042242532,-1592.0924058070668,6065.682299814499,7805.251515537681,-187500.02235174447,-187500.02235174447,-187500.02235174447,-187500.02235174447
$SILENCE,10928.192547344273,-1547.5006756187292,6200.999760746928,7817.992009877206,-187500.02235174447,-187500.02235174447,-187500.02235174447,-187500.02235174447
$SILENCE,10734.067646749932,-1581.4976789352513,5592.0711865509975,7859.678013286354,-187500.02235174447,-187500.02235174447,-187500.02235174447,-187500.02235174447
$SILENCE,10692.49340206306,-1637.3323365846084,5309.254563957998,7859.633309797444,-187500.02235174447,-187500.02235174447,-187500.02235174447,-187500.02235174447
$SILENCE,10903.091538320963,-1600.8095861446366,5959.824438074164,7817.7461406881985,-187500.02235174447,-187500.02235174447,-187500.02235174447,-187500.02235174447
$SILENCE,10935.993306159176,-1547.2548064297207,6243.199854278548,7819.780149433631,-187500.02235174447,-187500.02235174447,-187500.02235174447,-187500.02235174447
$SILENCE,10754.497141182082,-1568.019577028701,5721.4430834583145,7869.132801190949,-187500.02235174447,-187500.02235174447,-187500.02235174447,-187500.02235174447
$SILENCE,10654.473084744583,-1627.2964033241753,5280.800793266391,7886.209533954804,-187500.02235174447,-187500.02235174447,-187500.02235174447,-187500.02235174447
$SILENCE,10852.062505729498,-1595.98160934229,5848.088067542085,7850.916129459874,-187500.02235174447,-187500.02235174447,-187500.02235174447,-187500.02235174447
$SILENCE,10907.293666278561,-1539.5658063370952,6264.545770233366,7823.3787802909355,-187500.02235174447,-187500.02235174447,-187500.02235174447,-187500.02235174447
$SILENCE,10727.630344346804,-1561.3364054365643,5830.3854859334815,7844.389420078925,-187500.02235174447,-187500.02235174447,-187500.02235174447,-187500.02235174447
$SILENCE,10702.439928345673,-1629.6880399808933,5263.56759829135,7855.878216728952,-187500.02235174447,-187500.02235174447,-187500.02235174447,-187500.02235174447
$SILENCE,10869.519218149093,-1626.9834789018012,5691.894077288399,7817.0979400989945,-187500.02235174447,-187500.02235174447,-187500.02235174447,-187500.02235174447
$SILENCE,10924.01277113113,-1555.2343792002655,6234.8179501078075,7806.324399271536,-187500.02235174447,-187500.02235174447,-187500.02235174447,-187500.02235174447
$SILENCE,10773.026737335533,-1562.5433996371507,5924.754551023788,7832.118312372961,-187500.02235174447,-187500.02235174447,-187500.02235174447,-187500.02235174447
$SILENCE,10641.710238660604,-1616.5899177300832,5293.630694583738,7883.303807175614,-187500.02235174447,-187500.02235174447,-187500.02235174447,-187500.02235174447
$SILENCE,10821.060636169987,-1619.8309206761028,5571.976968285677,7862.561388321089,-187500.02235174447,-187500.02235174447,-187500.02235174447,-187500.02235174447
$SILENCE,10901.862192375922,-1551.2557686872208,6195.188307188548,7838.22033860926,-187500.02235174447,-187500.02235174447,-187500.02235174447,-187500.02235174447
$SILENCE,10703.311646379429,-1583.3305219805864,5458.385402963806,7900.715816106298,-187500.02235174447,-187500.02235174447,-187500.02235174447,-187500.02235174447
$SILENCE,10677.338919322363,-1600.474309977807,5345.8890731202455,7883.437917642345,-187500.02235174447,-187500.02235174447,-187500.02235174447,-187500.02235174447
$SILENCE,10860.444409900238,-1574.8368590875698,5899.318265833648,7862.539036576633,-187500.02235174447,-187500.02235174447,-187500.02235174447,-187500.02235174447
$SILENCE,10913.239230303674,-1560.375280424986,6106.362474723158,7826.128044858939,-187500.02235174447,-187500.02235174447,-187500.02235174447,-187500.02235174447
$SILENCE,10723.763492556036,-1624.793007945181,5327.180663011153,7891.685711346354,-187500.02235174447,-187500.02235174447,-187500.02235174447,-187500.02235174447
$SILENCE,10716.74504479707,-1566.700824105838,5569.250055462129,7902.928638807373,-187500.02235174447,-187500.02235174447,-187500.02235174447,-187500.02235174447
$SILENCE,10903.829145887988,-1523.249032884721,6215.930726043073,7852.726620760754,-187500.02235174447,-187500.02235174447,-187500.02235174447,-187500.02235174447
$SILENCE,10740.84022531989,-1548.9758907527794,5699.672484358845,7898.413586427401,-187500.02235174447,-187500.02235174447,-187500.02235174447,-187500.02235174447
$SILENCE,10654.33897427785,-1610.7784641717035,5228.1400833296875,7918.887784348462,-187500.02235174447,-187500.02235174447,-187500.02235174447,-187500.02235174447
$SILENCE,10837.645630555824,-1587.5550016826394,5773.232075361261,7869.177504679859,-187500.02235174447,-187500.02235174447,-187500.02235174447,-187500.02235174447
$SILENCE,10931.277088079107,-1530.3345358770534,6223.798540091341,7849.530321303645,-187500.02235174447,-187500.02235174447,-187500.02235174447,-187500.02235174447
$SILENCE,10794.730281201635,-1541.8456842715366,5825.57986087559,7883.3708624089795,-187500.02235174447,-187500.02235174447,-187500.02235174447,-187500.02235174447
$SILENCE,10663.860817415813,-1608.6103449595387,5239.271252068431,7904.046226030139,-187500.02235174447,-187500.02235174447,-187500.02235174447,-187500.02235174447
$SILENCE,10816.545583790015,-1603.1565193124438,5642.11674238643,7859.543902819622,-187500.02235174447,-187500.02235174447,-187500.02235174447,-187500.02235174447
$SILENCE,10955.59578604648,-1534.2237394122767,6218.9705632889945,7836.141626374916,-187500.02235174447,-187500.02235174447,-187500.02235174447,-187500.02235174447
$SILENCE,10847.927433005267,-1536.1459894354332,5949.609690858089,7866.092963945028,-187500.02235174447,-187500.02235174447,-187500.02235174447,-187500.02235174447
$SILENCE,10676.958939666622,-1603.9388303683795,5290.52380210445,7902.995694040739,-187500.02235174447,-187500.02235174447,-187500.02235174447,-187500.02235174447
$SILENCE,10787.644778209304,-1616.9028421524577,5515.1141303913755,7870.250388413715,-187500.02235174447,-187500.02235174447,-187500.02235174447,-187500.02235174447
$SILENCE,10958.032126192109,-1545.2655011731986,6171.160181899093,7839.293222343114,-187500.02235174447,-187500.02235174447,-187500.02235174447,-187500.02235174447
$SILENCE,10884.427831700783,-1528.8369689985477,6052.986508963884,7862.762554021187,-187500.02235174447,-187500.02235174447,-187500.02235174447,-187500.02235174447
$SILENCE,10693.253361374542,-1590.147804039455,5376.756832213025,7893.809127069609,-187500.02235174447,-187500.02235174447,-187500.02235174447,-187500.02235174447
$SILENCE,10751.122027769332,-1621.6861154658934,5407.535184327982,7873.424336126368,-187500.02235174447,-187500.02235174447,-187500.02235174447,-187500.02235174447
$SILENCE,10951.080733666508,-1557.2013327123325,6098.807585097264,7834.26407984067,-187500.02235174447,-187500.02235174447,-187500.02235174447,-187500.02235174447
$SILENCE,10914.423872759804,-1528.121713175978,6130.144730823605,7843.741219489721,-187500.02235174447,-187500.02235174447,-187500.02235174447,-187500.02235174447
$SILENCE,10711.827661016901,-1581.5647341686172,5477.116164817353,7880.554542607611,-187500.02235174447,-187500.02235174447,-187500.02235174447,-187500.02235174447
$SILENCE,10711.827661016901,-1625.731781212304,5311.6685523591705,7876.374766394469,-187500.02235174447,-187500.02235174447,-187500.02235174447,-187500.02235174447
$SILENCE,10926.538518254582,-1570.7464898522485,5999.275267037781,7834.644059496411,-187500.02235174447,-187500.02235174447,-187500.02235174447,-187500.02235174447
$SILENCE,10942.162387628841,-1529.1051899320114,6191.567324586788,7838.734428731732,-187500.02235174447,-187500.02235174447,-187500.02235174447,-187500.02235174447
$SILENCE,10749.758571357557,-1567.796059584148,5606.86804138041,7882.2532751862145,-187500.02235174447,-187500.02235174447,-187500.02235174447,-187500.02235174447
$SILENCE,10691.97931194059,-1623.6754207224155,5260.550112789883,7888.958798522806,-187500.02235174447,-187500.02235174447,-187500.02235174447,-187500.02235174447
$SILENCE,10907.91951512331,-1586.0797865485893,5884.968445893342,7841.304879344092,-187500.02235174447,-187500.02235174447,-187500.02235174447,-187500.02235174447
$SILENCE,10963.195379161285,-1531.0721434440784,6227.084246526271,7835.158149618883,-187500.02235174447,-187500.02235174447,-187500.02235174447,-187500.02235174447
$SILENCE,10782.61563570686,-1555.6814140893716,5730.763760896178,7869.4010221244125,-187500.02235174447,-187500.02235174447,-187500.02235174447,-187500.02235174447
$SILENCE,10670.119305863298,-1621.2614323212424,5234.622089221727,7887.327121177569,-187500.02235174447,-187500.02235174447,-187500.02235174447,-187500.02235174447
$SILENCE,10880.002186298632,-1600.0719785776114,5755.3730315414705,7847.876292213952,-187500.02235174447,-187500.02235174447,-187500.02235174447,-187500.02235174447
$SILENCE,10988.922237029343,-1535.0284022126677,6231.018153550405,7832.990030406718,-187500.02235174447,-187500.02235174447,-187500.02235174447,-187500.02235174447
$SILENCE,10823.18405189324,-1545.3325564065644,5856.425268223914,7869.1104494464935,-187500.02235174447,-187500.02235174447,-187500.02235174447,-187500.02235174447
$SILENCE,10665.693660461147,-1613.9524118843572,5261.175961634632,7894.502031147723,-187500.02235174447,-187500.02235174447,-187500.02235174447,-187500.02235174447
$SILENCE,10833.66702004278,-1610.6443537049715,5623.788311933078,7855.341774862025,-187500.02235174447,-187500.02235174447,-187500.02235174447,-187500.02235174447
$SILENCE,10987.98346376222,-1544.3043761616202,6202.452624136523,7830.330172816536,-187500.02235174447,-187500.02235174447,-187500.02235174447,-187500.02235174447
$SILENCE,10862.14314247884,-1538.8952540034359,5965.434725932447,7858.605129552499,-187500.02235174447,-187500.02235174447,-187500.02235174447,-187500.02235174447
$SILENCE,10663.72670694908,-1595.2663535197203,5309.187508724632,7892.065691002094,-187500.02235174447,-187500.02235174447,-187500.02235174447,-187500.02235174447
$SILENCE,10787.309502042473,-1607.7386269257818,5493.231772569629,7868.596359324022,-187500.02235174447,-187500.02235174447,-187500.02235174447,-187500.02235174447
$SILENCE,10977.768716546145,-1539.2975854036315,6147.959071154484,7833.057085640084,-187500.02235174447,-187500.02235174447,-187500.02235174447,-187500.02235174447
$SILENCE,10890.686320148268,-1523.249032884721,6059.647328811566,7851.9666614492735,-187500.02235174447,-187500.02235174447,-187500.02235174447,-187500.02235174447
$SILENCE,10680.714032735114,-1584.6716266479048,5391.017245175511,7884.980188009762,-187500.02235174447,-187500.02235174447,-187500.02235174447,-187500.02235174447
$SILENCE,10742.65071662077,-1614.1759293289101,5383.529410782982,7875.480696616256,-187500.02235174447,-187500.02235174447,-187500.02235174447,-187500.02235174447
$SILENCE,10962.07779193852,-1550.249940186732,6074.734756318898,7847.339850347024,-187500.02235174447,-187500.02235174447,-187500.02235174447,-187500.02235174447
$SILENCE,10928.393713044372,-1517.9516694488132,6139.308946050281,7851.9666614492735,-187500.02235174447,-187500.02235174447,-187500.02235174447,-187500.02235174447
$SILENCE,10714.64398081827,-1566.6561206169274,5503.982961652632,7890.232847956759,-187500.02235174447,-187500.02235174447,-187500.02235174447,-187500.02235174447
$SILENCE,10703.222239401608,-1617.4169322749296,5300.671494087159,7884.220228698281,-187500.02235174447,-187500.02235174447,-187500.02235174447,-187500.02235174447
$SILENCE,10928.773692700111,-1568.8242398290922,5970.933255068452,7839.628498509944,-187500.02235174447,-187500.02235174447,-187500.02235174447,-187500.02235174447
$SILENCE,10942.698829495768,-1519.53864330514,6189.063929207794,7844.07649565655,-187500.02235174447,-187500.02235174447,-187500.02235174447,-187500.02235174447
$SILENCE,10744.50591141056,-1554.4967716332403,5625.889375911877,7885.18135370986,-187500.02235174447,-187500.02235174447,-187500.02235174447,-187500.02235174447
$SILENCE,10671.30394831943,-1617.4839875082955,5244.121580615232,7886.790679310642,-187500.02235174447,-187500.02235174447,-187500.02235174447,-187500.02235174447
$SILENCE,10889.278160247584,-1579.3966149564524,5844.154160517951,7842.757742733686,-187500.02235174447,-187500.02235174447,-187500.02235174447,-187500.02235174447
$SILENCE,10958.188588403296,-1519.6951055163272,6217.003609776928,7843.40594332289,-187500.02235174447,-187500.02235174447,-187500.02235174447,-187500.02235174447
$SILENCE,10782.459173495672,-1543.54441685014,5753.964871640786,7879.615769340488,-187500.02235174447,-187500.02235174447,-187500.02235174447,-187500.02235174447
$SILENCE,10662.832637170868,-1610.9125746384352,5237.080781111811,7896.759557337708,-187500.02235174447,-187500.02235174447,-187500.02235174447,-187500.02235174447
$SILENCE,10851.235491184652,-1593.8134901301255,5716.145720022407,7853.8442079835195,-187500.02235174447,-187500.02235174447,-187500.02235174447,-187500.02235174447
$SILENCE,10964.447076850782,-1526.087704430545,6212.175632974581,7835.202853107793,-187500.02235174447,-187500.02235174447,-187500.02235174447,-187500.02235174447
$SILENCE,10820.747711747612,-1533.3520213785198,5877.1676870784395,7872.642025070432,-187500.02235174447,-187500.02235174447,-187500.02235174447,-187500.02235174447
$SILENCE,10661.960919137111,-1601.8824698784913,5268.261464626964,7899.061787016605,-187500.02235174447,-187500.02235174447,-187500.02235174447,-187500.02235174447
$SILENCE,10808.677769741747,-1606.598687958561,5586.304436481529,7860.147399919916,-187500.02235174447,-187500.02235174447,-187500.02235174447,-187500.02235174447
$SILENCE,10958.143884914385,-1537.800018525126,6179.229161647459,7829.458454782779,-187500.02235174447,-187500.02235174447,-187500.02235174447,-187500.02235174447
$SILENCE,10851.436656884749,-1528.054657942612,5980.835077862153,7859.052164441606,-187500.02235174447,-187500.02235174447,-187500.02235174447,-187500.02235174447
$SILENCE,10671.371003552795,-1592.3606267405305,5328.655878145204,7898.435938171857,-187500.02235174447,-187500.02235174447,-187500.02235174447,-187500.02235174447
$SILENCE,10765.896530854288,-1615.852310163058,5467.281397257018,7875.726565805265,-187500.02235174447,-187500.02235174447,-187500.02235174447,-187500.02235174447
$SILENCE,10949.31494585454,-1549.7582018087153,6126.680210433032,7841.1037136439945,-187500.02235174447,-187500.02235174447,-187500.02235174447,-187500.02235174447
$SILENCE,10884.807811356523,-1525.953593963813,6075.382956908102,7854.581815550544,-187500.02235174447,-187500.02235174447,-187500.02235174447,-187500.02235174447
$SILENCE,10688.961826439123,-1580.2906847346646,5416.587640832382,7888.13178397796,-187500.02235174447,-187500.02235174447,-187500.02235174447,-187500.02235174447
$SILENCE,10731.40778915975,-1620.6355834764938,5367.525561752983,7873.8043157821085,-187500.02235174447,-187500.02235174447,-187500.02235174447,-187500.02235174447
$SILENCE,10940.284841094595,-1566.49965840574,6052.606529308144,7839.829664210041,-187500.02235174447,-187500.02235174447,-187500.02235174447,-187500.02235174447
$SILENCE,10915.49675649366,-1528.993431209735,6146.148579853604,7848.345678847513,-187500.02235174447,-187500.02235174447,-187500.02235174447,-187500.02235174447
$SILENCE,10725.730446068103,-1571.1935247413546,5531.721476521669,7888.824688056075,-187500.02235174447,-187500.02235174447,-187500.02235174447,-187500.02235174447
$SILENCE,10702.037596945476,-1621.507301510251,5294.748281806503,7884.890781031941,-187500.02235174447,-187500.02235174447,-187500.02235174447,-187500.02235174447
$SILENCE,10899.15763129683,-1574.6580451319273,5944.3793826555475,7833.526472273645,-187500.02235174447,-187500.02235174447,-187500.02235174447,-187500.02235174447
$SILENCE,10924.772730442612,-1526.6464980419278,6190.27092340838,7831.425408294846,-187500.02235174447,-187500.02235174447,-187500.02235174447,-187500.02235174447
$SILENCE,10755.502969682571,-1559.1906379688548,5655.952472204265,7878.051147228617,-187500.02235174447,-187500.02235174447,-187500.02235174447,-187500.02235174447
$SILENCE,10678.568265267404,-1617.7522084417592,5249.687164984603,7889.875220045474,-187500.02235174447,-187500.02235174447,-187500.02235174447,-187500.02235174447
$SILENCE,10863.797171568534,-1586.9068010934354,5820.863642795521,7839.293222343114,-187500.02235174447,-187500.02235174447,-187500.02235174447,-187500.02235174447
$SILENCE,10939.569585272026,-1528.702858531816,6213.516737641899,7829.16788210486,-187500.02235174447,-187500.02235174447,-187500.02235174447,-187500.02235174447
$SILENCE,10791.8469061669,-1548.9311872638689,5779.401156830926,7866.696461045321,-187500.02235174447,-187500.02235174447,-187500.02235174447,-187500.02235174447
$SILENCE,10670.454582030128,-1612.8795281505024,5250.670641740638,7888.668225844887,-187500.02235174447,-187500.02235174447,-187500.02235174447,-187500.02235174447
$SILENCE,10833.532909576048,-1601.1001588225556,5699.516022147658,7849.083286414539,-187500.02235174447,-187500.02235174447,-187500.02235174447,-187500.02235174447
$SILENCE,10951.63952727789,-1537.442390613841,6210.968638773995,7830.732504216731,-187500.02235174447,-187500.02235174447,-187500.02235174447,-187500.02235174447
$SILENCE,10834.315220631985,-1542.0021464827237,5906.247306614793,7867.434068612346,-187500.02235174447,-187500.02235174447,-187500.02235174447,-187500.02235174447
$SILENCE,10680.490515290561,-1606.6210397030163,5287.215743925064,7888.332949678058,-187500.02235174447,-187500.02235174447,-187500.02235174447,-187500.02235174447
$SILENCE,10797.770118447557,-1612.5219002392175,5563.3044914370175,7843.651812511899,-187500.02235174447,-187500.02235174447,-187500.02235174447,-187500.02235174447
$SILENCE,10947.325640598017,-1543.1420854499443,6171.875437721663,7813.678123197333,-187500.02235174447,-187500.02235174447,-187500.02235174447,-187500.02235174447
$SILENCE,10862.232549456663,-1533.3073178896093,6007.634819464067,7838.622670009455,-187500.02235174447,-187500.02235174447,-187500.02235174447,-187500.02235174447
$SILENCE,10690.92877995119,-1593.2323447742874,5355.723840680581,7875.860676271996,-187500.02235174447,-187500.02235174447,-187500.02235174447,-187500.02235174447
$SILENCE,10770.724507656636,-1619.0933131090776,5452.46219068315,7852.681917271843,-187500.02235174447,-187500.02235174447,-187500.02235174447,-187500.02235174447
$SILENCE,10946.878605708911,-1555.7708210671929,6118.231251028926,7814.236916808715,-187500.02235174447,-187500.02235174447,-187500.02235174447,-187500.02235174447
$SILENCE,10893.457936460727,-1530.2898323881427,6101.892125832096,7832.967678662262,-187500.02235174447,-187500.02235174447,-187500.02235174447,-187500.02235174447
$SILENCE,10710.061873204932,-1582.3693969690082,5458.608920408359,7874.385461137947,-187500.02235174447,-187500.02235174447,-187500.02235174447,-187500.02235174447
$SILENCE,10735.252289206062,-1624.7483044562705,5364.932759396167,7864.438934855335,-187500.02235174447,-187500.02235174447,-187500.02235174447,-187500.02235174447
$SILENCE,10924.7280269537,-1568.0419287731563,6030.902985442041,7817.142643587905,-187500.02235174447,-187500.02235174447,-187500.02235174447,-187500.02235174447
$SILENCE,10917.620172216913,-1529.1722451653775,6163.806457973297,7820.160129089371,-187500.02235174447,-187500.02235174447,-187500.02235174447,-187500.02235174447
$SILENCE,10738.135664240797,-1571.4617456748183,5566.05375600502,7857.621652796466,-187500.02235174447,-187500.02235174447,-187500.02235174447,-187500.02235174447
$SILENCE,10710.486556349582,-1628.212824846843,5288.132165447732,7856.481713829246,-187500.02235174447,-187500.02235174447,-187500.02235174447,-187500.02235174447
$SILENCE,10905.080843577487,-1586.1468417819551,5919.367780610059,7806.21264054926,-187500.02235174447,-187500.02235174447,-187500.02235174447,-187500.02235174447
$SILENCE,10938.295535838073,-1532.4132481113968,6203.860784037207,7806.100881826983,-187500.02235174447,-187500.02235174447,-187500.02235174447,-187500.02235174447
$SILENCE,10777.318272270952,-1562.766917081704,5698.398434924893,7852.45839982729,-187500.02235174447,-187500.02235174447,-187500.02235174447,-187500.02235174447
$SILENCE,10695.577942797892,-1625.3518015565637,5260.550112789883,7861.421449353868,-187500.02235174447,-187500.02235174447,-187500.02235174447,-187500.02235174447
$SILENCE,10873.475476917682,-1597.3227140096087,5807.273782166694,7813.789881919609,-187500.02235174447,-187500.02235174447,-187500.02235174447,-187500.02235174447
$SILENCE,10955.707544768757,-1537.5988528250282,6228.157130260126,7800.065910824051,-187500.02235174447,-187500.02235174447,-187500.02235174447,-187500.02235174447
$SILENCE,10813.282229099541,-1555.3908414114526,5818.226136949795,7833.370010062458,-187500.02235174447,-187500.02235174447,-187500.02235174447,-187500.02235174447
$SILENCE,10683.820925214402,-1620.9038044099575,5263.634653524716,7857.152266162904,-187500.02235174447,-187500.02235174447,-187500.02235174447,-187500.02235174447
$SILENCE,10838.472645100672,-1611.0243333607118,5674.035033468608,7814.818062164553,-187500.02235174447,-187500.02235174447,-187500.02235174447,-187500.02235174447
$SILENCE,10962.614233805447,-1547.0089372407124,6207.660580594609,7790.834640364009,-187500.02235174447,-187500.02235174447,-187500.02235174447,-187500.02235174447
$SILENCE,10838.539700334037,-1547.344213407542,5930.275431904249,7819.109597099972,-187500.02235174447,-187500.02235174447,-187500.02235174447,-187500.02235174447
talvez,10676.981291411077,-1612.276031050209,5303.577220866349,7849.329155603547,-187500.02235174447,-187500.02235174447,-187500.02235174447,-187500.02235174447
talvez,10795.400833535294,-1621.216728832332,5553.469723876682,7822.574117490544,-187500.02235174447,-187500.02235174447,-187500.02235174447,-187500.02235174447
talvez,10952.623004033925,-1552.8650942880029,6176.658711035098,7794.165050287849,-187500.02235174447,-187500.02235174447,-187500.02235174447,-187500.02235174447
talvez,10871.329709449972,-1540.5045796042182,6037.7649709898205,7816.919126143352,-187500.02235174447,-187500.02235174447,-187500.02235174447,-187500.02235174447
talvez,10692.06871891841,-1598.9990948437567,5379.461393292117,7851.609033537989,-187500.02235174447,-187500.02235174447,-187500.02235174447,-187500.02235174447
talvez,10753.84894059288,-1626.2905748236865,5434.1114084853425,7828.474978026746,-187500.02235174447,-187500.02235174447,-187500.02235174447,-187500.02235174447
talvez,10941.044800406075,-1562.5210478926956,6106.8542131011745,7792.689835153799,-187500.02235174447,-187500.02235174447,-187500.02235174447,-187500.02235174447
talvez,10898.800003385544,-1535.3860301239527,6125.741437165909,7810.481823740223,-187500.02235174447,-187500.02235174447,-187500.02235174447,-187500.02235174447
talvez,10708.765472026524,-1586.9068010934354,5486.146269577297,7849.88794921493,-187500.02235174447,-187500.02235174447,-187500.02235174447,-187500.02235174447
talvez,10720.790710543479,-1629.4645225363402,5345.084410319854,7838.801483965098,-187500.02235174447,-187500.02235174447,-187500.02235174447,-187500.02235174447
talvez,10923.565736242026,-1573.987492798268,6014.139177100561,7797.808384634064,-187500.02235174447,-187500.02235174447,-187500.02235174447,-187500.02235174447
talvez,10922.895183908366,-1532.0109167112014,6180.100879681216,7802.725768414232,-187500.02235174447,-187500.02235174447,-187500.02235174447,-187500.02235174447
talvez,10734.626440361315,-1574.143955009455,5596.072148808497,7840.83549271053,-187500.02235174447,-187500.02235174447,-187500.02235174447,-187500.02235174447
talvez,10691.912256707223,-1628.9280806694128,5278.476211843039,7838.26504209817,-187500.02235174447,-187500.02235174447,-187500.02235174447,-187500.02235174447
talvez,10894.687282405768,-1585.4539377038407,5904.727387991833,7796.802556133575,-187500.02235174447,-187500.02235174447,-187500.02235174447,-187500.02235174447
talvez,10941.581242273003,-1533.4637801007964,6221.988048790461,7796.3778729889245,-187500.02235174447,-187500.02235174447,-187500.02235174447,-187500.02235174447
talvez,10770.61274893436,-1563.5492281376396,5723.946478837309,7831.827739695042,-187500.02235174447,-187500.02235174447,-187500.02235174447,-187500.02235174447
talvez,10674.813172198912,-1627.2069963463541,5255.1409906316985,7844.367068334469,-187500.02235174447,-187500.02235174447,-187500.02235174447,-187500.02235174447
talvez,10865.272386702585,-1601.1001588225556,5781.2563516207165,7802.301085269581,-187500.02235174447,-187500.02235174447,-187500.02235174447,-187500.02235174447
talvez,10956.333393613506,-1537.4870941027516,6227.486577926466,7791.728710142221,-187500.02235174447,-187500.02235174447,-187500.02235174447,-187500.02235174447
talvez,10804.81091795098,-1550.764030309204,5841.471951183314,7826.5974314925,-187500.02235174447,-187500.02235174447,-187500.02235174447,-187500.02235174447
talvez,10664.598424982838,-1617.2157665748318,5267.0544704263775,7849.642080025921,-187500.02235174447,-187500.02235174447,-187500.02235174447,-187500.02235174447
talvez,10819.205441380196,-1608.1186065815218,5652.465600069238,7812.046445852095,-187500.02235174447,-187500.02235174447,-187500.02235174447,-187500.02235174447
talvez,10953.11474241194,-1541.0633732156007,6208.4652433950005,7790.164088030349,-187500.02235174447,-187500.02235174447,-187500.02235174447,-187500.02235174447
talvez,10837.645630555824,-1542.0692017160895,5953.811818815687,7819.757797689176,-187500.02235174447,-187500.02235174447,-187500.02235174447,-187500.02235174447
talvez,10664.598424982838,-1607.828033903603,5310.685075603137,7849.88794921493,-187500.02235174447,-187500.02235174447,-187500.02235174447,-187500.02235174447
talvez,10781.341586272907,-1617.662801463938,5525.0383049295315,7822.64117272391,-187500.02235174447,-187500.02235174447,-187500.02235174447,-187500.02235174447
talvez,10951.348954599973,-1547.9924139967459,6167.9638824419835,7794.5897334325,-187500.02235174447,-187500.02235174447,-187500.02235174447,-187500.02235174447
talvez,10880.471572932192,-1532.9720417227795,6063.089497457683,7817.433216265824,-187500.02235174447,-187500.02235174447,-187500.02235174447,-187500.02235174447
talvez,10688.671253761204,-1602.4189117454187,5392.984198687577,7846.64694626891,-187500.02235174447,-187500.02235174447,-187500.02235174447,-187500.02235174447
talvez,10748.685687623703,-1630.4256475479183,5410.083283195888,7829.100826871494,-187500.02235174447,-187500.02235174447,-187500.02235174447,-187500.02235174447
talvez,10944.889300452389,-1564.4209461713967,6090.470384415435,7792.9133525983525,-187500.02235174447,-187500.02235174447,-187500.02235174447,-187500.02235174447
talvez,10912.546326225558,-1534.8048847681148,6137.07377160475,7807.978428361229,-187500.02235174447,-187500.02235174447,-187500.02235174447,-187500.02235174447
talvez,10718.868460520323,-1583.8669638475137,5503.0218366410545,7846.26696661317,-187500.02235174447,-187500.02235174447,-187500.02235174447,-187500.02235174447
talvez,10716.677989563703,-1630.7162202258373,5329.505244434506,7836.588661264022,-187500.02235174447,-187500.02235174447,-187500.02235174447,-187500.02235174447
talvez,10920.592954229469,-1576.3344259660753,6003.142118828549,7796.02024507764,-187500.02235174447,-187500.02235174447,-187500.02235174447,-187500.02235174447
talvez,10926.605573487946,-1531.3627161219974,6198.786938045852,7804.379797503924,-187500.02235174447,-187500.02235174447,-187500.02235174447,-187500.02235174447
talvez,10736.951021784667,-1570.1876962408658,5621.754303187645,7840.12023688796,-187500.02235174447,-187500.02235174447,-187500.02235174447,-187500.02235174447
talvez,10684.558532781426,-1628.9057289249574,5275.726947275037,7843.0483154116055,-187500.02235174447,-187500.02235174447,-187500.02235174447,-187500.02235174447
talvez,10889.926360836787,-1588.2032022718433,5885.9742743938305,7797.808384634064,-187500.02235174447,-187500.02235174447,-187500.02235174447,-187500.02235174447
talvez,10946.565681286536,-1532.6591173004053,6226.883080826174,7795.081471810517,-187500.02235174447,-187500.02235174447,-187500.02235174447,-187500.02235174447
talvez,10782.392118262305,-1560.2858734471647,5751.014441372686,7835.761646719176,-187500.02235174447,-187500.02235174447,-187500.02235174447,-187500.02235174447
talvez,10681.473992046595,-1625.150635856466,5267.926188460135,7856.816989996075,-187500.02235174447,-187500.02235174447,-187500.02235174447,-187500.02235174447
talvez,10860.176188966774,-1597.635638431983,5773.790868972644,7816.248573809693,-187500.02235174447,-187500.02235174447,-187500.02235174447,-187500.02235174447
talvez,10956.020469191131,-1534.9166434903914,6244.608014179232,7798.054253823073,-187500.02235174447,-187500.02235174447,-187500.02235174447,-187500.02235174447
talvez,10811.672903498758,-1547.791248296648,5868.741079418788,7832.364181561969,-187500.02235174447,-187500.02235174447,-187500.02235174447,-187500.02235174447
talvez,10661.290366803452,-1610.9796298718013,5267.076822170833,7857.88987372993,-187500.02235174447,-187500.02235174447,-187500.02235174447,-187500.02235174447
talvez,10817.439653568228,-1602.4189117454187,5643.457847053748,7827.916184415363,-187500.02235174447,-187500.02235174447,-187500.02235174447,-187500.02235174447
talvez,10962.83775125,-1528.0993614315225,6226.100769770238,7806.369102760447,-187500.02235174447,-187500.02235174447,-187500.02235174447,-187500.02235174447
talvez,10841.177206179764,-1533.1955591673327,5965.144153254528,7820.7412744452095,-187500.02235174447,-187500.02235174447,-187500.02235174447,-187500.02235174447
talvez,10670.231064585574,-1589.0972720500556,5341.575186440371,7862.024946454161,-187500.02235174447,-187500.02235174447,-187500.02235174447,-187500.02235174447
talvez,10788.717661943158,-1596.7415686537706,5563.550360626025,7844.83645496803,-187500.02235174447,-187500.02235174447,-187500.02235174447,-187500.02235174447
talvez,10950.45488482176,-1548.1935796968437,6174.915274967584,7801.183498046816,-187500.02235174447,-187500.02235174447,-187500.02235174447,-187500.02235174447
talvez,10848.396819638827,-1563.1468967374442,6042.950575703451,7798.836564879009,-187500.02235174447,-187500.02235174447,-187500.02235174447,-187500.02235174447
talvez,10685.698471748647,-1601.7707111562147,5434.692553841181,7866.65175755641,-187500.02235174447,-187500.02235174447,-187500.02235174447,-187500.02235174447
talvez,10733.195928716175,-1629.531577769706,5397.387492345273,7842.578928778044,-187500.02235174447,-187500.02235174447,-187500.02235174447,-187500.02235174447
talvez,10933.758131713645,-1554.608530355517,6065.570541092222,7796.824907878031,-187500.02235174447,-187500.02235174447,-187500.02235174447,-187500.02235174447
talvez,10886.864171846411,-1553.1109634770112,6102.786195610309,7790.946399086285,-187500.02235174447,-187500.02235174447,-187500.02235174447,-187500.02235174447
talvez,10695.309721864429,-1605.3469902690638,5484.0675573429535,7835.716943230265,-187500.02235174447,-187500.02235174447,-187500.02235174447,-187500.02235174447
talvez,10690.347634595351,-1650.8998454689797,5289.406214881685,7833.7723414626535,-187500.02235174447,-187500.02235174447,-187500.02235174447,-187500.02235174447
talvez,10893.882619605378,-1594.215821530321,5962.663109619989,7791.952227586774,-187500.02235174447,-187500.02235174447,-187500.02235174447,-187500.02235174447
talvez,10917.35195128345,-1545.8689982734918,6191.612028075699,7799.507117212667,-187500.02235174447,-187500.02235174447,-187500.02235174447,-187500.02235174447
talvez,10739.186196230197,-1583.5316876806842,5636.171178361318,7844.523530545656,-187500.02235174447,-187500.02235174447,-187500.02235174447,-187500.02235174447
talvez,10668.957015151622,-1642.6520517649712,5256.213874365553,7848.837417225531,-187500.02235174447,-187500.02235174447,-187500.02235174447,-187500.02235174447
talvez,10865.9652907807,-1605.570507713617,5848.5798059201015,7799.954152101774,-187500.02235174447,-187500.02235174447,-187500.02235174447,-187500.02235174447
talvez,10929.667762478324,-1545.5560738511174,6214.0978829977375,7793.807422376564,-187500.02235174447,-187500.02235174447,-187500.02235174447,-187500.02235174447
talvez,10770.098658811887,-1564.6221118714943,5758.859903676499,7838.22033860926,-187500.02235174447,-187500.02235174447,-187500.02235174447,-187500.02235174447
talvez,10652.05909634341,-1635.6112522615497,5245.820313193835,7858.292205130126,-187500.02235174447,-187500.02235174447,-187500.02235174447,-187500.02235174447
talvez,10825.933316461244,-1611.8513479055582,5738.609223199991,7821.858861667974,-187500.02235174447,-187500.02235174447,-187500.02235174447,-187500.02235174447
talvez,10931.701771223758,-1548.3500419080308,6238.28247049838,7802.658713180866,-187500.02235174447,-187500.02235174447,-187500.02235174447,-187500.02235174447
talvez,10801.726377216146,-1541.4210011268856,5887.315379061149,7843.875329956452,-187500.02235174447,-187500.02235174447,-187500.02235174447,-187500.02235174447
talvez,10643.923061361678,-1619.0709613646225,5265.109868658766,7858.828646997053,-187500.02235174447,-187500.02235174447,-187500.02235174447,-187500.02235174447
talvez,10762.610824419358,-1673.6762730689375,5587.243209748651,7804.871535881942,-187500.02235174447,-187500.02235174447,-187500.02235174447,-187500.02235174447
talvez,10937.982611415699,-1565.4491264163407,6176.904580224107,7811.621762707444,-187500.02235174447,-187500.02235174447,-187500.02235174447,-187500.02235174447
talvez,10828.749636262613,-1526.0653526860897,6000.839889149653,7832.900623428896,-187500.02235174447,-187500.02235174447,-187500.02235174447,-187500.02235174447
talvez,10635.429398468661,-1619.8756241650135,5361.825866916879,7867.501123845712,-187500.02235174447,-187500.02235174447,-187500.02235174447,-187500.02235174447
talvez,10696.49436432056,-1690.1048052435883,5453.2445017390855,7806.816137649553,-187500.02235174447,-187500.02235174447,-187500.02235174447,-187500.02235174447
talvez,10905.170250555308,-1581.184754512877,6124.02035284285,7775.411936689847,-187500.02235174447,-187500.02235174447,-187500.02235174447,-187500.02235174447
talvez,10852.017802240587,-1553.9156262774022,6054.685241542487,7793.136870042905,-187500.02235174447,-187500.02235174447,-187500.02235174447,-187500.02235174447
talvez,10637.955145592112,-1645.5577785441612,5356.0144133585,7844.255309612193,-187500.02235174447,-187500.02235174447,-187500.02235174447,-187500.02235174447
talvez,10671.460410530617,-1681.0523487391888,5301.833784798835,7838.600318265,-187500.02235174447,-187500.02235174447,-187500.02235174447,-187500.02235174447
talvez,10864.154799479818,-1599.0437983326672,5992.413281490002,7755.384773657892,-187500.02235174447,-187500.02235174447,-187500.02235174447,-187500.02235174447
talvez,10872.939035050755,-1558.6765478463826,6146.036821131328,7801.742291658198,-187500.02235174447,-187500.02235174447,-187500.02235174447,-187500.02235174447
talvez,10697.634303287781,-1611.7395891832816,5546.071296461975,7872.910246003896,-187500.02235174447,-187500.02235174447,-187500.02235174447,-187500.02235174447
talvez,10640.972631093578,-1664.5791130756277,5242.244034080986,7848.300975358603,-187500.02235174447,-187500.02235174447,-187500.02235174447,-187500.02235174447
talvez,10840.48430210165,-1618.5121677532397,5906.202603125883,7779.099974524972,-187500.02235174447,-187500.02235174447,-187500.02235174447,-187500.02235174447
talvez,10899.06822431901,-1558.1401059794553,6208.219374205992,7772.282692466104,-187500.02235174447,-187500.02235174447,-187500.02235174447,-187500.02235174447
talvez,10704.004550457545,-1597.0991965650555,5628.4598265242375,7827.893832670908,-187500.02235174447,-187500.02235174447,-187500.02235174447,-187500.02235174447
talvez,10614.642276125227,-1659.8628949955578,5231.269327553431,7825.278678569637,-187500.02235174447,-187500.02235174447,-187500.02235174447,-187500.02235174447
talvez,10825.083950171942,-1632.727877226815,5782.23982837675,7839.337925832025,-187500.02235174447,-187500.02235174447,-187500.02235174447,-187500.02235174447
talvez,10897.704767907235,-1583.4199289584076,6178.111574424694,7789.292369996592,-187500.02235174447,-187500.02235174447,-187500.02235174447,-187500.02235174447
talvez,10751.166731258241,-1590.594838928561,5761.989147900242,7823.870518668952,-187500.02235174447,-187500.02235174447,-187500.02235174447,-187500.02235174447
talvez,10641.732590405058,-1657.1359821720102,5246.0885341273,7859.163923163882,-187500.02235174447,-187500.02235174447,-187500.02235174447,-187500.02235174447
talvez,10812.321104087961,-1643.6802320099155,5691.98348426622,7824.3175535580585,-187500.02235174447,-187500.02235174447,-187500.02235174447,-187500.02235174447
talvez,10921.129396096398,-1578.5919521560613,6196.685874067053,7788.06302405155,-187500.02235174447,-187500.02235174447,-187500.02235174447,-187500.02235174447
talvez,10780.402813005783,-1588.4490714608517,5883.7390999483,7821.9706203902515,-187500.02235174447,-187500.02235174447,-187500.02235174447,-187500.02235174447
talvez,10613.167060991176,-1654.6772902819266,5261.153609890176,7835.716943230265,-187500.02235174447,-187500.02235174447,-187500.02235174447,-187500.02235174447
talvez,10759.056897050965,-1663.66269155296,5561.248130947129,7834.509949029679,-187500.02235174447,-187500.02235174447,-187500.02235174447,-187500.02235174447
talvez,10919.520070495615,-1611.404313016452,6173.574170300266,7858.515722574678,-187500.02235174447,-187500.02235174447,-187500.02235174447,-187500.02235174447
talvez,10819.875993713857,-1597.4791762207958,6007.768929930799,7823.825815180042,-187500.02235174447,-187500.02235174447,-187500.02235174447,-187500.02235174447
talvez,10630.28849724394,-1653.9620344593568,5348.8842068772565,7821.88121341243,-187500.02235174447,-187500.02235174447,-187500.02235174447,-187500.02235174447
talvez,10710.464204605129,-1674.4809358693285,5435.117236985831,7811.018265607151,-187500.02235174447,-187500.02235174447,-187500.02235174447,-187500.02235174447
talvez,10905.371416255406,-1610.309077538142,6100.72983512042,7790.20879151926,-187500.02235174447,-187500.02235174447,-187500.02235174447,-187500.02235174447
talvez,10831.565956063982,-1589.6784174058937,6075.405308652557,7784.01735830514,-187500.02235174447,-187500.02235174447,-187500.02235174447,-187500.02235174447
talvez,10642.53725320545,-1636.1923976173875,5443.141513245287,7848.010402680684,-187500.02235174447,-187500.02235174447,-187500.02235174447,-187500.02235174447
talvez,10679.082355389877,-1680.6500173389934,5365.446849518639,7855.274719628659,-187500.02235174447,-187500.02235174447,-187500.02235174447,-187500.02235174447
talvez,10875.330671707472,-1627.4305137909073,6027.7290377293875,7804.938591115308,-187500.02235174447,-187500.02235174447,-187500.02235174447,-187500.02235174447
talvez,10870.748564094134,-1583.9787225697903,6156.720954980964,7836.700419986299,-187500.02235174447,-187500.02235174447,-187500.02235174447,-187500.02235174447
talvez,10689.699434006148,-1624.5247870117173,5572.066375263497,7898.190068982848,-187500.02235174447,-187500.02235174447,-187500.02235174447,-187500.02235174447
talvez,10646.337049762851,-1681.789956306214,5283.0806712008325,7857.666356285376,-187500.02235174447,-187500.02235174447,-187500.02235174447,-187500.02235174447
talvez,10853.381258652362,-1627.2293480908095,5911.5670217951565,7812.4040737633795,-187500.02235174447,-187500.02235174447,-187500.02235174447,-187500.02235174447
talvez,10907.003093600642,-1572.7804985976816,6207.973505016984,7824.362257046969,-187500.02235174447,-187500.02235174447,-187500.02235174447,-187500.02235174447
talvez,10716.543879096971,-1605.726969924804,5689.3906819094045,7836.946289175307,-187500.02235174447,-187500.02235174447,-187500.02235174447,-187500.02235174447
talvez,10619.224383738565,-1670.859953267569,5237.840740423291,7859.722716775265,-187500.02235174447,-187500.02235174447,-187500.02235174447,-187500.02235174447
talvez,10834.292868887529,-1629.7550952142592,5810.62654383499,7845.596414279511,-187500.02235174447,-187500.02235174447,-187500.02235174447,-187500.02235174447
talvez,10911.987532614176,-1561.2917019476536,6229.386476205168,7863.075478443561,-187500.02235174447,-187500.02235174447,-187500.02235174447,-187500.02235174447
talvez,10757.201702261174,-1578.279027733687,5824.372866675004,7869.065745957583,-187500.02235174447,-187500.02235174447,-187500.02235174447,-187500.02235174447
talvez,10634.088293801344,-1655.1690286599433,5282.924208989645,7891.37278692398,-187500.02235174447,-187500.02235174447,-187500.02235174447,-187500.02235174447
talvez,10802.978074905644,-1640.1263046415218,5692.519926133147,7863.522513332667,-187500.02235174447,-187500.02235174447,-187500.02235174447,-187500.02235174447
talvez,10909.037102346076,-1578.0331585446786,6202.385568903157,7827.513853015167,-187500.02235174447,-187500.02235174447,-187500.02235174447,-187500.02235174447
talvez,10789.9470078882,-1575.59681839905,5928.710809792377,7842.891853200419,-187500.02235174447,-187500.02235174447,-187500.02235174447,-187500.02235174447
talvez,10652.439075999151,-1629.2410050917872,5315.088369260832,7893.205629969315,-187500.02235174447,-187500.02235174447,-187500.02235174447,-187500.02235174447
talvez,10778.145286815798,-1646.0271651777227,5553.805000043511,7881.470964130279,-187500.02235174447,-187500.02235174447,-187500.02235174447,-187500.02235174447
talvez,10934.674553236313,-1578.0778620335893,6169.796725487319,7822.462358768268,-187500.02235174447,-187500.02235174447,-187500.02235174447,-187500.02235174447
talvez,10882.594988655448,-1558.7883065686592,6071.672567328521,7889.808164812108,-187500.02235174447,-187500.02235174447,-187500.02235174447,-187500.02235174447
talvez,10700.383567855784,-1623.8989381669687,5419.225146678108,7921.592345427555,-187500.02235174447,-187500.02235174447,-187500.02235174447,-187500.02235174447
talvez,10762.096734296887,-1654.8337524931137,5452.082211027409,7848.993879436717,-187500.02235174447,-187500.02235174447,-187500.02235174447,-187500.02235174447
talvez,10931.54530901257,-1594.2381732747763,6120.8240533857415,7835.158149618883,-187500.02235174447,-187500.02235174447,-187500.02235174447,-187500.02235174447
talvez,10909.953523868744,-1550.0711262310895,6169.953187698507,7860.437972597835,-187500.02235174447,-187500.02235174447,-187500.02235174447,-187500.02235174447
talvez,10705.904448736244,-1607.2915920366756,5504.809976197479,7888.042377000139,-187500.02235174447,-187500.02235174447,-187500.02235174447,-187500.02235174447
talvez,10724.881079778801,-1644.1272668990216,5378.25439909153,7880.219266440781,-187500.02235174447,-187500.02235174447,-187500.02235174447,-187500.02235174447
talvez,10945.336335341493,-1582.928190580391,6085.217724468437,7844.411771823379,-187500.02235174447,-187500.02235174447,-187500.02235174447,-187500.02235174447
talvez,10923.029294375097,-1541.3539458935197,6250.039488081871,7842.198949122304,-187500.02235174447,-187500.02235174447,-187500.02235174447,-187500.02235174447
talvez,10715.001608729555,-1582.9952458137568,5631.298498070061,7879.504010618211,-187500.02235174447,-187500.02235174447,-187500.02235174447,-187500.02235174447
talvez,10679.976425168088,-1636.1700458729324,5333.349744480818,7919.1783570263815,-187500.02235174447,-187500.02235174447,-187500.02235174447,-187500.02235174447
talvez,10931.59001250148,-1584.3363504810752,6067.671605071021,7888.802336311619,-187500.02235174447,-187500.02235174447,-187500.02235174447,-187500.02235174447
talvez,10966.682251296312,-1555.3237861780867,6293.379520580712,7852.1454754049155,-187500.02235174447,-187500.02235174447,-187500.02235174447,-187500.02235174447
talvez,10778.32410077144,-1585.0069028147345,5743.057220346596,7863.03077495465,-187500.02235174447,-187500.02235174447,-187500.02235174447,-187500.02235174447
talvez,10663.994927882544,-1666.210790420865,5253.75518247547,7865.9365017338405,-187500.02235174447,-187500.02235174447,-187500.02235174447,-187500.02235174447
talvez,10866.077049502976,-1629.531577769706,5806.62558157749,7841.729562488743,-187500.02235174447,-187500.02235174447,-187500.02235174447,-187500.02235174447
talvez,10960.60257680447,-1567.2596177172206,6289.423261812122,7827.938536159818,-187500.02235174447,-187500.02235174447,-187500.02235174447,-187500.02235174447
talvez,10839.456121856705,-1573.5628096536173,5929.515472592768,7897.743034093743,-187500.02235174447,-187500.02235174447,-187500.02235174447,-187500.02235174447
talvez,10672.890922175757,-1660.5781508181276,5307.645238357215,7895.150231736927,-187500.02235174447,-187500.02235174447,-187500.02235174447,-187500.02235174447
talvez,10831.43184559725,-1662.276883396731,5661.607463551458,7831.514815272667,-187500.02235174447,-187500.02235174447,-187500.02235174447,-187500.02235174447
talvez,10992.722033586746,-1568.1313357509775,6228.693572127053,7828.206757093282,-187500.02235174447,-187500.02235174447,-187500.02235174447,-187500.02235174447
talvez,10855.370563908884,-1602.9330018678907,5970.955606812908,7832.878271684441,-187500.02235174447,-187500.02235174447,-187500.02235174447,-187500.02235174447
talvez,10684.759698481525,-1669.4964968557952,5360.9765006275775,7875.74891754972,-187500.02235174447,-187500.02235174447,-187500.02235174447,-187500.02235174447
talvez,10837.533871833548,-1645.4907233107954,5669.072946199531,7889.361129923002,-187500.02235174447,-187500.02235174447,-187500.02235174447,-187500.02235174447
talvez,11015.476109442248,-1570.2323997297765,6327.018895985949,7843.36123983398,-187500.02235174447,-187500.02235174447,-187500.02235174447,-187500.02235174447
