WORD,Channel_1,Channel_2,Channel_3,Channel_4,Channel_5,Channel_6,Channel_7,Channel_8
$SILENCE,33514.67502292097,-6326.661268074664,16373.166903634896,11453.704411232999,-187500.02235174447,-187500.02235174447,-187500.02235174447,-187500.02235174447
$SILENCE,33403.117466344534,-6311.551488822876,16141.759293289102,11528.292182480358,-187500.02235174447,-187500.02235174447,-187500.02235174447,-187500.02235174447
$SILENCE,33202.77878079162,-6341.703992093086,15849.666696747148,11518.613877131209,-187500.02235174447,-187500.02235174447,-187500.02235174447,-187500.02235174447
$SILENCE,33295.22559585876,-6392.844783406828,16093.457173521183,11422.210803295471,-187500.02235174447,-187500.02235174447,-187500.02235174447,-187500.02235174447
$SILENCE,33464.87533627455,-6374.382242486745,16358.258290083206,11411.303152001281,-187500.02235174447,-187500.02235174447,-187500.02235174447,-187500.02235174447
$SILENCE,33424.48573404381,-6329.008201242471,16201.527857962592,11508.08620549276,-187500.02235174447,-187500.02235174447,-187500.02235174447,-187500.02235174447
$SILENCE,33267.82235715656,-6297.693407260586,15909.949351543111,11569.799371933863,-187500.02235174447,-187500.02235174447,-187500.02235174447,-187500.02235174447
$SILENCE,33268.135281578936,-6363.184018514636,16018.221201684619,11441.5003587604,-187500.02235174447,-187500.02235174447,-187500.02235174447,-187500.02235174447
$SILENCE,33447.15040292149,-6384.708748425097,16340.108673585497,11394.002901792874,-187500.02235174447,-187500.02235174447,-187500.02235174447,-187500.02235174447
$SILENCE,33431.794754480696,-6341.63693685972,16242.833881716,11490.785955284353,-187500.02235174447,-187500.02235174447,-187500.02235174447,-187500.02235174447
$SILENCE,33263.664932687876,-6319.843986015795,15926.333180228852,11556.589490960776,-187500.02235174447,-187500.02235174447,-187500.02235174447,-187500.02235174447
$SILENCE,33255.618304683965,-6348.364811940767,15984.760640235025,11466.757829994898,-187500.02235174447,-187500.02235174447,-187500.02235174447,-187500.02235174447
$SILENCE,33469.77036831026,-6335.803131556885,16325.244763522716,11419.796814894296,-187500.02235174447,-187500.02235174447,-187500.02235174447,-187500.02235174447
$SILENCE,33446.65866454347,-6367.9449400836165,16259.664745290846,11438.460521514478,-187500.02235174447,-187500.02235174447,-187500.02235174447,-187500.02235174447
$SILENCE,33258.68049367434,-6365.083916793337,15910.463441665584,11504.442871146544,-187500.02235174447,-187500.02235174447,-187500.02235174447,-187500.02235174447
$SILENCE,33227.030423525626,-6352.54458815391,15906.283665452442,11486.27090290438,-187500.02235174447,-187500.02235174447,-187500.02235174447,-187500.02235174447
$SILENCE,33419.389536307994,-6350.287061963923,16272.65110881938,11413.873602613641,-187500.02235174447,-187500.02235174447,-187500.02235174447,-187500.02235174447
$SILENCE,33498.17943551295,-6331.913928021661,16348.021191122674,11462.868626459674,-187500.02235174447,-187500.02235174447,-187500.02235174447,-187500.02235174447
$SILENCE,33332.55300909913,-6317.653515059175,16046.74202760959,11547.33586875628,-187500.02235174447,-187500.02235174447,-187500.02235174447,-187500.02235174447
$SILENCE,33227.96919679275,-6340.608756614775,15939.766578646491,11516.579868385777,-187500.02235174447,-187500.02235174447,-187500.02235174447,-187500.02235174447
$SILENCE,33392.142759816976,-6347.82837007384,16215.92238139181,11422.769596906854,-187500.02235174447,-187500.02235174447,-187500.02235174447,-187500.02235174447
$SILENCE,33484.00842952829,-6346.308451450879,16318.315722741572,11431.531480733334,-187500.02235174447,-187500.02235174447,-187500.02235174447,-187500.02235174447
$SILENCE,33366.10297752655,-6320.447483116089,16062.902338850778,11524.358275456223,-187500.02235174447,-187500.02235174447,-187500.02235174447,-187500.02235174447
$SILENCE,33208.12084771643,-6345.749657839497,15846.291583334398,11503.32528392378,-187500.02235174447,-187500.02235174447,-187500.02235174447,-187500.02235174447
$SILENCE,33330.38488988696,-6377.757355899496,16138.585345576448,11404.754090875876,-187500.02235174447,-187500.02235174447,-187500.02235174447,-187500.02235174447
$SILENCE,33496.01131630079,-6348.878902063239,16415.210534955328,11436.225347068948,-187500.02235174447,-187500.02235174447,-187500.02235174447,-187500.02235174447
$SILENCE,33414.20393159437,-6312.512613834455,16206.06526208702,11539.33394424128,-187500.02235174447,-187500.02235174447,-187500.02235174447,-187500.02235174447
$SILENCE,33228.86326657096,-6310.769177766941,15839.071969875333,11541.010325075427,-187500.02235174447,-187500.02235174447,-187500.02235174447,-187500.02235174447
$SILENCE,33330.56370384261,-6332.048038488393,16073.362955255861,11446.462446029478,-187500.02235174447,-187500.02235174447,-187500.02235174447,-187500.02235174447
$SILENCE,33435.25927487126,-6395.7728619304735,16303.317702212062,11376.322671928725,-187500.02235174447,-187500.02235174447,-187500.02235174447,-187500.02235174447
$SILENCE,33385.19136729138,-6375.410422731688,16153.00222075012,11458.197111868514,-187500.02235174447,-187500.02235174447,-187500.02235174447,-187500.02235174447
$SILENCE,33223.07416475703,-6342.173378726648,15863.994164943,11524.671199878598,-187500.02235174447,-187500.02235174447,-187500.02235174447,-187500.02235174447
$SILENCE,33279.46761601778,-6345.548492139398,16031.8334140579,11456.520731034367,-187500.02235174447,-187500.02235174447,-187500.02235174447,-187500.02235174447
$SILENCE,33479.67219110396,-6350.175303241647,16366.483732042758,11427.441111498012,-187500.02235174447,-187500.02235174447,-187500.02235174447,-187500.02235174447
$SILENCE,33450.793737267704,-6331.131616965726,16257.966012712242,11483.208713914004,-187500.02235174447,-187500.02235174447,-187500.02235174447,-187500.02235174447
$SILENCE,33277.97004913927,-6314.233698157514,15927.361360473797,11557.215339805525,-187500.02235174447,-187500.02235174447,-187500.02235174447,-187500.02235174447
$SILENCE,33278.37238053946,-6318.949916237583,15997.992872952567,11501.313626922802,-187500.02235174447,-187500.02235174447,-187500.02235174447,-187500.02235174447
$SILENCE,33452.80539426868,-6353.617471887765,16345.540147488136,11421.763768406365,-187500.02235174447,-187500.02235174447,-187500.02235174447,-187500.02235174447
$SILENCE,33477.41466491397,-6344.810884572374,16312.504269183191,11467.540141050833,-187500.02235174447,-187500.02235174447,-187500.02235174447,-187500.02235174447
$SILENCE,33254.34425525001,-6361.507637680488,15902.57327587286,11496.172725698081,-187500.02235174447,-187500.02235174447,-187500.02235174447,-187500.02235174447
$SILENCE,33220.81663856705,-6361.708803380586,15890.212761189076,11473.195132398027,-187500.02235174447,-187500.02235174447,-187500.02235174447,-187500.02235174447
$SILENCE,33438.94731270639,-6338.239471702514,16291.359518928472,11437.745265691909,-187500.02235174447,-187500.02235174447,-187500.02235174447,-187500.02235174447
$SILENCE,33495.877205834055,-6332.092741977303,16342.276792797662,11462.689812504032,-187500.02235174447,-187500.02235174447,-187500.02235174447,-187500.02235174447
$SILENCE,33312.43643908935,-6335.579614112332,15994.59540779536,11511.327208438779,-187500.02235174447,-187500.02235174447,-187500.02235174447,-187500.02235174447
$SILENCE,33205.77391454863,-6355.495018422011,15856.506330550472,11488.863705261196,-187500.02235174447,-187500.02235174447,-187500.02235174447,-187500.02235174447
$SILENCE,33385.03490508019,-6371.476515707554,16211.653198200847,11417.44988172649,-187500.02235174447,-187500.02235174447,-187500.02235174447,-187500.02235174447
$SILENCE,33508.751810640315,-6347.291928206912,16387.784944508665,11452.78798971033,-187500.02235174447,-187500.02235174447,-187500.02235174447,-187500.02235174447
$SILENCE,33371.69091364037,-6321.63212557222,16090.864371164367,11538.395170974156,-187500.02235174447,-187500.02235174447,-187500.02235174447,-187500.02235174447
$SILENCE,33228.23741772621,-6324.8060732848735,15856.28281310592,11527.778092357887,-187500.02235174447,-187500.02235174447,-187500.02235174447,-187500.02235174447
$SILENCE,33384.29729751316,-6316.357113880767,16172.738811104156,11457.325393834757,-187500.02235174447,-187500.02235174447,-187500.02235174447,-187500.02235174447
$SILENCE,33529.87420915058,-6320.469834860544,16387.226150897284,11446.350687307202,-187500.02235174447,-187500.02235174447,-187500.02235174447,-187500.02235174447
$SILENCE,33336.97865450128,-6396.666931708686,16084.382365272328,11447.35651580769,-187500.02235174447,-187500.02235174447,-187500.02235174447,-187500.02235174447
$SILENCE,33186.104379427954,-6366.648538905209,15809.232391027499,11501.738310067452,-187500.02235174447,-187500.02235174447,-187500.02235174447,-187500.02235174447
$SILENCE,33300.36649708349,-6368.481381950543,16061.13655103881,11428.558698720777,-187500.02235174447,-187500.02235174447,-187500.02235174447,-187500.02235174447
$SILENCE,33487.74117085233,-6352.254015475991,16354.838473181544,11419.93092536103,-187500.02235174447,-187500.02235174447,-187500.02235174447,-187500.02235174447
$SILENCE,33432.35354809208,-6328.7399803090075,16193.905913103334,11503.28058043487,-187500.02235174447,-187500.02235174447,-187500.02235174447,-187500.02235174447
$SILENCE,33257.31703726257,-6320.425131371633,15903.24382820652,11555.4272002491,-187500.02235174447,-187500.02235174447,-187500.02235174447,-187500.02235174447
$SILENCE,33308.323718109576,-6327.935317508616,16051.435893945205,11480.794725512831,-187500.02235174447,-187500.02235174447,-187500.02235174447,-187500.02235174447
$SILENCE,33494.066714533175,-6346.800189828896,16350.099903357019,11427.955201620485,-187500.02235174447,-187500.02235174447,-187500.02235174447,-187500.02235174447
$SILENCE,33468.22809794284,-6334.5514338673875,16250.478178319716,11484.84039125924,-187500.02235174447,-187500.02235174447,-187500.02235174447,-187500.02235174447
$SILENCE,33280.83107242955,-6304.5553928083655,15919.650008636716,11553.683764181587,-187500.02235174447,-187500.02235174447,-187500.02235174447,-187500.02235174447
$SILENCE,33235.23351374072,-6360.300643479901,15926.15436627321,11450.12813212015,-187500.02235174447,-187500.02235174447,-187500.02235174447,-187500.02235174447
$SILENCE,33434.70048125988,-6375.946864598616,16282.552931613081,11397.914457072551,-187500.02235174447,-187500.02235174447,-187500.02235174447,-187500.02235174447
$SILENCE,33504.39322047153,-6308.712817277053,16328.351656002005,11495.569228597788,-187500.02235174447,-187500.02235174447,-187500.02235174447,-187500.02235174447
$SILENCE,33319.07490719258,-6312.266744645446,15997.12115491881,11558.914072384128,-187500.02235174447,-187500.02235174447,-187500.02235174447,-187500.02235174447
$SILENCE,33204.87984477042,-6380.193696045125,15871.504351079984,11459.69467874702,-187500.02235174447,-187500.02235174447,-187500.02235174447,-187500.02235174447
$SILENCE,33414.22628333882,-6378.204390788602,16235.860137445945,11394.449936681978,-187500.02235174447,-187500.02235174447,-187500.02235174447,-187500.02235174447
$SILENCE,33488.99286854182,-6351.516407908965,16316.460527951782,11446.12716986265,-187500.02235174447,-187500.02235174447,-187500.02235174447,-187500.02235174447
$SILENCE,33335.70460506733,-6326.437750630111,15996.562361307428,11529.432121447579,-187500.02235174447,-187500.02235174447,-187500.02235174447,-187500.02235174447
$SILENCE,33252.77963313814,-6308.042264943393,15890.1010024668,11529.387417958667,-187500.02235174447,-187500.02235174447,-187500.02235174447,-187500.02235174447
$SILENCE,33403.51979774473,-6342.01691651546,16215.408291269337,11426.412931253068,-187500.02235174447,-187500.02235174447,-187500.02235174447,-187500.02235174447
$SILENCE,33507.12013329508,-6346.4649136620665,16353.296202814128,11440.427475026545,-187500.02235174447,-187500.02235174447,-187500.02235174447,-187500.02235174447
$SILENCE,33362.9737333028,-6343.581538627332,16067.350335997384,11512.221278216992,-187500.02235174447,-187500.02235174447,-187500.02235174447,-187500.02235174447
$SILENCE,33212.21121695176,-6352.164608498169,15853.466493304551,11508.019150259393,-187500.02235174447,-187500.02235174447,-187500.02235174447,-187500.02235174447
$SILENCE,33358.61514313402,-6357.484323678533,16151.683467827257,11424.915364374563,-187500.02235174447,-187500.02235174447,-187500.02235174447,-187500.02235174447
$SILENCE,33510.6070054301,-6338.619451358253,16385.795639252145,11441.16508259357,-187500.02235174447,-187500.02235174447,-187500.02235174447,-187500.02235174447
$SILENCE,33423.03287065421,-6318.257012159469,16166.972061034689,11529.543880169855,-187500.02235174447,-187500.02235174447,-187500.02235174447,-187500.02235174447
$SILENCE,33246.40938596838,-6321.25214591648,15851.834815959313,11540.160958786126,-187500.02235174447,-187500.02235174447,-187500.02235174447,-187500.02235174447
$SILENCE,33332.2177329323,-6344.140332238714,16064.824588873935,11441.187434338026,-187500.02235174447,-187500.02235174447,-187500.02235174447,-187500.02235174447
$SILENCE,33483.76256033928,-6367.54260868342,16334.341923516027,11401.177811763027,-187500.02235174447,-187500.02235174447,-187500.02235174447,-187500.02235174447
$SILENCE,33415.16505660595,-6357.663137634175,16169.229587224674,11467.428382328557,-187500.02235174447,-187500.02235174447,-187500.02235174447,-187500.02235174447
$SILENCE,33247.75049063569,-6334.037343744915,15876.019403459955,11531.689647637564,-187500.02235174447,-187500.02235174447,-187500.02235174447,-187500.02235174447
$SILENCE,33301.64054651744,-6340.8322740593285,16025.083187232398,11465.617891027678,-187500.02235174447,-187500.02235174447,-187500.02235174447,-187500.02235174447
$SILENCE,33488.970516797366,-6344.7661810834625,16340.823929408067,11419.461538727468,-187500.02235174447,-187500.02235174447,-187500.02235174447,-187500.02235174447
$SILENCE,33464.71887406336,-6333.165625711158,16243.236213116195,11481.577036568766,-187500.02235174447,-187500.02235174447,-187500.02235174447,-187500.02235174447
$SILENCE,33294.37622956946,-6310.053921944371,15932.904593098712,11556.18715956058,-187500.02235174447,-187500.02235174447,-187500.02235174447,-187500.02235174447
$SILENCE,33282.954488152805,-6327.376523897234,15982.21254136712,11492.864667518696,-187500.02235174447,-187500.02235174447,-187500.02235174447,-187500.02235174447
$SILENCE,33472.20670845589,-6342.888634549217,16319.343902986517,11419.014503838362,-187500.02235174447,-187500.02235174447,-187500.02235174447,-187500.02235174447
$SILENCE,33448.826783755634,-6376.013919831982,16254.434437088305,11427.865794642663,-187500.02235174447,-187500.02235174447,-187500.02235174447,-187500.02235174447
$SILENCE,33296.097313892526,-6339.334707180823,15935.318581499885,11525.207641745525,-187500.02235174447,-187500.02235174447,-187500.02235174447,-187500.02235174447
$SILENCE,33247.236400513226,-6336.741904824007,15898.035871748432,11487.65671106061,-187500.02235174447,-187500.02235174447,-187500.02235174447,-187500.02235174447
$SILENCE,33441.87539123004,-6337.926547280139,16296.142792241908,11420.132091061127,-187500.02235174447,-187500.02235174447,-187500.02235174447,-187500.02235174447
$SILENCE,33511.92575835297,-6330.72928556553,16374.463304813304,11463.114495648682,-187500.02235174447,-187500.02235174447,-187500.02235174447,-187500.02235174447
$SILENCE,33316.705622280315,-6349.102419507793,15966.767485948503,11510.5672491273,-187500.02235174447,-187500.02235174447,-187500.02235174447,-187500.02235174447
$SILENCE,33225.73402234722,-6330.326954165334,15831.025341871422,11503.593504857243,-187500.02235174447,-187500.02235174447,-187500.02235174447,-187500.02235174447
$SILENCE,33407.56546349114,-6333.858529789273,16197.482192216183,11433.096102845206,-187500.02235174447,-187500.02235174447,-187500.02235174447,-187500.02235174447
$SILENCE,33475.49241489082,-6371.610626174286,16310.872591837955,11409.716178144954,-187500.02235174447,-187500.02235174447,-187500.02235174447,-187500.02235174447
$SILENCE,33354.21184947632,-6348.387163685223,16045.065646775443,11501.559496111811,-187500.02235174447,-187500.02235174447,-187500.02235174447,-187500.02235174447
$SILENCE,33218.31324318805,-6338.373582169245,15838.714341964049,11515.574039885289,-187500.02235174447,-187500.02235174447,-187500.02235174447,-187500.02235174447
$SILENCE,33355.48589891027,-6352.54458815391,16136.9089647423,11429.743341176909,-187500.02235174447,-187500.02235174447,-187500.02235174447,-187500.02235174447
$SILENCE,33502.605080915106,-6350.354117197289,16363.823874452577,11429.698637687998,-187500.02235174447,-187500.02235174447,-187500.02235174447,-187500.02235174447
$SILENCE,33417.802562451674,-6317.362942381256,16150.8117497935,11520.51377540991,-187500.02235174447,-187500.02235174447,-187500.02235174447,-187500.02235174447
$SILENCE,33255.50654596169,-6314.323105135335,15888.469325121561,11550.95685135804,-187500.02235174447,-187500.02235174447,-187500.02235174447,-187500.02235174447
$SILENCE,33318.314947881096,-6366.559131927387,16064.623423173836,11435.487739501923,-187500.02235174447,-187500.02235174447,-187500.02235174447,-187500.02235174447
$SILENCE,33500.012278558286,-6351.87403582025,16334.856013638499,11418.858041627174,-187500.02235174447,-187500.02235174447,-187500.02235174447,-187500.02235174447
$SILENCE,33435.393385338,-6332.718590822053,16167.709668601712,11485.645054059632,-187500.02235174447,-187500.02235174447,-187500.02235174447,-187500.02235174447
$SILENCE,33247.52697319114,-6339.267651947457,15850.717228736548,11524.537089411866,-187500.02235174447,-187500.02235174447,-187500.02235174447,-187500.02235174447
$SILENCE,33329.75904104221,-6313.25022140148,16049.044257288488,11487.857876760707,-187500.02235174447,-187500.02235174447,-187500.02235174447,-187500.02235174447
$SILENCE,33515.50203746582,-6319.329895893324,16360.38170580646,11441.5003587604,-187500.02235174447,-187500.02235174447,-187500.02235174447,-187500.02235174447
$SILENCE,33443.97645520884,-6369.509562195488,16204.232419041684,11445.344858806713,-187500.02235174447,-187500.02235174447,-187500.02235174447,-187500.02235174447
$SILENCE,33256.71354016227,-6365.150972026703,15863.033039931423,11506.298065936335,-187500.02235174447,-187500.02235174447,-187500.02235174447,-187500.02235174447
$SILENCE,33244.50948768968,-6363.362832470279,15921.169927259676,11459.158236880094,-187500.02235174447,-187500.02235174447,-187500.02235174447,-187500.02235174447
$SILENCE,33455.57701058114,-6361.887617336228,16279.468390878248,11402.563619919256,-187500.02235174447,-187500.02235174447,-187500.02235174447,-187500.02235174447
$SILENCE,33486.467121418376,-6342.77687582694,16270.46063786276,11461.706335747998,-187500.02235174447,-187500.02235174447,-187500.02235174447,-187500.02235174447
$SILENCE,33317.93496822536,-6319.776930782429,15945.82390139388,11545.860653622229,-187500.02235174447,-187500.02235174447,-187500.02235174447,-187500.02235174447
$SILENCE,33267.420025756364,-6330.438712887611,15907.714177097581,11497.714996065497,-187500.02235174447,-187500.02235174447,-187500.02235174447,-187500.02235174447
$SILENCE,33457.18633618192,-6342.888634549217,16273.567530342047,11423.954239362984,-187500.02235174447,-187500.02235174447,-187500.02235174447,-187500.02235174447
$SILENCE,33553.768223973304,-6308.332837621312,16403.699386560846,11488.193152927537,-187500.02235174447,-187500.02235174447,-187500.02235174447,-187500.02235174447
$SILENCE,33361.02913153519,-6309.785701010907,16045.9373648092,11546.28533676688,-187500.02235174447,-187500.02235174447,-187500.02235174447,-187500.02235174447
$SILENCE,33188.45131259577,-6373.823448875362,15781.002137780446,11463.136847393138,-187500.02235174447,-187500.02235174447,-187500.02235174447,-187500.02235174447
$SILENCE,33366.17003275991,-6387.279199037457,16121.910944212788,11378.624901607622,-187500.02235174447,-187500.02235174447,-187500.02235174447,-187500.02235174447
$SILENCE,33497.285365734744,-6366.335614482834,16298.065042265063,11411.63842816811,-187500.02235174447,-187500.02235174447,-187500.02235174447,-187500.02235174447
$SILENCE,33380.609259678036,-6332.852701288784,16043.009286285554,11508.71205433751,-187500.02235174447,-187500.02235174447,-187500.02235174447,-187500.02235174447
$SILENCE,33243.05662430008,-6320.559241838365,15845.08458913381,11521.050217276837,-187500.02235174447,-187500.02235174447,-187500.02235174447,-187500.02235174447
$SILENCE,33376.38477997599,-6343.514483393966,16131.164566417287,11426.16706206406,-187500.02235174447,-187500.02235174447,-187500.02235174447,-187500.02235174447
$SILENCE,33512.2610345198,-6353.572768398853,16340.198080563317,11420.467367227957,-187500.02235174447,-187500.02235174447,-187500.02235174447,-187500.02235174447
$SILENCE,33420.35066131958,-6322.190919183603,16115.920676698766,11507.929743281573,-187500.02235174447,-187500.02235174447,-187500.02235174447,-187500.02235174447
$SILENCE,33288.02833414416,-6280.326101818812,15871.325537124341,11566.133685843193,-187500.02235174447,-187500.02235174447,-187500.02235174447,-187500.02235174447
$SILENCE,33341.381948158974,-6338.686506591619,16064.93634759621,11442.886166916629,-187500.02235174447,-187500.02235174447,-187500.02235174447,-187500.02235174447
$SILENCE,33482.48851090533,-6381.288931523434,16322.115519298974,11386.246846466882,-187500.02235174447,-187500.02235174447,-187500.02235174447,-187500.02235174447
$SILENCE,33418.69663222988,-6352.365774198267,16168.424924424282,11464.455600316001,-187500.02235174447,-187500.02235174447,-187500.02235174447,-187500.02235174447
$SILENCE,33249.181002280835,-6335.892538534706,15849.309068835864,11524.738255111964,-187500.02235174447,-187500.02235174447,-187500.02235174447,-187500.02235174447
$SILENCE,33297.37136332648,-6348.141294496214,15976.199922108643,11455.850178700708,-187500.02235174447,-187500.02235174447,-187500.02235174447,-187500.02235174447
$SILENCE,33495.56428141169,-6346.979003784538,16316.728748885245,11416.131128803627,-187500.02235174447,-187500.02235174447,-187500.02235174447,-187500.02235174447
$SILENCE,33461.88020251754,-6349.594157885809,16224.237230329185,11456.900710690106,-187500.02235174447,-187500.02235174447,-187500.02235174447,-187500.02235174447
$SILENCE,33281.94865965231,-6326.437750630111,15889.09517396631,11538.015191318416,-187500.02235174447,-187500.02235174447,-187500.02235174447,-187500.02235174447
$SILENCE,33262.25677278719,-6354.511541665976,15920.678188881659,11470.423516085568,-187500.02235174447,-187500.02235174447,-187500.02235174447,-187500.02235174447
$SILENCE,33446.256333143276,-6369.286044750935,16258.345992367984,11387.677358112021,-187500.02235174447,-187500.02235174447,-187500.02235174447,-187500.02235174447
$SILENCE,33481.99677252731,-6348.498922407499,16267.063172705553,11446.641259985121,-187500.02235174447,-187500.02235174447,-187500.02235174447,-187500.02235174447
$SILENCE,33327.65797706342,-6323.286154661912,15966.834541181868,11538.171653529604,-187500.02235174447,-187500.02235174447,-187500.02235174447,-187500.02235174447
$SILENCE,33281.054589874104,-6303.840136985796,15924.075654038867,11518.099787008738,-187500.02235174447,-187500.02235174447,-187500.02235174447,-187500.02235174447
$SILENCE,33462.818975784656,-6318.636991815209,16263.464541848249,11439.466350014967,-187500.02235174447,-187500.02235174447,-187500.02235174447,-187500.02235174447
$SILENCE,33455.48760360332,-6394.767033429985,16251.126378908919,11395.455765182467,-187500.02235174447,-187500.02235174447,-187500.02235174447,-187500.02235174447
$SILENCE,33308.97191869878,-6371.1188877962695,15942.001753092021,11477.196094655526,-187500.02235174447,-187500.02235174447,-187500.02235174447,-187500.02235174447
$SILENCE,33228.66210087086,-6345.25791946148,15831.60648722726,11491.009472728905,-187500.02235174447,-187500.02235174447,-187500.02235174447,-187500.02235174447
$SILENCE,33397.171902319424,-6348.275404962946,16189.077936300986,11423.507204473879,-187500.02235174447,-187500.02235174447,-187500.02235174447,-187500.02235174447
$SILENCE,33509.82469437417,-6350.264710219469,16338.074664840064,11431.106797588684,-187500.02235174447,-187500.02235174447,-187500.02235174447,-187500.02235174447
$SILENCE,33404.235053567296,-6320.134558693714,16091.892551409312,11528.716865625009,-187500.02235174447,-187500.02235174447,-187500.02235174447,-187500.02235174447
$SILENCE,33256.73589190673,-6323.017933728449,15866.341098110808,11531.443778448556,-187500.02235174447,-187500.02235174447,-187500.02235174447,-187500.02235174447
$SILENCE,33381.95036434536,-6325.029590729427,16135.411397863794,11443.288498316824,-187500.02235174447,-187500.02235174447,-187500.02235174447,-187500.02235174447
$SILENCE,33477.571127125164,-6375.633940176242,16293.326472440538,11389.264331968348,-187500.02235174447,-187500.02235174447,-187500.02235174447,-187500.02235174447
$SILENCE,33397.171902319424,-6354.489189921522,16083.309481538474,11473.105725420204,-187500.02235174447,-187500.02235174447,-187500.02235174447,-187500.02235174447
$SILENCE,33228.416231681855,-6347.023707273449,15799.777603122904,11505.046368246838,-187500.02235174447,-187500.02235174447,-187500.02235174447,-187500.02235174447
$SILENCE,33318.046726947636,-6359.4959806795105,16030.469957646128,11422.702541673487,-187500.02235174447,-187500.02235174447,-187500.02235174447,-187500.02235174447
$SILENCE,33499.98992681383,-6353.617471887765,16335.168938060873,11409.358550233668,-187500.02235174447,-187500.02235174447,-187500.02235174447,-187500.02235174447
$SILENCE,33437.62855978353,-6339.4464659031,16180.740735619156,11482.493458091434,-187500.02235174447,-187500.02235174447,-187500.02235174447,-187500.02235174447
$SILENCE,33265.2519065442,-6325.677791318631,15878.0981156943,11540.987973330972,-187500.02235174447,-187500.02235174447,-187500.02235174447,-187500.02235174447
$SILENCE,33276.092502605024,-6354.176265499147,15962.833578924368,11441.276841315848,-187500.02235174447,-187500.02235174447,-187500.02235174447,-187500.02235174447
$SILENCE,33468.138690965025,-6355.0926870218145,16281.927082768332,11395.276951226826,-187500.02235174447,-187500.02235174447,-187500.02235174447,-187500.02235174447
$SILENCE,33487.18237724094,-6329.388180898211,16239.235250858696,11485.309777892802,-187500.02235174447,-187500.02235174447,-187500.02235174447,-187500.02235174447
$SILENCE,33315.364517613,-6317.809977270363,15933.798662876925,11553.683764181587,-187500.02235174447,-187500.02235174447,-187500.02235174447,-187500.02235174447
$SILENCE,33241.827278355035,-6377.489134966032,15903.690863095626,11439.73457094843,-187500.02235174447,-187500.02235174447,-187500.02235174447,-187500.02235174447
$SILENCE,33433.582894037114,-6384.284065280445,16250.902861464367,11379.161343474549,-187500.02235174447,-187500.02235174447,-187500.02235174447,-187500.02235174447
$SILENCE,33473.01137125628,-6357.439620189622,16246.544271295581,11439.779274437342,-187500.02235174447,-187500.02235174447,-187500.02235174447,-187500.02235174447
$SILENCE,33307.18377914235,-6334.439675145111,15918.264200480486,11522.346618455245,-187500.02235174447,-187500.02235174447,-187500.02235174447,-187500.02235174447
$SILENCE,33238.00513005318,-6343.782704327429,15868.643327789705,11485.913274993096,-187500.02235174447,-187500.02235174447,-187500.02235174447,-187500.02235174447
$SILENCE,33430.11837364655,-6351.047021275404,16248.533576552103,11418.008675337873,-187500.02235174447,-187500.02235174447,-187500.02235174447,-187500.02235174447
$SILENCE,33528.10842133861,-6312.512613834455,16331.547955459113,11469.21652188498,-187500.02235174447,-187500.02235174447,-187500.02235174447,-187500.02235174447
$SILENCE,33361.49851816875,-6308.623410299231,15996.942340963167,11536.942307584563,-187500.02235174447,-187500.02235174447,-187500.02235174447,-187500.02235174447
$SILENCE,33196.3861818774,-6381.8030216459065,15801.498687445963,11461.393411325624,-187500.02235174447,-187500.02235174447,-187500.02235174447,-187500.02235174447
$SILENCE,33380.65396316695,-6367.564960427876,16159.05954349751,11397.892105328096,-187500.02235174447,-187500.02235174447,-187500.02235174447,-187500.02235174447
$SILENCE,33514.11622930959,-6339.267651947457,16353.8102929366,11438.728742447942,-187500.02235174447,-187500.02235174447,-187500.02235174447,-187500.02235174447
$SILENCE,33373.14377702997,-6340.362887425767,16093.457173521183,11515.261115462914,-187500.02235174447,-187500.02235174447,-187500.02235174447,-187500.02235174447
$SILENCE,33216.50275188717,-6351.427000931144,15805.879629359202,11504.42051940209,-187500.02235174447,-187500.02235174447,-187500.02235174447,-187500.02235174447
$SILENCE,33321.10891593801,-6379.16551580018,16043.545728152481,11390.292512213293,-187500.02235174447,-187500.02235174447,-187500.02235174447,-187500.02235174447
$SILENCE,33482.71202834988,-6363.921626081661,16298.623835876446,11394.561695404256,-187500.02235174447,-187500.02235174447,-187500.02235174447,-187500.02235174447
$SILENCE,33390.242861538274,-6351.6281666312425,16088.271568807551,11479.364213867691,-187500.02235174447,-187500.02235174447,-187500.02235174447,-187500.02235174447
$SILENCE,33229.95850204927,-6343.268614204957,15820.788242910892,11518.904449809128,-187500.02235174447,-187500.02235174447,-187500.02235174447,-187500.02235174447
$SILENCE,33333.44707887734,-6343.693297349608,16061.203606272175,11446.12716986265,-187500.02235174447,-187500.02235174447,-187500.02235174447,-187500.02235174447
$SILENCE,33506.87426410607,-6330.818692543351,16339.773397418667,11418.142785804605,-187500.02235174447,-187500.02235174447,-187500.02235174447,-187500.02235174447
$SILENCE,33418.71898397434,-6349.616509630265,16164.96040403371,11463.27095785987,-187500.02235174447,-187500.02235174447,-187500.02235174447,-187500.02235174447
$SILENCE,33225.17522873583,-6363.988681315027,15824.632742957205,11500.553667611322,-187500.02235174447,-187500.02235174447,-187500.02235174447,-187500.02235174447
$SILENCE,33266.25773504469,-6374.717518653574,15948.05907583941,11426.614096953166,-187500.02235174447,-187500.02235174447,-187500.02235174447,-187500.02235174447
$SILENCE,33466.462310130875,-6366.469724949566,16295.248722463695,11394.941675059996,-187500.02235174447,-187500.02235174447,-187500.02235174447,-187500.02235174447
$SILENCE,33463.26601067377,-6339.222948458547,16253.719181265735,11472.79280099783,-187500.02235174447,-187500.02235174447,-187500.02235174447,-187500.02235174447
$SILENCE,33277.74653169471,-6327.197709941592,15891.889142023223,11532.04727554885,-187500.02235174447,-187500.02235174447,-187500.02235174447,-187500.02235174447
$SILENCE,33229.19854273779,-6364.703937137597,15878.388688372219,11444.495492517412,-187500.02235174447,-187500.02235174447,-187500.02235174447,-187500.02235174447
$SILENCE,33432.487658558806,-6367.319091238867,16246.92425095132,11390.448974424478,-187500.02235174447,-187500.02235174447,-187500.02235174447,-187500.02235174447
$SILENCE,33486.84710107411,-6337.233643202025,16278.999004244686,11459.180588624547,-187500.02235174447,-187500.02235174447,-187500.02235174447,-187500.02235174447
$SILENCE,33308.50253206522,-6331.10926522127,15938.336067001352,11527.018133046406,-187500.02235174447,-187500.02235174447,-187500.02235174447,-187500.02235174447
$SILENCE,33223.5435513906,-6361.68645163613,15853.108865393266,11462.958033437495,-187500.02235174447,-187500.02235174447,-187500.02235174447,-187500.02235174447
$SILENCE,33409.91239665895,-6360.568864413365,16220.392730282872,11401.133108274116,-187500.02235174447,-187500.02235174447,-187500.02235174447,-187500.02235174447
$SILENCE,33472.96666776737,-6358.825428345851,16314.627684906447,11427.30700103128,-187500.02235174447,-187500.02235174447,-187500.02235174447,-187500.02235174447
$SILENCE,33344.108860982524,-6311.48443358951,16024.993780254577,11533.813063360818,-187500.02235174447,-187500.02235174447,-187500.02235174447,-187500.02235174447
$SILENCE,33201.68354531331,-6359.317166723868,15804.896152603169,11481.241760401936,-187500.02235174447,-187500.02235174447,-187500.02235174447,-187500.02235174447
$SILENCE,33344.466488893806,-6395.258771808001,16113.506688297593,11372.209950948949,-187500.02235174447,-187500.02235174447,-187500.02235174447,-187500.02235174447
$SILENCE,33481.974420782855,-6369.420155217666,16304.770565601655,11407.190431021505,-187500.02235174447,-187500.02235174447,-187500.02235174447,-187500.02235174447
$SILENCE,33383.31382075713,-6328.695276820097,16089.165638585764,11516.579868385777,-187500.02235174447,-187500.02235174447,-187500.02235174447,-187500.02235174447
$SILENCE,33216.68156584282,-6350.912910808673,15853.064161904356,11503.99583625744,-187500.02235174447,-187500.02235174447,-187500.02235174447,-187500.02235174447
$SILENCE,33315.85625599101,-6375.611588431787,16061.985917328111,11394.673454126532,-187500.02235174447,-187500.02235174447,-187500.02235174447,-187500.02235174447
$SILENCE,33498.62647040206,-6340.452294403589,16318.069853552564,11418.411006738068,-187500.02235174447,-187500.02235174447,-187500.02235174447,-187500.02235174447
$SILENCE,33409.17478909192,-6329.231718687024,16122.00035119061,11497.670292576588,-187500.02235174447,-187500.02235174447,-187500.02235174447,-187500.02235174447
$SILENCE,33196.69910629977,-6380.841896634329,15804.046786313867,11481.040594701839,-187500.02235174447,-187500.02235174447,-187500.02235174447,-187500.02235174447
$SILENCE,33309.35189835452,-6358.758373112485,16072.111257566365,11440.807454682286,-187500.02235174447,-187500.02235174447,-187500.02235174447,-187500.02235174447
$SILENCE,33461.835499028624,-6376.259789020991,16288.900827038387,11390.940712802496,-187500.02235174447,-187500.02235174447,-187500.02235174447,-187500.02235174447
$SILENCE,33410.51589375924,-6356.92553006715,16114.490165053627,11451.201015854003,-187500.02235174447,-187500.02235174447,-187500.02235174447,-187500.02235174447
$SILENCE,33225.398746180384,-6357.68548937863,15804.851449114258,11497.80440304332,-187500.02235174447,-187500.02235174447,-187500.02235174447,-187500.02235174447
$SILENCE,33270.59397346902,-6363.2510737480015,15951.657706696715,11432.693771445009,-187500.02235174447,-187500.02235174447,-187500.02235174447,-187500.02235174447
não,33458.19216468241,-6365.419192960167,16290.308986939071,11395.746337860386,-187500.02235174447,-187500.02235174447,-187500.02235174447,-187500.02235174447
não,33443.1941441529,-6349.191826485614,16219.342198293472,11460.499341547411,-187500.02235174447,-187500.02235174447,-187500.02235174447,-187500.02235174447
não,33292.83395920205,-6302.297866618379,15914.464403923084,11555.717772927019,-187500.02235174447,-187500.02235174447,-187500.02235174447,-187500.02235174447
não,33253.87486861645,-6342.77687582694,15916.587819646338,11474.022146942872,-187500.02235174447,-187500.02235174447,-187500.02235174447,-187500.02235174447
não,33395.04848659617,-6403.126585856269,16217.598762225958,11359.447104864968,-187500.02235174447,-187500.02235174447,-187500.02235174447,-187500.02235174447
não,33454.928809991936,-6362.848742347806,16246.879547462411,11427.93284987603,-187500.02235174447,-187500.02235174447,-187500.02235174447,-187500.02235174447
não,33294.331526080554,-6343.536835138421,15924.455633694606,11513.316513695301,-187500.02235174447,-187500.02235174447,-187500.02235174447,-187500.02235174447
não,33224.571731635544,-6353.662175376675,15856.79690322839,11477.55372256681,-187500.02235174447,-187500.02235174447,-187500.02235174447,-187500.02235174447
não,33411.47701877082,-6361.351175469301,16219.968047138222,11402.697730385988,-187500.02235174447,-187500.02235174447,-187500.02235174447,-187500.02235174447
não,33490.42338018696,-6351.6281666312425,16305.686987124323,11435.5994982242,-187500.02235174447,-187500.02235174447,-187500.02235174447,-187500.02235174447
não,33368.53931767217,-6292.351340335767,16030.805233812956,11552.297956025357,-187500.02235174447,-187500.02235174447,-187500.02235174447,-187500.02235174447
não,33224.772897335635,-6334.059695489371,15847.722094979537,11501.157164711614,-187500.02235174447,-187500.02235174447,-187500.02235174447,-187500.02235174447
não,33316.34799436903,-6410.45795803761,16090.305577552985,11356.273157152315,-187500.02235174447,-187500.02235174447,-187500.02235174447,-187500.02235174447
não,33454.48177510283,-6378.562018699887,16264.246852904183,11393.377052948124,-187500.02235174447,-187500.02235174447,-187500.02235174447,-187500.02235174447
não,33342.566590615104,-6345.772009583951,16018.936457507189,11490.160106439604,-187500.02235174447,-187500.02235174447,-187500.02235174447,-187500.02235174447
não,33208.701993072274,-6337.077180990837,15807.019568326423,11509.628475860176,-187500.02235174447,-187500.02235174447,-187500.02235174447,-187500.02235174447
não,33353.18366923138,-6341.145198481703,16103.403699803794,11421.987285850917,-187500.02235174447,-187500.02235174447,-187500.02235174447,-187500.02235174447
não,33476.36413292457,-6351.1587799976805,16326.004722834197,11398.696768128488,-187500.02235174447,-187500.02235174447,-187500.02235174447,-187500.02235174447
não,33373.76962587472,-6349.549454396899,16114.020778420065,11475.027975443361,-187500.02235174447,-187500.02235174447,-187500.02235174447,-187500.02235174447
não,33229.466763671255,-6322.637954072708,15862.183673642121,11533.589545916266,-187500.02235174447,-187500.02235174447,-187500.02235174447,-187500.02235174447
não,33288.69888647782,-6369.598969173309,16026.670161088725,11411.929000846028,-187500.02235174447,-187500.02235174447,-187500.02235174447,-187500.02235174447
não,33434.52166730424,-6386.854515892806,16252.64629753188,11357.39074437508,-187500.02235174447,-187500.02235174447,-187500.02235174447,-187500.02235174447
não,33394.66850694043,-6353.393954443211,16119.80988023399,11445.903652418096,-187500.02235174447,-187500.02235174447,-187500.02235174447,-187500.02235174447
não,33228.99737703769,-6335.132579223226,15812.540449206883,11509.270847948892,-187500.02235174447,-187500.02235174447,-187500.02235174447,-187500.02235174447
não,33265.72129317776,-6343.402724671689,15952.48472124156,11446.171873351559,-187500.02235174447,-187500.02235174447,-187500.02235174447,-187500.02235174447
não,33482.91319404998,-6321.162738938659,16313.51009768368,11426.16706206406,-187500.02235174447,-187500.02235174447,-187500.02235174447,-187500.02235174447
não,33427.99495792329,-6369.129582539747,16183.087668786964,11430.525652232845,-187500.02235174447,-187500.02235174447,-187500.02235174447,-187500.02235174447
não,33238.4968684312,-6358.914835323672,15843.162339110655,11500.017225744394,-187500.02235174447,-187500.02235174447,-187500.02235174447,-187500.02235174447
não,33229.98085379373,-6346.040230517416,15899.064051993377,11465.170856138571,-187500.02235174447,-187500.02235174447,-187500.02235174447,-187500.02235174447
não,33427.100888145076,-6350.823503830851,16255.26145163315,11405.06701529825,-187500.02235174447,-187500.02235174447,-187500.02235174447,-187500.02235174447
não,33447.5974378106,-6355.11503876627,16227.612343741936,11431.822053411253,-187500.02235174447,-187500.02235174447,-187500.02235174447,-187500.02235174447
não,33270.81749091357,-6345.012050272471,15889.989243744523,11507.32624618128,-187500.02235174447,-187500.02235174447,-187500.02235174447,-187500.02235174447
não,33202.35409764697,-6353.237492232024,15832.969943639035,11473.329242864758,-187500.02235174447,-187500.02235174447,-187500.02235174447,-187500.02235174447
não,33398.133027331,-6361.5523411693985,16194.129430547886,11395.276951226826,-187500.02235174447,-187500.02235174447,-187500.02235174447,-187500.02235174447
não,33480.74507483782,-6344.408553172178,16281.725917068234,11426.681152186531,-187500.02235174447,-187500.02235174447,-187500.02235174447,-187500.02235174447
não,33330.16137244241,-6319.4416546156,15979.038593654466,11514.970542784995,-187500.02235174447,-187500.02235174447,-187500.02235174447,-187500.02235174447
não,33214.66990884184,-6321.609773827765,15812.98748409599,11499.927818766573,-187500.02235174447,-187500.02235174447,-187500.02235174447,-187500.02235174447
não,33342.90186678194,-6378.07028032187,16132.438615851239,11384.793983077287,-187500.02235174447,-187500.02235174447,-187500.02235174447,-187500.02235174447
não,33480.54390913772,-6363.474591192555,16340.399246263416,11420.333256761225,-187500.02235174447,-187500.02235174447,-187500.02235174447,-187500.02235174447
não,33328.30617765262,-6354.533893410432,15985.945282691157,11474.960920209995,-187500.02235174447,-187500.02235174447,-187500.02235174447,-187500.02235174447
não,33179.80118749156,-6350.935262553127,15747.094541441744,11481.331167379758,-187500.02235174447,-187500.02235174447,-187500.02235174447,-187500.02235174447
não,33326.853314263026,-6353.952748054594,16058.834321359913,11413.672436913543,-187500.02235174447,-187500.02235174447,-187500.02235174447,-187500.02235174447
não,33501.01810705878,-6328.0917797198035,16319.7015308978,11427.374056264647,-187500.02235174447,-187500.02235174447,-187500.02235174447,-187500.02235174447
não,33366.59471590456,-6360.278291735446,16075.620481445847,11465.75200149441,-187500.02235174447,-187500.02235174447,-187500.02235174447,-187500.02235174447
não,33206.01978373763,-6350.890559064217,15826.554992980362,11512.221278216992,-187500.02235174447,-187500.02235174447,-187500.02235174447,-187500.02235174447
não,33261.80973789808,-6389.246152549524,15980.849084955345,11401.647198396588,-187500.02235174447,-187500.02235174447,-187500.02235174447,-187500.02235174447
não,33438.075594672635,-6385.066376336382,16240.889279948387,11371.449991637468,-187500.02235174447,-187500.02235174447,-187500.02235174447,-187500.02235174447
não,33409.554768747665,-6339.2453002030015,16124.302580869507,11458.778257224352,-187500.02235174447,-187500.02235174447,-187500.02235174447,-187500.02235174447
não,33249.89625810341,-6304.041302685893,15844.503443777972,11541.90439485364,-187500.02235174447,-187500.02235174447,-187500.02235174447,-187500.02235174447
não,33232.596007894994,-6366.939111583128,15946.226232794075,11440.807454682286,-187500.02235174447,-187500.02235174447,-187500.02235174447,-187500.02235174447
não,33410.09121061459,-6381.557152456899,16255.64143128889,11379.787192319298,-187500.02235174447,-187500.02235174447,-187500.02235174447,-187500.02235174447
não,33413.37691704952,-6360.412402202178,16162.993450521642,11435.331277290736,-187500.02235174447,-187500.02235174447,-187500.02235174447,-187500.02235174447
não,33279.10998810649,-6316.602983069776,15866.408153344173,11531.644944148653,-187500.02235174447,-187500.02235174447,-187500.02235174447,-187500.02235174447
não,33229.466763671255,-6352.63399513173,15886.591778587315,11459.940547936028,-187500.02235174447,-187500.02235174447,-187500.02235174447,-187500.02235174447
não,33350.41205291892,-6426.0594756674145,16161.160607476308,11338.324706354702,-187500.02235174447,-187500.02235174447,-187500.02235174447,-187500.02235174447
não,33420.238902597295,-6375.321015753868,16201.39374749586,11417.36047474867,-187500.02235174447,-187500.02235174447,-187500.02235174447,-187500.02235174447
não,33279.48996776223,-6335.0208205009485,15913.86090682279,11522.011342288417,-187500.02235174447,-187500.02235174447,-187500.02235174447,-187500.02235174447
não,33203.42698138082,-6348.9906607855155,15837.775568696925,11482.5605133248,-187500.02235174447,-187500.02235174447,-187500.02235174447,-187500.02235174447
não,33363.97956180329,-6382.183001301647,16157.494921385638,11387.20797147846,-187500.02235174447,-187500.02235174447,-187500.02235174447,-187500.02235174447
não,33460.583801339126,-6365.150972026703,16259.798855757577,11424.937716119019,-187500.02235174447,-187500.02235174447,-187500.02235174447,-187500.02235174447
não,33338.34211091305,-6324.023762228938,15986.92875944719,11522.391321944157,-187500.02235174447,-187500.02235174447,-187500.02235174447,-187500.02235174447
não,33221.26367345615,-6334.8420065453065,15830.198327326576,11508.667350848598,-187500.02235174447,-187500.02235174447,-187500.02235174447,-187500.02235174447
não,33324.260511906214,-6390.810774661395,16099.648606735303,11384.369299932636,-187500.02235174447,-187500.02235174447,-187500.02235174447,-187500.02235174447
não,33449.92201923395,-6377.846762877317,16267.867835505944,11402.943599574995,-187500.02235174447,-187500.02235174447,-187500.02235174447,-187500.02235174447
não,33327.85914276352,-6362.4017074587,16000.362157864829,11479.028937700861,-187500.02235174447,-187500.02235174447,-187500.02235174447,-187500.02235174447
não,33192.072295197526,-6354.086858521326,15780.21982672451,11502.967656012495,-187500.02235174447,-187500.02235174447,-187500.02235174447,-187500.02235174447
não,33326.18276192937,-6359.987719057527,16074.70405992318,11422.16609980656,-187500.02235174447,-187500.02235174447,-187500.02235174447,-187500.02235174447
não,33473.81603405667,-6359.183056257136,16335.526565972159,11417.11460555966,-187500.02235174447,-187500.02235174447,-187500.02235174447,-187500.02235174447
não,33414.718021716835,-6315.0607127023595,16132.95270597371,11513.003589272928,-187500.02235174447,-187500.02235174447,-187500.02235174447,-187500.02235174447
não,33200.07421971252,-6359.294814979412,15742.534785572861,11490.51773435089,-187500.02235174447,-187500.02235174447,-187500.02235174447,-187500.02235174447
não,33244.46478420076,-6407.261658580502,15922.131052271254,11382.379994676114,-187500.02235174447,-187500.02235174447,-187500.02235174447,-187500.02235174447
não,33434.633426026514,-6394.543515985431,16246.276050362118,11373.104020727162,-187500.02235174447,-187500.02235174447,-187500.02235174447,-187500.02235174447
não,33426.050356155676,-6335.4902071345105,16180.517218174604,11488.975463983472,-187500.02235174447,-187500.02235174447,-187500.02235174447,-187500.02235174447
não,33256.55707795108,-6309.048093443882,15870.967909213057,11559.875197395706,-187500.02235174447,-187500.02235174447,-187500.02235174447,-187500.02235174447
não,33222.76124033466,-6376.7515273990075,15888.983415244034,11427.083483586728,-187500.02235174447,-187500.02235174447,-187500.02235174447,-187500.02235174447
não,33372.24970725176,-6422.997286677038,16157.427866152271,11318.677522978489,-187500.02235174447,-187500.02235174447,-187500.02235174447,-187500.02235174447
não,33410.404135036966,-6384.239361791535,16141.424017122272,11418.79098639381,-187500.02235174447,-187500.02235174447,-187500.02235174447,-187500.02235174447
não,33274.706694448796,-6344.676774105642,15866.206987644076,11527.934554569072,-187500.02235174447,-187500.02235174447,-187500.02235174447,-187500.02235174447
não,33275.5560607381,-6328.449407631088,15932.412854720695,11499.257266432915,-187500.02235174447,-187500.02235174447,-187500.02235174447,-187500.02235174447
não,33410.06885887014,-6374.06931806437,16247.17012014033,11396.573352405234,-187500.02235174447,-187500.02235174447,-187500.02235174447,-187500.02235174447
não,33439.30494061767,-6361.775858613952,16248.17594864082,11438.92990814804,-187500.02235174447,-187500.02235174447,-187500.02235174447,-187500.02235174447
não,33223.90117930188,-6389.179097316158,15795.083736787288,11467.406030584101,-187500.02235174447,-187500.02235174447,-187500.02235174447,-187500.02235174447
não,33165.630181506895,-6372.92937909715,15764.037163738867,11446.93183266304,-187500.02235174447,-187500.02235174447,-187500.02235174447,-187500.02235174447
não,33379.73754164428,-6353.729230610041,16164.96040403371,11392.594741892188,-187500.02235174447,-187500.02235174447,-187500.02235174447,-187500.02235174447
não,33437.11446966106,-6363.027556303448,16228.439358286781,11416.779329392832,-187500.02235174447,-187500.02235174447,-187500.02235174447,-187500.02235174447
não,33317.53263682516,-6348.54362589641,15965.985174892567,11506.923914781084,-187500.02235174447,-187500.02235174447,-187500.02235174447,-187500.02235174447
não,33216.90508328737,-6340.496997892499,15809.634722427694,11508.600295615232,-187500.02235174447,-187500.02235174447,-187500.02235174447,-187500.02235174447
não,33355.46354716582,-6357.7972481009065,16116.814746476979,11393.242942481393,-187500.02235174447,-187500.02235174447,-187500.02235174447,-187500.02235174447
não,33436.533324305216,-6388.016806604482,16237.178890368807,11385.419831922036,-187500.02235174447,-187500.02235174447,-187500.02235174447,-187500.02235174447
não,33334.966997500305,-6364.21219875958,15992.986082194577,11481.13000167966,-187500.02235174447,-187500.02235174447,-187500.02235174447,-187500.02235174447
não,33216.77097282064,-6328.248241930991,15792.915617575125,11507.415653159102,-187500.02235174447,-187500.02235174447,-187500.02235174447,-187500.02235174447
não,33295.672630747875,-6389.939056627639,16020.143451707776,11380.860076053152,-187500.02235174447,-187500.02235174447,-187500.02235174447,-187500.02235174447
não,33469.748016565805,-6383.16647805768,16259.374172612926,11385.218666221937,-187500.02235174447,-187500.02235174447,-187500.02235174447,-187500.02235174447
não,33401.2846232992,-6381.288931523434,16062.723524895137,11465.908463705597,-187500.02235174447,-187500.02235174447,-187500.02235174447,-187500.02235174447
não,33272.51622349217,-6327.510634363965,15877.204045916087,11542.083208809283,-187500.02235174447,-187500.02235174447,-187500.02235174447,-187500.02235174447
não,33322.382965371966,-6339.044134502904,15997.344672363362,11434.057227856783,-187500.02235174447,-187500.02235174447,-187500.02235174447,-187500.02235174447
não,33465.00944674128,-6388.754414171507,16210.490907489171,11356.876654252608,-187500.02235174447,-187500.02235174447,-187500.02235174447,-187500.02235174447
não,33419.61305375255,-6381.110117567792,16100.497973024605,11425.228288796938,-187500.02235174447,-187500.02235174447,-187500.02235174447,-187500.02235174447
não,33234.11592651796,-6377.176210543658,15779.728088346494,11477.88899873364,-187500.02235174447,-187500.02235174447,-187500.02235174447,-187500.02235174447
não,33286.642525987925,-6367.363794727778,15933.82101462138,11432.760826678375,-187500.02235174447,-187500.02235174447,-187500.02235174447,-187500.02235174447
não,33552.20360186143,-6308.355189365768,16402.850020271544,11456.341917078724,-187500.02235174447,-187500.02235174447,-187500.02235174447,-187500.02235174447
não,33446.36809186555,-6379.903123367206,16171.554168648026,11419.863870127663,-187500.02235174447,-187500.02235174447,-187500.02235174447,-187500.02235174447
não,33248.48809820272,-6377.891466366228,15773.626062110194,11472.971614953472,-187500.02235174447,-187500.02235174447,-187500.02235174447,-187500.02235174447
não,33316.705622280315,-6309.271610888435,15912.09511901082,11508.197964215036,-187500.02235174447,-187500.02235174447,-187500.02235174447,-187500.02235174447
não,33505.44375246093,-6313.764311523952,16287.22444620424,11450.821036198264,-187500.02235174447,-187500.02235174447,-187500.02235174447,-187500.02235174447
não,33504.48262744935,-6360.322995224356,16266.705544794268,11432.961992378474,-187500.02235174447,-187500.02235174447,-187500.02235174447,-187500.02235174447
não,33234.89823757389,-6452.434534124677,15789.115821017722,11403.077710041727,-187500.02235174447,-187500.02235174447,-187500.02235174447,-187500.02235174447
não,33244.44243245631,-6358.311338223379,15796.111917032233,11463.717992748976,-187500.02235174447,-187500.02235174447,-187500.02235174447,-187500.02235174447
não,33440.22136214034,-6349.214178230069,16201.103174817941,11396.238076238404,-187500.02235174447,-187500.02235174447,-187500.02235174447,-187500.02235174447
não,33510.718764152385,-6376.9303413546495,16283.715222324756,11413.158346791071,-187500.02235174447,-187500.02235174447,-187500.02235174447,-187500.02235174447
não,33323.09822119454,-6412.402559805222,15917.0572062799,11460.499341547411,-187500.02235174447,-187500.02235174447,-187500.02235174447,-187500.02235174447
não,33239.92738007634,-6361.485285936033,15792.021547796912,11484.728632536964,-187500.02235174447,-187500.02235174447,-187500.02235174447,-187500.02235174447
não,33429.22430386833,-6351.270538719958,16199.739718406168,11431.062094099772,-187500.02235174447,-187500.02235174447,-187500.02235174447,-187500.02235174447
não,33509.19884552942,-6404.780614945962,16290.823077061545,11389.286683712804,-187500.02235174447,-187500.02235174447,-187500.02235174447,-187500.02235174447
não,33355.77647158819,-6412.894298183239,15953.311735786408,11437.946431392007,-187500.02235174447,-187500.02235174447,-187500.02235174447,-187500.02235174447
não,33215.94395827579,-6395.929324141661,15736.857442481214,11460.432286314046,-187500.02235174447,-187500.02235174447,-187500.02235174447,-187500.02235174447
não,33354.90475355444,-6387.390957759733,16069.898434865288,11394.852268082175,-187500.02235174447,-187500.02235174447,-187500.02235174447,-187500.02235174447
não,33496.61481340108,-6381.221876290068,16280.854199034477,11364.565654345233,-187500.02235174447,-187500.02235174447,-187500.02235174447,-187500.02235174447
não,33414.51685601674,-6379.791364644929,16060.153074282774,11446.685963474032,-187500.02235174447,-187500.02235174447,-187500.02235174447,-187500.02235174447
não,33220.97310077824,-6391.995417117527,15755.208224679021,11477.374908611167,-187500.02235174447,-187500.02235174447,-187500.02235174447,-187500.02235174447
não,33300.92529069487,-6409.3627225593,15963.235910324564,11392.661797125555,-187500.02235174447,-187500.02235174447,-187500.02235174447,-187500.02235174447
não,33477.88405154754,-6405.875850424272,16262.145788925385,11355.647308307565,-187500.02235174447,-187500.02235174447,-187500.02235174447,-187500.02235174447
não,33428.017309667746,-6396.97985613106,16119.09462441142,11426.010599852872,-187500.02235174447,-187500.02235174447,-187500.02235174447,-187500.02235174447
não,33240.66498764336,-6387.681530437652,15779.281053457387,11482.582865069255,-187500.02235174447,-187500.02235174447,-187500.02235174447,-187500.02235174447
não,33264.71546467727,-6404.98178064606,15891.419755389663,11410.073806056238,-187500.02235174447,-187500.02235174447,-187500.02235174447,-187500.02235174447
não,33457.11928094856,-6416.64939125173,16238.967029925232,11356.67548855251,-187500.02235174447,-187500.02235174447,-187500.02235174447,-187500.02235174447
não,33449.76555702276,-6400.802004432918,16166.413267423306,11407.011617065862,-187500.02235174447,-187500.02235174447,-187500.02235174447,-187500.02235174447
não,33258.7028454188,-6388.910876382694,15803.040957813379,11470.714088763487,-187500.02235174447,-187500.02235174447,-187500.02235174447,-187500.02235174447
não,33229.891446815906,-6408.178080103169,15824.833908657303,11431.777349922342,-187500.02235174447,-187500.02235174447,-187500.02235174447,-187500.02235174447
não,33430.36424283555,-6425.5900890338535,16199.829125383989,11369.997128247873,-187500.02235174447,-187500.02235174447,-187500.02235174447,-187500.02235174447
não,33455.71112104787,-6418.929269186172,16205.886448131378,11412.130166546127,-187500.02235174447,-187500.02235174447,-187500.02235174447,-187500.02235174447
não,33283.24506083072,-6404.512394012499,15852.438313059607,11478.17957141156,-187500.02235174447,-187500.02235174447,-187500.02235174447,-187500.02235174447
não,33217.32976643202,-6417.297591840934,15776.509437144929,11443.31085006128,-187500.02235174447,-187500.02235174447,-187500.02235174447,-187500.02235174447
não,33395.763742418734,-6443.091504942358,16142.742770045135,11360.475285109913,-187500.02235174447,-187500.02235174447,-187500.02235174447,-187500.02235174447
não,33475.06773174617,-6429.009905935515,16241.559832282048,11395.344006460191,-187500.02235174447,-187500.02235174447,-187500.02235174447,-187500.02235174447
não,33330.67546256488,-6418.705751741619,15934.782139632958,11488.930760494562,-187500.02235174447,-187500.02235174447,-187500.02235174447,-187500.02235174447
não,33211.697126829284,-6425.545385544942,15763.634832338672,11476.257321388402,-187500.02235174447,-187500.02235174447,-187500.02235174447,-187500.02235174447
não,33378.441140465875,-6434.195510649146,16098.173391601253,11382.91643654304,-187500.02235174447,-187500.02235174447,-187500.02235174447,-187500.02235174447
não,33498.5594151687,-6413.095463883336,16277.054402477075,11388.817297079242,-187500.02235174447,-187500.02235174447,-187500.02235174447,-187500.02235174447
não,33368.56166941663,-6417.007019163016,16010.621608569814,11470.64703353012,-187500.02235174447,-187500.02235174447,-187500.02235174447,-187500.02235174447
não,33244.82241211205,-6417.945792430138,15782.700870359049,11496.485650120456,-187500.02235174447,-187500.02235174447,-187500.02235174447,-187500.02235174447
não,33351.395529674955,-6412.871946438783,16057.672030648237,11411.772538634843,-187500.02235174447,-187500.02235174447,-187500.02235174447,-187500.02235174447
não,33517.983081100356,-6414.45892029511,16316.237010507228,11403.748262375388,-187500.02235174447,-187500.02235174447,-187500.02235174447,-187500.02235174447
não,33444.37878660903,-6406.0993678688255,16115.406586576295,11481.733498779953,-187500.02235174447,-187500.02235174447,-187500.02235174447,-187500.02235174447
não,33276.807758427596,-6393.872963651773,15816.027321341911,11510.61195261621,-187500.02235174447,-187500.02235174447,-187500.02235174447,-187500.02235174447
não,33364.69481762586,-6396.108138097303,16038.561289138948,11439.868681415162,-187500.02235174447,-187500.02235174447,-187500.02235174447,-187500.02235174447
não,33538.30081681023,-6391.660140950697,16348.80350217861,11399.367320462146,-187500.02235174447,-187500.02235174447,-187500.02235174447,-187500.02235174447
não,33471.066769488665,-6386.161611814691,16181.34423271945,11460.879321203152,-187500.02235174447,-187500.02235174447,-187500.02235174447,-187500.02235174447
não,33299.60653777201,-6381.557152456899,15851.23131885902,11510.500193893933,-187500.02235174447,-187500.02235174447,-187500.02235174447,-187500.02235174447
não,33333.916465510905,-6374.225780275558,15980.804381466436,11445.188396595526,-187500.02235174447,-187500.02235174447,-187500.02235174447,-187500.02235174447
não,33527.68373819396,-6371.007129073993,16329.424539735859,11407.458651954968,-187500.02235174447,-187500.02235174447,-187500.02235174447,-187500.02235174447
não,33520.93351136846,-6381.937132112638,16270.527693096126,11435.130111590637,-187500.02235174447,-187500.02235174447,-187500.02235174447,-187500.02235174447
não,33346.41109066142,-6380.104289067303,15915.91726731268,11502.990007756951,-187500.02235174447,-187500.02235174447,-187500.02235174447,-187500.02235174447
não,33310.7153547663,-6388.620303704775,15911.268104465975,11466.735478250443,-187500.02235174447,-187500.02235174447,-187500.02235174447,-187500.02235174447
não,33520.82175264618,-6388.061510093393,16343.886118398443,11398.11562277265,-187500.02235174447,-187500.02235174447,-187500.02235174447,-187500.02235174447
não,33554.63994200706,-6407.0381411359485,16352.960926647298,11388.68318661251,-187500.02235174447,-187500.02235174447,-187500.02235174447,-187500.02235174447
não,33348.6239133625,-6398.633885220753,15927.830747107357,11464.343841593723,-187500.02235174447,-187500.02235174447,-187500.02235174447,-187500.02235174447
não,33294.77856096966,-6361.753506869496,15896.426546147652,11478.045460944828,-187500.02235174447,-187500.02235174447,-187500.02235174447,-187500.02235174447
não,33479.06869400367,-6408.267487080991,16286.240969448207,11376.590892862188,-187500.02235174447,-187500.02235174447,-187500.02235174447,-187500.02235174447
não,33520.01708984579,-6405.093539368337,16295.002853274687,11332.557956285234,-187500.02235174447,-187500.02235174447,-187500.02235174447,-187500.02235174447
não,33379.73754164428,-6358.423096945656,15975.663480241714,11465.46142881649,-187500.02235174447,-187500.02235174447,-187500.02235174447,-187500.02235174447
não,33288.43066554435,-6384.351120513812,15861.0437346749,11451.64805074311,-187500.02235174447,-187500.02235174447,-187500.02235174447,-187500.02235174447
não,33435.549847549184,-6394.811736918895,16181.455991441726,11347.846549492664,-187500.02235174447,-187500.02235174447,-187500.02235174447,-187500.02235174447
não,33535.171572586485,-6413.140167372248,16346.009534121697,11347.712439025932,-187500.02235174447,-187500.02235174447,-187500.02235174447,-187500.02235174447
não,33441.54011506321,-6393.492983996032,16121.821537234968,11433.766655178864,-187500.02235174447,-187500.02235174447,-187500.02235174447,-187500.02235174447
não,33289.77177021167,-6374.359890742289,15869.805618501381,11446.462446029478,-187500.02235174447,-187500.02235174447,-187500.02235174447,-187500.02235174447
não,33351.797861075145,-6409.519184770487,16045.445626431183,11327.707627738433,-187500.02235174447,-187500.02235174447,-187500.02235174447,-187500.02235174447
não,33515.8596653771,-6392.844783406828,16309.956170315287,11325.092473637162,-187500.02235174447,-187500.02235174447,-187500.02235174447,-187500.02235174447
não,33463.95891475188,-6359.183056257136,16167.419095923793,11399.456727439969,-187500.02235174447,-187500.02235174447,-187500.02235174447,-187500.02235174447
não,33287.53659576614,-6372.616454674775,15849.75610372497,11410.230268267425,-187500.02235174447,-187500.02235174447,-187500.02235174447,-187500.02235174447
não,33299.49477904973,-6437.548272317443,16002.574980565905,11273.057612545206,-187500.02235174447,-187500.02235174447,-187500.02235174447,-187500.02235174447
não,33521.42524974648,-6416.448225551632,16386.354432863525,11307.14402283955,-187500.02235174447,-187500.02235174447,-187500.02235174447,-187500.02235174447
não,33494.73726686684,-6384.97696935856,16220.079805860498,11394.718157615443,-187500.02235174447,-187500.02235174447,-187500.02235174447,-187500.02235174447
não,33250.27623775914,-6432.519129814998,15784.98074829349,11380.368337675136,-187500.02235174447,-187500.02235174447,-187500.02235174447,-187500.02235174447
não,33312.83877048955,-6386.899219381717,15970.723744717092,11343.733828512888,-187500.02235174447,-187500.02235174447,-187500.02235174447,-187500.02235174447
não,33493.664383132986,-6404.937077157149,16299.517905654659,11292.593037199145,-187500.02235174447,-187500.02235174447,-187500.02235174447,-187500.02235174447
não,33459.28740016072,-6433.346144359844,16182.350061219939,11292.414223243502,-187500.02235174447,-187500.02235174447,-187500.02235174447,-187500.02235174447
não,33237.513391675166,-6463.208074952135,15782.767925592414,11325.539508526268,-187500.02235174447,-187500.02235174447,-187500.02235174447,-187500.02235174447
não,33211.40655415136,-6447.204225922135,15809.254742771953,11293.911790122009,-187500.02235174447,-187500.02235174447,-187500.02235174447,-187500.02235174447
não,33429.067841657146,-6443.247967153546,16217.509355248138,11246.906071532498,-187500.02235174447,-187500.02235174447,-187500.02235174447,-187500.02235174447
não,33469.79272005471,-6451.875740513295,16247.058361418052,11261.70292636191,-187500.02235174447,-187500.02235174447,-187500.02235174447,-187500.02235174447
não,33316.839732747045,-6411.17321386018,15892.738508312525,11387.386785434102,-187500.02235174447,-187500.02235174447,-187500.02235174447,-187500.02235174447
não,33209.61841459494,-6447.293632899957,15778.319928445808,11315.414168288013,-187500.02235174447,-187500.02235174447,-187500.02235174447,-187500.02235174447
não,33377.21179452083,-6480.038938526981,16129.890516983334,11227.013018967275,-187500.02235174447,-187500.02235174447,-187500.02235174447,-187500.02235174447
não,33459.86854551656,-6474.003967524049,16251.349896353471,11248.649507600012,-187500.02235174447,-187500.02235174447,-187500.02235174447,-187500.02235174447
não,33341.940741770355,-6434.441379838155,15982.167837878209,11345.097284924661,-187500.02235174447,-187500.02235174447,-187500.02235174447,-187500.02235174447
não,33213.97700476373,-6447.874778255794,15784.332547704285,11331.127444640095,-187500.02235174447,-187500.02235174447,-187500.02235174447,-187500.02235174447
não,33369.45573919484,-6450.7134498016185,16106.577647516448,11255.287975703237,-187500.02235174447,-187500.02235174447,-187500.02235174447,-187500.02235174447
não,33432.2417893698,-6516.405226755765,16211.273218545106,11202.426100066436,-187500.02235174447,-187500.02235174447,-187500.02235174447,-187500.02235174447
não,33333.894113766444,-6469.421859910711,15954.9657648761,11313.648380476045,-187500.02235174447,-187500.02235174447,-187500.02235174447,-187500.02235174447
não,33194.642745809884,-6467.007871509537,15725.63686676465,11315.637685732567,-187500.02235174447,-187500.02235174447,-187500.02235174447,-187500.02235174447
não,33298.24308136023,-6478.586075137387,16005.279541644997,11207.276428613237,-187500.02235174447,-187500.02235174447,-187500.02235174447,-187500.02235174447
não,33472.609039856085,-6474.808630324439,16298.51207715417,11237.764208050277,-187500.02235174447,-187500.02235174447,-187500.02235174447,-187500.02235174447
não,33400.72582968781,-6468.237217454579,16066.903301108277,11324.466624792412,-187500.02235174447,-187500.02235174447,-187500.02235174447,-187500.02235174447
não,33227.05277527008,-6438.710563029118,15733.147052901633,11344.136159913083,-187500.02235174447,-187500.02235174447,-187500.02235174447,-187500.02235174447
não,33247.03523481313,-6503.083587060402,15895.33131066934,11212.484385071324,-187500.02235174447,-187500.02235174447,-187500.02235174447,-187500.02235174447
não,33434.365205093054,-6505.05054057247,16226.003018141153,11199.654483753979,-187500.02235174447,-187500.02235174447,-187500.02235174447,-187500.02235174447
não,33393.70738192885,-6479.256627471045,16114.311351097984,11269.056650287706,-187500.02235174447,-187500.02235174447,-187500.02235174447,-187500.02235174447
não,33232.86422882846,-6456.346089404356,15797.385966466185,11351.176959416505,-187500.02235174447,-187500.02235174447,-187500.02235174447,-187500.02235174447
não,33231.05373752758,-6497.115671290836,15864.575310298838,11267.536731664746,-187500.02235174447,-187500.02235174447,-187500.02235174447,-187500.02235174447
não,33435.683958015914,-6491.6841973881965,16230.78629145459,11236.847786527609,-187500.02235174447,-187500.02235174447,-187500.02235174447,-187500.02235174447
não,33448.78208026673,-6460.324699917401,16170.123657002887,11273.147019523029,-187500.02235174447,-187500.02235174447,-187500.02235174447,-187500.02235174447
não,33252.466708715765,-6461.0399557399705,15789.965187307023,11322.56672651371,-187500.02235174447,-187500.02235174447,-187500.02235174447,-187500.02235174447
não,33231.12079276094,-6458.245987683057,15801.386928723685,11318.878688678586,-187500.02235174447,-187500.02235174447,-187500.02235174447,-187500.02235174447
não,33460.06971121665,-6433.1002751708365,16217.509355248138,11299.969112869396,-187500.02235174447,-187500.02235174447,-187500.02235174447,-187500.02235174447
não,33446.16692616545,-6490.611313654342,16187.558017678026,11253.857464058097,-187500.02235174447,-187500.02235174447,-187500.02235174447,-187500.02235174447
não,33254.18779303882,-6505.139947550291,15828.186670325598,11280.187819026449,-187500.02235174447,-187500.02235174447,-187500.02235174447,-187500.02235174447
não,33177.99069619068,-6518.394532012288,15752.190739177555,11252.94104253543,-187500.02235174447,-187500.02235174447,-187500.02235174447,-187500.02235174447
não,33376.25066950925,-6496.311008490445,16123.38615934684,11217.468824084857,-187500.02235174447,-187500.02235174447,-187500.02235174447,-187500.02235174447
não,33480.47685390435,-6471.992310523071,16237.625925257913,11259.445400171924,-187500.02235174447,-187500.02235174447,-187500.02235174447,-187500.02235174447
não,33343.974750515794,-6457.217807438113,15942.091160069844,11348.494750081867,-187500.02235174447,-187500.02235174447,-187500.02235174447,-187500.02235174447
não,33216.458048398265,-6468.974825021604,15781.471524414006,11343.934994212985,-187500.02235174447,-187500.02235174447,-187500.02235174447,-187500.02235174447
não,33346.99223601726,-6482.072947272414,16078.593263458404,11247.710734332888,-187500.02235174447,-187500.02235174447,-187500.02235174447,-187500.02235174447
não,33486.802397585205,-6473.7804500794955,16246.387809084394,11251.219958212372,-187500.02235174447,-187500.02235174447,-187500.02235174447,-187500.02235174447
não,33361.78909084667,-6467.298444187456,15972.489532529062,11297.041034345752,-187500.02235174447,-187500.02235174447,-187500.02235174447,-187500.02235174447
$SILENCE,33207.092667471494,-6474.562761135431,15738.153843659622,11319.325723567692,-187500.02235174447,-187500.02235174447,-187500.02235174447,-187500.02235174447
$SILENCE,33354.390663431965,-6465.532656375487,16055.325097480429,11286.46865921839,-187500.02235174447,-187500.02235174447,-187500.02235174447,-187500.02235174447
$SILENCE,33488.411723185985,-6470.807668066939,16258.54715806808,11257.545501893223,-187500.02235174447,-187500.02235174447,-187500.02235174447,-187500.02235174447
$SILENCE,33393.34975401757,-6487.705586875151,16047.099655520877,11284.6134644286,-187500.02235174447,-187500.02235174447,-187500.02235174447,-187500.02235174447
$SILENCE,33230.98668229421,-6474.428650668699,15739.964334960501,11316.487052021868,-187500.02235174447,-187500.02235174447,-187500.02235174447,-187500.02235174447
$SILENCE,33275.69017120483,-6485.559819407442,15915.693749868125,11259.154827494005,-187500.02235174447,-187500.02235174447,-187500.02235174447,-187500.02235174447
$SILENCE,33453.78887102471,-6485.47041242962,16234.988419412188,11216.395940351003,-187500.02235174447,-187500.02235174447,-187500.02235174447,-187500.02235174447
$SILENCE,33447.61978955505,-6456.9942899935595,16134.114996685386,11286.42395572948,-187500.02235174447,-187500.02235174447,-187500.02235174447,-187500.02235174447
$SILENCE,33265.81070015558,-6452.032202724481,15786.679480872093,11336.693029009466,-187500.02235174447,-187500.02235174447,-187500.02235174447,-187500.02235174447
$SILENCE,33255.193621539314,-6472.551104134453,15859.90379570768,11272.252949744816,-187500.02235174447,-187500.02235174447,-187500.02235174447,-187500.02235174447
$SILENCE,33457.38750188202,-6486.118613018824,16220.616247727425,11224.576678821646,-187500.02235174447,-187500.02235174447,-187500.02235174447,-187500.02235174447
$SILENCE,33474.75480732379,-6465.219731953112,16175.577482649982,11285.440478973447,-187500.02235174447,-187500.02235174447,-187500.02235174447,-187500.02235174447
$SILENCE,33291.045819645624,-6450.199359679146,15828.119615092233,11345.074933180205,-187500.02235174447,-187500.02235174447,-187500.02235174447,-187500.02235174447
$SILENCE,33235.30056897409,-6457.9330632606825,15810.238219527988,11286.893342363042,-187500.02235174447,-187500.02235174447,-187500.02235174447,-187500.02235174447
$SILENCE,33434.5440190487,-6465.1526767197465,16187.44625895575,11244.112103475583,-187500.02235174447,-187500.02235174447,-187500.02235174447,-187500.02235174447
$SILENCE,33491.42920868745,-6462.068135984914,16226.695922219269,11277.930292836463,-187500.02235174447,-187500.02235174447,-187500.02235174447,-187500.02235174447
$SILENCE,33330.54135209815,-6439.448170596143,15891.889142023223,11352.875691995108,-187500.02235174447,-187500.02235174447,-187500.02235174447,-187500.02235174447
$SILENCE,33244.844763856505,-6447.114818944314,15801.297521745864,11320.040979390262,-187500.02235174447,-187500.02235174447,-187500.02235174447,-187500.02235174447
$SILENCE,33419.00955665226,-6459.3412231613665,16153.136331216852,11254.058629758196,-187500.02235174447,-187500.02235174447,-187500.02235174447,-187500.02235174447
$SILENCE,33524.95682537041,-6444.142036931758,16263.777466270623,11291.900133121031,-187500.02235174447,-187500.02235174447,-187500.02235174447,-187500.02235174447
$SILENCE,33346.03111100568,-6448.522978844998,15921.974590060066,11313.76013919832,-187500.02235174447,-187500.02235174447,-187500.02235174447,-187500.02235174447
$SILENCE,33208.94786226128,-6486.073909529914,15729.77193948888,11298.672711690988,-187500.02235174447,-187500.02235174447,-187500.02235174447,-187500.02235174447
$SILENCE,33381.34686724506,-6462.693984829662,16103.04607189251,11243.620365097568,-187500.02235174447,-187500.02235174447,-187500.02235174447,-187500.02235174447
$SILENCE,33527.23670330485,-6423.645487266242,16311.252571493695,11267.983766553853,-187500.02235174447,-187500.02235174447,-187500.02235174447,-187500.02235174447
$SILENCE,33409.30889955865,-6423.533728543965,16019.003512740555,11332.826177218698,-187500.02235174447,-187500.02235174447,-187500.02235174447,-187500.02235174447
$SILENCE,33225.823429325035,-6453.9991562365485,15729.436663322052,11329.406360317036,-187500.02235174447,-187500.02235174447,-187500.02235174447,-187500.02235174447
$SILENCE,33329.31200615311,-6459.698851072651,15987.040518169466,11246.302574432204,-187500.02235174447,-187500.02235174447,-187500.02235174447,-187500.02235174447
$SILENCE,33511.07639206367,-6460.61527259532,16262.749286025679,11234.299687659704,-187500.02235174447,-187500.02235174447,-187500.02235174447,-187500.02235174447
$SILENCE,33440.98132145182,-6445.639603810264,16078.973243114144,11315.14594735455,-187500.02235174447,-187500.02235174447,-187500.02235174447,-187500.02235174447
$SILENCE,33256.020636084155,-6427.422932079188,15763.321907916297,11361.905796755053,-187500.02235174447,-187500.02235174447,-187500.02235174447,-187500.02235174447
$SILENCE,33322.98646247226,-6434.888414727261,15950.942450874145,11283.250008016827,-187500.02235174447,-187500.02235174447,-187500.02235174447,-187500.02235174447
$SILENCE,33506.516636194785,-6439.17994966268,16274.394544886894,11240.334658662638,-187500.02235174447,-187500.02235174447,-187500.02235174447,-187500.02235174447
$SILENCE,33478.53225213674,-6428.831091979872,16178.05852628452,11313.76013919832,-187500.02235174447,-187500.02235174447,-187500.02235174447,-187500.02235174447
$SILENCE,33286.19549109882,-6414.816548206395,15828.387836025697,11376.143857973082,-187500.02235174447,-187500.02235174447,-187500.02235174447,-187500.02235174447
$SILENCE,33301.17115988388,-6420.851519209328,15899.756956071491,11318.275191578292,-187500.02235174447,-187500.02235174447,-187500.02235174447,-187500.02235174447
$SILENCE,33463.98126649633,-6458.625967338797,16193.168305536308,11222.609725309578,-187500.02235174447,-187500.02235174447,-187500.02235174447,-187500.02235174447
$SILENCE,33479.023990514754,-6451.316946901911,16168.044944768542,11278.198513769927,-187500.02235174447,-187500.02235174447,-187500.02235174447,-187500.02235174447
$SILENCE,33319.857218248515,-6424.204280877624,15842.312972821353,11369.259520680847,-187500.02235174447,-187500.02235174447,-187500.02235174447,-187500.02235174447
$SILENCE,33276.56188923858,-6435.1566356607245,15819.536545221395,11308.842755418153,-187500.02235174447,-187500.02235174447,-187500.02235174447,-187500.02235174447
$SILENCE,33474.17366196796,-6447.94183348916,16192.408346224827,11237.60774583909,-187500.02235174447,-187500.02235174447,-187500.02235174447,-187500.02235174447
$SILENCE,33527.840200405146,-6431.4015425922325,16242.856233460456,11291.676615676477,-187500.02235174447,-187500.02235174447,-187500.02235174447,-187500.02235174447
$SILENCE,33368.449910694355,-6411.240269093546,15925.0591307949,11383.944616787985,-187500.02235174447,-187500.02235174447,-187500.02235174447,-187500.02235174447
$SILENCE,33271.890374647424,-6416.045894151437,15809.0312253274,11349.05354369325,-187500.02235174447,-187500.02235174447,-187500.02235174447,-187500.02235174447
$SILENCE,33442.36712960805,-6431.625060036786,16144.352095645918,11260.317118205681,-187500.02235174447,-187500.02235174447,-187500.02235174447,-187500.02235174447
$SILENCE,33546.25803783632,-6421.812644220906,16282.999966502186,11289.575551697679,-187500.02235174447,-187500.02235174447,-187500.02235174447,-187500.02235174447
$SILENCE,33444.95993196487,-6375.9915680875265,16024.993780254577,11408.173907777538,-187500.02235174447,-187500.02235174447,-187500.02235174447,-187500.02235174447
$SILENCE,33258.7028454188,-6427.445283823644,15764.84182653926,11354.999107718362,-187500.02235174447,-187500.02235174447,-187500.02235174447,-187500.02235174447
$SILENCE,33383.1797102904,-6461.151714462247,16051.122969522832,11240.93815576293,-187500.02235174447,-187500.02235174447,-187500.02235174447,-187500.02235174447
$SILENCE,33546.19098260295,-6438.867025240305,16278.239044933207,11263.669879873978,-187500.02235174447,-187500.02235174447,-187500.02235174447,-187500.02235174447
$SILENCE,33434.83459172661,-6422.4161413212,16032.12398673582,11353.34507862867,-187500.02235174447,-187500.02235174447,-187500.02235174447,-187500.02235174447
$SILENCE,33292.63279350195,-6395.1246613412695,15779.571626135306,11397.802698350275,-187500.02235174447,-187500.02235174447,-187500.02235174447,-187500.02235174447
$SILENCE,33391.31574527213,-6412.7378359720515,16031.69930359117,11303.14306058205,-187500.02235174447,-187500.02235174447,-187500.02235174447,-187500.02235174447
$SILENCE,33539.664273222006,-6434.329621115879,16283.692870580302,11267.492028175835,-187500.02235174447,-187500.02235174447,-187500.02235174447,-187500.02235174447
$SILENCE,33485.03660977323,-6411.687303982652,16110.891534196322,11351.825160005708,-187500.02235174447,-187500.02235174447,-187500.02235174447,-187500.02235174447
$SILENCE,33302.91459595139,-6404.333580056856,15795.776640865404,11391.991244791896,-187500.02235174447,-187500.02235174447,-187500.02235174447,-187500.02235174447
$SILENCE,33357.87753556699,-6421.3656093318,15971.841331939857,11314.721264209898,-187500.02235174447,-187500.02235174447,-187500.02235174447,-187500.02235174447
$SILENCE,33554.1705553735,-6418.45988255261,16295.114611996964,11291.94483660994,-187500.02235174447,-187500.02235174447,-187500.02235174447,-187500.02235174447
$SILENCE,33518.743040411835,-6420.359780831312,16162.255842954619,11335.709552253433,-187500.02235174447,-187500.02235174447,-187500.02235174447,-187500.02235174447
$SILENCE,33341.35959641452,-6400.243210821535,15837.350885552274,11402.83184085272,-187500.02235174447,-187500.02235174447,-187500.02235174447,-187500.02235174447
$SILENCE,33346.67931159488,-6392.867135151284,15927.339008729341,11352.763933272832,-187500.02235174447,-187500.02235174447,-187500.02235174447,-187500.02235174447
$SILENCE,33548.046177392745,-6401.852536422317,16281.681213579324,11293.732976166366,-187500.02235174447,-187500.02235174447,-187500.02235174447,-187500.02235174447
$SILENCE,33542.659406979015,-6410.8602894378055,16221.957352394744,11334.413151075025,-187500.02235174447,-187500.02235174447,-187500.02235174447,-187500.02235174447
$SILENCE,33359.151585000945,-6397.471594509077,15877.695784294105,11402.675378641532,-187500.02235174447,-187500.02235174447,-187500.02235174447,-187500.02235174447
$SILENCE,33320.0136804597,-6415.598859262331,15868.799790000892,11355.446142607469,-187500.02235174447,-187500.02235174447,-187500.02235174447,-187500.02235174447
$SILENCE,33498.470008190874,-6435.290746127456,16204.701805675246,11276.65624340251,-187500.02235174447,-187500.02235174447,-187500.02235174447,-187500.02235174447
$SILENCE,33552.33771232816,-6427.132359401269,16241.35866658195,11310.563839741211,-187500.02235174447,-187500.02235174447,-187500.02235174447,-187500.02235174447
$SILENCE,33401.0834575991,-6403.350103300822,15919.225325492065,11401.200163507481,-187500.02235174447,-187500.02235174447,-187500.02235174447,-187500.02235174447
$SILENCE,33309.30719486561,-6406.2781818244675,15816.519059719929,11381.173000475526,-187500.02235174447,-187500.02235174447,-187500.02235174447,-187500.02235174447
$SILENCE,33490.24456623132,-6421.03033316497,16183.042965298053,11302.785432670766,-187500.02235174447,-187500.02235174447,-187500.02235174447,-187500.02235174447
$SILENCE,33589.55336684625,-6411.776710960474,16312.928952327842,11330.032209161784,-187500.02235174447,-187500.02235174447,-187500.02235174447,-187500.02235174447
$SILENCE,33454.81705126966,-6391.235457806046,16005.883038745289,11398.585009406212,-187500.02235174447,-187500.02235174447,-187500.02235174447,-187500.02235174447
$SILENCE,33327.479163107775,-6402.679550967164,15804.002082824956,11400.641369896099,-187500.02235174447,-187500.02235174447,-187500.02235174447,-187500.02235174447
$SILENCE,33462.08136821763,-6412.760187716507,16120.458080823193,11319.683351478978,-187500.02235174447,-187500.02235174447,-187500.02235174447,-187500.02235174447
$SILENCE,33609.80404732276,-6404.199469590124,16355.643135981934,11329.920450439507,-187500.02235174447,-187500.02235174447,-187500.02235174447,-187500.02235174447
$SILENCE,33508.86356936259,-6401.3607980443,16104.789507960024,11398.5403059173,-187500.02235174447,-187500.02235174447,-187500.02235174447,-187500.02235174447
$SILENCE,33321.84652350504,-6407.328713813868,15770.45211439754,11402.45186119698,-187500.02235174447,-187500.02235174447,-187500.02235174447,-187500.02235174447
$SILENCE,33427.50321954527,-6411.061455137904,16031.140509979787,11323.326685825192,-187500.02235174447,-187500.02235174447,-187500.02235174447,-187500.02235174447
$SILENCE,33581.55144233125,-6415.88943194025,16303.004777789687,11302.025473359285,-187500.02235174447,-187500.02235174447,-187500.02235174447,-187500.02235174447
$SILENCE,33514.67502292097,-6398.902106154216,16120.659246523292,11368.857189280652,-187500.02235174447,-187500.02235174447,-187500.02235174447,-187500.02235174447
$SILENCE,33343.281846437676,-6395.951675886116,15813.948609107569,11420.757939905876,-187500.02235174447,-187500.02235174447,-187500.02235174447,-187500.02235174447
$SILENCE,33410.06885887014,-6400.958466644105,16010.241628914075,11358.44127636448,-187500.02235174447,-187500.02235174447,-187500.02235174447,-187500.02235174447
$SILENCE,33593.44257038147,-6402.947771900627,16304.859972579477,11317.671694478,-187500.02235174447,-187500.02235174447,-187500.02235174447,-187500.02235174447
$SILENCE,33549.81196520472,-6404.355931801311,16168.983718035666,11362.621052577622,-187500.02235174447,-187500.02235174447,-187500.02235174447,-187500.02235174447
$SILENCE,33376.764759631726,-6378.830239633351,15852.147740381688,11435.443036013012,-187500.02235174447,-187500.02235174447,-187500.02235174447,-187500.02235174447
$SILENCE,33388.41001849294,-6387.703882182108,15943.767540903991,11378.781363818809,-187500.02235174447,-187500.02235174447,-187500.02235174447,-187500.02235174447
$SILENCE,33553.45529955093,-6426.819434978895,16255.663783033346,11286.535714451757,-187500.02235174447,-187500.02235174447,-187500.02235174447,-187500.02235174447
$SILENCE,33573.16953816051,-6413.542498772443,16232.775596711112,11343.5773663017,-187500.02235174447,-187500.02235174447,-187500.02235174447,-187500.02235174447
$SILENCE,33404.74914368977,-6402.679550967164,15904.964912529578,11420.467367227957,-187500.02235174447,-187500.02235174447,-187500.02235174447,-187500.02235174447
$SILENCE,33330.45194512033,-6428.562871046409,15847.1409496237,11358.86595950913,-187500.02235174447,-187500.02235174447,-187500.02235174447,-187500.02235174447
$SILENCE,33535.596255731136,-6419.666876753196,16216.123547091907,11303.388929771058,-187500.02235174447,-187500.02235174447,-187500.02235174447,-187500.02235174447
$SILENCE,33614.252044469366,-6394.297646796424,16278.350803655483,11351.132255927594,-187500.02235174447,-187500.02235174447,-187500.02235174447,-187500.02235174447
$SILENCE,33420.41771655294,-6404.311228312401,15925.394406961728,11406.45282345448,-187500.02235174447,-187500.02235174447,-187500.02235174447,-187500.02235174447
$SILENCE,33331.77069804319,-6411.977876660571,15826.0856063468,11391.343044202691,-187500.02235174447,-187500.02235174447,-187500.02235174447,-187500.02235174447
$SILENCE,33513.80330488722,-6414.816548206395,16181.835971097467,11318.118729367105,-187500.02235174447,-187500.02235174447,-187500.02235174447,-187500.02235174447
$SILENCE,33604.2831664423,-6415.442397051143,16292.231236962229,11319.459834034424,-187500.02235174447,-187500.02235174447,-187500.02235174447,-187500.02235174447
$SILENCE,33472.45257764489,-6391.950713628616,16011.605085325848,11414.25358226938,-187500.02235174447,-187500.02235174447,-187500.02235174447,-187500.02235174447
$SILENCE,33346.276980194685,-6379.210219289091,15813.166298051632,11420.042684083306,-187500.02235174447,-187500.02235174447,-187500.02235174447,-187500.02235174447
$SILENCE,33495.69839187842,-6396.421062519677,16138.317124642985,11335.642497020066,-187500.02235174447,-187500.02235174447,-187500.02235174447,-187500.02235174447
$SILENCE,33622.03045153981,-6406.859327180306,16334.230164793751,11328.33347658318,-187500.02235174447,-187500.02235174447,-187500.02235174447,-187500.02235174447
$SILENCE,33509.53412169625,-6397.382187531256,16077.296862279996,11401.691901885499,-187500.02235174447,-187500.02235174447,-187500.02235174447,-187500.02235174447
$SILENCE,33368.06993103861,-6383.188829802136,15817.12255682022,11431.196204566504,-187500.02235174447,-187500.02235174447,-187500.02235174447,-187500.02235174447
$SILENCE,33439.99784469579,-6436.050705438937,16026.044312243977,11314.47539502089,-187500.02235174447,-187500.02235174447,-187500.02235174447,-187500.02235174447
$SILENCE,33600.46101814044,-6430.507472814021,16286.777411315134,11301.310217536715,-187500.02235174447,-187500.02235174447,-187500.02235174447,-187500.02235174447
$SILENCE,33549.47668903788,-6399.192678832135,16125.867202981379,11385.263369710849,-187500.02235174447,-187500.02235174447,-187500.02235174447,-187500.02235174447
$SILENCE,33368.27109673871,-6402.411330033699,15819.871821388224,11433.07375110075,-187500.02235174447,-187500.02235174447,-187500.02235174447,-187500.02235174447
$SILENCE,33438.567333050654,-6407.060492880403,16001.010358454032,11362.352831644159,-187500.02235174447,-187500.02235174447,-187500.02235174447,-187500.02235174447
$SILENCE,33611.301614201264,-6409.563888259398,16293.7958590741,11314.967133398906,-187500.02235174447,-187500.02235174447,-187500.02235174447,-187500.02235174447
$SILENCE,33583.831320265694,-6405.384112046256,16188.005052567132,11375.786230061798,-187500.02235174447,-187500.02235174447,-187500.02235174447,-187500.02235174447
$SILENCE,33423.122277632036,-6369.084879050837,15871.929034224635,11455.626661256154,-187500.02235174447,-187500.02235174447,-187500.02235174447,-187500.02235174447
$SILENCE,33408.99597513628,-6390.229629305557,15932.815186120892,11385.35277668867,-187500.02235174447,-187500.02235174447,-187500.02235174447,-187500.02235174447
$SILENCE,33599.432837895496,-6402.187812589146,16274.752172798178,11322.522023024801,-187500.02235174447,-187500.02235174447,-187500.02235174447,-187500.02235174447
$SILENCE,33622.03045153981,-6401.181984088658,16250.053495175063,11364.140971200582,-187500.02235174447,-187500.02235174447,-187500.02235174447,-187500.02235174447
$SILENCE,33419.88127468601,-6405.272353323979,15883.417830874663,11419.953277105484,-187500.02235174447,-187500.02235174447,-187500.02235174447,-187500.02235174447
$SILENCE,33394.42263775142,-6382.540629212932,15876.980528471535,11408.173907777538,-187500.02235174447,-187500.02235174447,-187500.02235174447,-187500.02235174447
$SILENCE,33588.81575927923,-6408.893335925739,16242.811529971545,11323.52785152529,-187500.02235174447,-187500.02235174447,-187500.02235174447,-187500.02235174447
$SILENCE,33611.726297345915,-6441.571586319397,16257.206053400763,11322.186746857971,-187500.02235174447,-187500.02235174447,-187500.02235174447,-187500.02235174447
$SILENCE,33470.48562413283,-6401.539611999943,15956.0162968655,11421.987285850917,-187500.02235174447,-187500.02235174447,-187500.02235174447,-187500.02235174447
$SILENCE,33375.53541368669,-6416.694094740641,15851.007801414467,11398.987340806407,-187500.02235174447,-187500.02235174447,-187500.02235174447,-187500.02235174447
$SILENCE,33544.894581424545,-6427.9370222016605,16181.567750164004,11312.039054875262,-187500.02235174447,-187500.02235174447,-187500.02235174447,-187500.02235174447
$SILENCE,33633.85452435667,-6413.520147027987,16281.547103112593,11328.266421349816,-187500.02235174447,-187500.02235174447,-187500.02235174447,-187500.02235174447
$SILENCE,33492.591499399125,-6409.049798136926,15980.11147738832,11402.988303063907,-187500.02235174447,-187500.02235174447,-187500.02235174447,-187500.02235174447
$SILENCE,33371.91443108492,-6406.948734158127,15794.435536198085,11416.622867181644,-187500.02235174447,-187500.02235174447,-187500.02235174447,-187500.02235174447
$SILENCE,33510.83052287466,-6420.560946531409,16101.928484669745,11326.85826144913,-187500.02235174447,-187500.02235174447,-187500.02235174447,-187500.02235174447
$SILENCE,33655.982751367424,-6413.229574350068,16333.626667693457,11334.770778986309,-187500.02235174447,-187500.02235174447,-187500.02235174447,-187500.02235174447
$SILENCE,33562.91008745552,-6400.109100354803,16097.011100889576,11415.013541580862,-187500.02235174447,-187500.02235174447,-187500.02235174447,-187500.02235174447
$SILENCE,33412.684012971404,-6379.791364644929,15816.384949253197,11450.798684453808,-187500.02235174447,-187500.02235174447,-187500.02235174447,-187500.02235174447
$SILENCE,33481.1027027491,-6422.863176210306,16033.643905358782,11337.810616232231,-187500.02235174447,-187500.02235174447,-187500.02235174447,-187500.02235174447
$SILENCE,33638.10135580318,-6438.46469384011,16299.65201612139,11303.254819304326,-187500.02235174447,-187500.02235174447,-187500.02235174447,-187500.02235174447
$SILENCE,33593.59903259266,-6397.784518931451,16148.822444536978,11397.288608227804,-187500.02235174447,-187500.02235174447,-187500.02235174447,-187500.02235174447
$SILENCE,33430.587760280105,-6379.210219289091,15840.122501864733,11453.92792867755,-187500.02235174447,-187500.02235174447,-187500.02235174447,-187500.02235174447
$SILENCE,33439.23788538431,-6435.536615316465,15947.96966886159,11340.157549400039,-187500.02235174447,-187500.02235174447,-187500.02235174447,-187500.02235174447
$SILENCE,33643.97986459492,-6428.965202446605,16292.99119627371,11311.971999641895,-187500.02235174447,-187500.02235174447,-187500.02235174447,-187500.02235174447
$SILENCE,33623.818591096235,-6407.820452191884,16207.808698154533,11379.11663998564,-187500.02235174447,-187500.02235174447,-187500.02235174447,-187500.02235174447
$SILENCE,33428.93373119042,-6403.283048067457,15858.428580573629,11435.845367413207,-187500.02235174447,-187500.02235174447,-187500.02235174447,-187500.02235174447
$SILENCE,33435.10281266008,-6407.753396958518,15918.53242141395,11373.416945149535,-187500.02235174447,-187500.02235174447,-187500.02235174447,-187500.02235174447
$SILENCE,33623.952701562965,-6416.157652873713,16263.308079637061,11313.201345586938,-187500.02235174447,-187500.02235174447,-187500.02235174447,-187500.02235174447
$SILENCE,33658.217925812954,-6408.64746673673,16263.486893592704,11371.181770704005,-187500.02235174447,-187500.02235174447,-187500.02235174447,-187500.02235174447
$SILENCE,33485.05896151769,-6394.1858880741465,15909.256447464997,11441.5003587604,-187500.02235174447,-187500.02235174447,-187500.02235174447,-187500.02235174447
$SILENCE,33437.33798710561,-6390.855478150306,15886.323557653852,11408.553887433278,-187500.02235174447,-187500.02235174447,-187500.02235174447,-187500.02235174447
$SILENCE,33613.55914039125,-6417.543461029943,16249.964088197243,11320.689179979467,-187500.02235174447,-187500.02235174447,-187500.02235174447,-187500.02235174447
$SILENCE,33654.77575716683,-6435.536615316465,16263.308079637061,11335.508386553334,-187500.02235174447,-187500.02235174447,-187500.02235174447,-187500.02235174447
$SILENCE,33478.50990039229,-6432.206205392624,15912.29628471092,11395.053433782272,-187500.02235174447,-187500.02235174447,-187500.02235174447,-187500.02235174447
$SILENCE,33393.685030184395,-6416.26941159599,15799.576437422806,11388.906704057063,-187500.02235174447,-187500.02235174447,-187500.02235174447,-187500.02235174447
$SILENCE,33580.12093068611,-6419.443359308643,16160.177130720274,11322.365560813614,-187500.02235174447,-187500.02235174447,-187500.02235174447,-187500.02235174447
$SILENCE,33677.641591744614,-6420.851519209328,16305.686987124323,11332.736770240876,-187500.02235174447,-187500.02235174447,-187500.02235174447,-187500.02235174447
$SILENCE,33539.97719764438,-6404.60180099032,16024.904373276757,11409.000922322384,-187500.02235174447,-187500.02235174447,-187500.02235174447,-187500.02235174447
$SILENCE,33437.85207722808,-6386.698053681619,15855.165225883155,11451.089257131727,-187500.02235174447,-187500.02235174447,-187500.02235174447,-187500.02235174447
$SILENCE,33574.84591899466,-6394.141184585236,16131.969229217677,11359.894139754075,-187500.02235174447,-187500.02235174447,-187500.02235174447,-187500.02235174447
$SILENCE,33671.53956550832,-6437.794141506451,16282.351765912983,11309.289790307259,-187500.02235174447,-187500.02235174447,-187500.02235174447,-187500.02235174447
$SILENCE,33560.98783743237,-6440.632813052275,16036.54963213797,11366.040869479284,-187500.02235174447,-187500.02235174447,-187500.02235174447,-187500.02235174447
$SILENCE,33430.7889259802,-6414.593030761842,15794.144963520166,11419.21566953846,-187500.02235174447,-187500.02235174447,-187500.02235174447,-187500.02235174447
$SILENCE,33525.336805026156,-6424.1819291331685,16042.741065352091,11346.5277965698,-187500.02235174447,-187500.02235174447,-187500.02235174447,-187500.02235174447
$SILENCE,33704.44133334653,-6426.9982489345375,16365.47790354227,11330.166319628515,-187500.02235174447,-187500.02235174447,-187500.02235174447,-187500.02235174447
$SILENCE,33638.10135580318,-6414.861251695305,16151.169377704786,11391.410099436058,-187500.02235174447,-187500.02235174447,-187500.02235174447,-187500.02235174447
$SILENCE,33446.591609310104,-6411.1508621157245,15795.374309465207,11425.250640541391,-187500.02235174447,-187500.02235174447,-187500.02235174447,-187500.02235174447
$SILENCE,33491.04922903171,-6426.685324512163,15964.353497547329,11358.620090320122,-187500.02235174447,-187500.02235174447,-187500.02235174447,-187500.02235174447
$SILENCE,33691.007934928886,-6415.487100540055,16297.193324231306,11326.299467837747,-187500.02235174447,-187500.02235174447,-187500.02235174447,-187500.02235174447
$SILENCE,33656.47448974544,-6413.69896098363,16186.641596155358,11373.193427704982,-187500.02235174447,-187500.02235174447,-187500.02235174447,-187500.02235174447
$SILENCE,33475.112435235074,-6410.703827226619,15856.193406128099,11432.939640634018,-187500.02235174447,-187500.02235174447,-187500.02235174447,-187500.02235174447
$SILENCE,33478.53225213674,-6415.5541557734205,15931.272915753474,11378.088459740695,-187500.02235174447,-187500.02235174447,-187500.02235174447,-187500.02235174447
$SILENCE,33675.22760334344,-6422.751417488029,16253.450960332271,11317.112900866618,-187500.02235174447,-187500.02235174447,-187500.02235174447,-187500.02235174447
$SILENCE,33680.592022012715,-6439.716391529607,16209.328616777495,11338.548223799256,-187500.02235174447,-187500.02235174447,-187500.02235174447,-187500.02235174447
$SILENCE,33508.70710715141,-6428.249946624034,15883.440182619117,11410.386730478613,-187500.02235174447,-187500.02235174447,-187500.02235174447,-187500.02235174447
$SILENCE,33461.61198158407,-6425.321868100389,15863.122446909243,11384.503410399368,-187500.02235174447,-187500.02235174447,-187500.02235174447,-187500.02235174447
$SILENCE,33674.04296088731,-6419.666876753196,16251.752227753668,11327.595869016155,-187500.02235174447,-187500.02235174447,-187500.02235174447,-187500.02235174447
$SILENCE,33704.776609513356,-6432.519129814998,16266.996117472187,11332.602659774144,-187500.02235174447,-187500.02235174447,-187500.02235174447,-187500.02235174447
$SILENCE,33543.06173837921,-6416.202356362624,15949.266070039997,11407.793928121797,-187500.02235174447,-187500.02235174447,-187500.02235174447,-187500.02235174447
$SILENCE,33476.63235385804,-6390.050815349915,15839.921336164634,11423.618963196155,-187500.02235174447,-187500.02235174447,-187500.02235174447,-187500.02235174447
$SILENCE,33642.03526282731,-6413.140167372248,16172.135314003865,11328.758159727831,-187500.02235174447,-187500.02235174447,-187500.02235174447,-187500.02235174447
$SILENCE,33688.3033738498,-6476.887342558783,16256.222576644728,11286.37925224057,-187500.02235174447,-187500.02235174447,-187500.02235174447,-187500.02235174447
$SILENCE,33581.70790454244,-6439.805798507428,15999.803364253446,11394.315826215246,-187500.02235174447,-187500.02235174447,-187500.02235174447,-187500.02235174447
$SILENCE,33460.80731878368,-6430.194548391646,15798.257684499942,11410.811413623263,-187500.02235174447,-187500.02235174447,-187500.02235174447,-187500.02235174447
$SILENCE,33596.281241927296,-6439.336411873867,16095.580589244437,11325.584212015177,-187500.02235174447,-187500.02235174447,-187500.02235174447,-187500.02235174447
$SILENCE,33748.9660083015,-6431.736818759063,16339.751045674211,11333.362619085625,-187500.02235174447,-187500.02235174447,-187500.02235174447,-187500.02235174447
$SILENCE,33681.217870857465,-6392.084824095348,16154.365677161895,11434.660724957077,-187500.02235174447,-187500.02235174447,-187500.02235174447,-187500.02235174447
$SILENCE,33507.67892690646,-6401.5843154888535,15863.61418528726,11450.083428631238,-187500.02235174447,-187500.02235174447,-187500.02235174447,-187500.02235174447
$SILENCE,33523.72747942537,-6476.753232092051,15962.364192290806,11292.66009243251,-187500.02235174447,-187500.02235174447,-187500.02235174447,-187500.02235174447
$SILENCE,33723.55207485582,-6447.271281155501,16259.59769005748,11295.588170956156,-187500.02235174447,-187500.02235174447,-187500.02235174447,-187500.02235174447
$SILENCE,33666.62218172815,-6435.044876938448,16114.288999353528,11373.148724216071,-187500.02235174447,-187500.02235174447,-187500.02235174447,-187500.02235174447
$SILENCE,33492.27857497675,-6426.864138467806,15812.94278060708,11417.561640448766,-187500.02235174447,-187500.02235174447,-187500.02235174447,-187500.02235174447
$SILENCE,33552.516526283805,-6428.294650112945,15971.595462750849,11356.899005997064,-187500.02235174447,-187500.02235174447,-187500.02235174447,-187500.02235174447
$SILENCE,33722.70270856651,-6451.160484690725,16277.7920100441,11298.203325057428,-187500.02235174447,-187500.02235174447,-187500.02235174447,-187500.02235174447
$SILENCE,33707.72703978146,-6451.56281609092,16190.39668922385,11350.349944871657,-187500.02235174447,-187500.02235174447,-187500.02235174447,-187500.02235174447
$SILENCE,33555.2210873629,-6406.836975435851,15897.521781625961,11447.132998363139,-187500.02235174447,-187500.02235174447,-187500.02235174447,-187500.02235174447
$SILENCE,33530.8129824177,-6429.568699546898,15948.841386895347,11383.54228538779,-187500.02235174447,-187500.02235174447,-187500.02235174447,-187500.02235174447
$SILENCE,33682.15664412459,-6478.47431641511,16238.8329194585,11281.193647526938,-187500.02235174447,-187500.02235174447,-187500.02235174447,-187500.02235174447
$SILENCE,33721.78628704385,-6456.368441148811,16209.999169111154,11334.659020264033,-187500.02235174447,-187500.02235174447,-187500.02235174447,-187500.02235174447
$SILENCE,33566.86634622412,-6431.982687948071,15900.38280491624,11420.087387572215,-187500.02235174447,-187500.02235174447,-187500.02235174447,-187500.02235174447
$SILENCE,33512.462200219896,-6428.182891390668,15848.750275224482,11381.06124175325,-187500.02235174447,-187500.02235174447,-187500.02235174447,-187500.02235174447
$SILENCE,33702.6531937901,-6428.719333257596,16200.902009117844,11314.363636298614,-187500.02235174447,-187500.02235174447,-187500.02235174447,-187500.02235174447
$SILENCE,33736.06905175079,-6455.206150437135,16259.955317968765,11318.76692995631,-187500.02235174447,-187500.02235174447,-187500.02235174447,-187500.02235174447
$SILENCE,33598.22584369491,-6442.622118308797,15975.909349430724,11412.487794457413,-187500.02235174447,-187500.02235174447,-187500.02235174447,-187500.02235174447
$SILENCE,33504.30381349371,-6442.756228775529,15818.329551020808,11397.132146016616,-187500.02235174447,-187500.02235174447,-187500.02235174447,-187500.02235174447
$SILENCE,33676.85928068868,-6440.878682241283,16139.233546165651,11320.95740091293,-187500.02235174447,-187500.02235174447,-187500.02235174447,-187500.02235174447
$SILENCE,33810.25449159795,-6404.020655634482,16316.08054829604,11355.423790863013,-187500.02235174447,-187500.02235174447,-187500.02235174447,-187500.02235174447
$SILENCE,33652.98761761041,-6430.015734436004,16044.79742584198,11405.40229146508,-187500.02235174447,-187500.02235174447,-187500.02235174447,-187500.02235174447
$SILENCE,33538.09965111013,-6423.645487266242,15886.658833820682,11426.792910908809,-187500.02235174447,-187500.02235174447,-187500.02235174447,-187500.02235174447
$SILENCE,33636.98376858041,-6463.56570286342,16055.593318413892,11314.028360131784,-187500.02235174447,-187500.02235174447,-187500.02235174447,-187500.02235174447
$SILENCE,33749.14482225714,-6486.498592674565,16228.01467514213,11281.931255093963,-187500.02235174447,-187500.02235174447,-187500.02235174447,-187500.02235174447
$SILENCE,33685.37529532615,-6448.6570893117305,16057.672030648237,11377.35085217367,-187500.02235174447,-187500.02235174447,-187500.02235174447,-187500.02235174447
$SILENCE,33538.77020344379,-6440.297536885445,15803.443289213574,11412.599553179689,-187500.02235174447,-187500.02235174447,-187500.02235174447,-187500.02235174447
$SILENCE,33629.45123069897,-6447.159522433224,16010.800422525457,11331.976810929396,-187500.02235174447,-187500.02235174447,-187500.02235174447,-187500.02235174447
$SILENCE,33796.73168620249,-6439.805798507428,16287.64912934889,11311.681426963976,-187500.02235174447,-187500.02235174447,-187500.02235174447,-187500.02235174447
$SILENCE,33755.55977291582,-6414.660085995208,16168.022593024087,11399.479079184423,-187500.02235174447,-187500.02235174447,-187500.02235174447,-187500.02235174447
$SILENCE,33568.49802356935,-6438.397638606744,15841.910641421156,11426.390579508612,-187500.02235174447,-187500.02235174447,-187500.02235174447,-187500.02235174447
$SILENCE,33598.67287858402,-6464.146848219258,15943.879299626267,11340.738694755877,-187500.02235174447,-187500.02235174447,-187500.02235174447,-187500.02235174447
$SILENCE,33789.86970065471,-6449.75232479004,16267.107876194463,11304.305351293726,-187500.02235174447,-187500.02235174447,-187500.02235174447,-187500.02235174447
$SILENCE,33798.29630831436,-6428.160539646214,16234.384922311894,11378.334328929703,-187500.02235174447,-187500.02235174447,-187500.02235174447,-187500.02235174447
$SILENCE,33611.01104152334,-6453.03803122497,15918.308903969397,11422.523727717844,-187500.02235174447,-187500.02235174447,-187500.02235174447,-187500.02235174447
$SILENCE,33583.69720979896,-6463.520999374509,15878.768668027958,11352.205139661448,-187500.02235174447,-187500.02235174447,-187500.02235174447,-187500.02235174447
$SILENCE,33781.197223806055,-6450.355821890334,16207.473421987705,11300.23733380286,-187500.02235174447,-187500.02235174447,-187500.02235174447,-187500.02235174447
$SILENCE,33824.93958770509,-6418.951620930627,16245.851367217467,11365.482075867902,-187500.02235174447,-187500.02235174447,-187500.02235174447,-187500.02235174447
$SILENCE,33626.92548357552,-6460.034127239482,15896.270083936464,11392.304169214269,-187500.02235174447,-187500.02235174447,-187500.02235174447,-187500.02235174447
$SILENCE,33579.293916141265,-6466.180856964691,15848.593813013294,11359.625918820611,-187500.02235174447,-187500.02235174447,-187500.02235174447,-187500.02235174447
$SILENCE,33761.66179915211,-6464.61623485282,16187.893293844856,11300.036168102763,-187500.02235174447,-187500.02235174447,-187500.02235174447,-187500.02235174447
$SILENCE,33840.965788479545,-6447.137170688769,16301.551914400092,11347.600680303656,-187500.02235174447,-187500.02235174447,-187500.02235174447,-187500.02235174447
$SILENCE,33696.595871042715,-6442.018621208504,16013.594390582371,11425.720027174953,-187500.02235174447,-187500.02235174447,-187500.02235174447,-187500.02235174447
$SILENCE,33585.59710807766,-6449.014717223015,15810.349978250264,11392.97472154793,-187500.02235174447,-187500.02235174447,-187500.02235174447,-187500.02235174447
$SILENCE,33746.797889089336,-6458.156580705236,16114.937199942733,11308.28396180677,-187500.02235174447,-187500.02235174447,-187500.02235174447,-187500.02235174447
não,33840.7869745239,-6474.205133224146,16267.733725039212,11301.846659403642,-187500.02235174447,-187500.02235174447,-187500.02235174447,-187500.02235174447
não,33730.10113598122,-6452.792162035962,16040.684704862202,11392.594741892188,-187500.02235174447,-187500.02235174447,-187500.02235174447,-187500.02235174447
não,33591.92265175851,-6452.99332773606,15813.993312596478,11402.20599200797,-187500.02235174447,-187500.02235174447,-187500.02235174447,-187500.02235174447
não,33725.45197313451,-6455.787295792973,16095.290016566518,11331.10509289564,-187500.02235174447,-187500.02235174447,-187500.02235174447,-187500.02235174447
não,33877.376780197235,-6447.18187417768,16342.23208930875,11326.724150982398,-187500.02235174447,-187500.02235174447,-187500.02235174447,-187500.02235174447
não,33782.96301161802,-6445.550196832442,16091.80314443149,11384.302244699269,-187500.02235174447,-187500.02235174447,-187500.02235174447,-187500.02235174447
não,33602.1821024635,-6470.695909344663,15786.232445982987,11388.459669167956,-187500.02235174447,-187500.02235174447,-187500.02235174447,-187500.02235174447
não,33657.592076968205,-6500.3343224924,15964.286442313964,11291.386042998558,-187500.02235174447,-187500.02235174447,-187500.02235174447,-187500.02235174447
não,33856.74612006499,-6475.434479169188,16282.08354497952,11298.270380290793,-187500.02235174447,-187500.02235174447,-187500.02235174447,-187500.02235174447
não,33830.66163428565,-6444.3208508874,16170.235415725163,11387.275026711826,-187500.02235174447,-187500.02235174447,-187500.02235174447,-187500.02235174447
não,33654.149908322084,-6448.27710965599,15851.9912781705,11419.93092536103,-187500.02235174447,-187500.02235174447,-187500.02235174447,-187500.02235174447
não,33682.80484471379,-6472.0817175008915,15965.940471403655,11337.05065692075,-187500.02235174447,-187500.02235174447,-187500.02235174447,-187500.02235174447
não,33880.64013488771,-6454.200321936646,16287.93970202681,11314.631857232078,-187500.02235174447,-187500.02235174447,-187500.02235174447,-187500.02235174447
não,33880.729541865534,-6424.6513157667305,16225.310114063039,11383.072898754228,-187500.02235174447,-187500.02235174447,-187500.02235174447,-187500.02235174447
não,33651.75827166537,-6484.1740112512125,15846.313935078853,11384.34694818818,-187500.02235174447,-187500.02235174447,-187500.02235174447,-187500.02235174447
não,33651.73591992092,-6482.207057739146,15881.562636084873,11339.107017410639,-187500.02235174447,-187500.02235174447,-187500.02235174447,-187500.02235174447
não,33860.72473057803,-6465.867932542316,16237.983553169199,11304.528868738278,-187500.02235174447,-187500.02235174447,-187500.02235174447,-187500.02235174447
não,33881.511852921474,-6467.141981976269,16245.225518372717,11345.656078536043,-187500.02235174447,-187500.02235174447,-187500.02235174447,-187500.02235174447
não,33716.22070267447,-6466.337319175878,15926.57904941786,11403.949428075484,-187500.02235174447,-187500.02235174447,-187500.02235174447,-187500.02235174447
não,33666.8456991727,-6463.99038600807,15862.720115509048,11375.607416106155,-187500.02235174447,-187500.02235174447,-187500.02235174447,-187500.02235174447
não,33842.95509373607,-6467.007871509537,16172.448238426237,11295.901095378531,-187500.02235174447,-187500.02235174447,-187500.02235174447,-187500.02235174447
não,33916.84996090531,-6446.667784055207,16261.631698802914,11323.974886414397,-187500.02235174447,-187500.02235174447,-187500.02235174447,-187500.02235174447
não,33775.78810164787,-6446.7795427774845,16002.664387543726,11410.900820601086,-187500.02235174447,-187500.02235174447,-187500.02235174447,-187500.02235174447
não,33670.801957941294,-6475.345072191367,15868.889196978713,11387.520895900834,-187500.02235174447,-187500.02235174447,-187500.02235174447,-187500.02235174447
não,33817.76467773494,-6481.491801916576,16119.452252322704,11296.549295967734,-187500.02235174447,-187500.02235174447,-187500.02235174447,-187500.02235174447
não,33967.29784814094,-6417.476405796577,16319.075682053053,11353.568596073223,-187500.02235174447,-187500.02235174447,-187500.02235174447,-187500.02235174447
não,33841.8375065133,-6415.308286584412,16077.140400068809,11427.284649286825,-187500.02235174447,-187500.02235174447,-187500.02235174447,-187500.02235174447
não,33623.21509399594,-6511.733712164607,15765.26650968391,11348.785322759786,-187500.02235174447,-187500.02235174447,-187500.02235174447,-187500.02235174447
não,33779.61024994973,-6491.103052032358,16038.829510072412,11295.543467467245,-187500.02235174447,-187500.02235174447,-187500.02235174447,-187500.02235174447
não,33924.4048505312,-6484.866915329328,16282.642338590902,11288.189743541448,-187500.02235174447,-187500.02235174447,-187500.02235174447,-187500.02235174447
não,33853.92980026362,-6472.3722901788105,16095.200609588697,11372.120543971127,-187500.02235174447,-187500.02235174447,-187500.02235174447,-187500.02235174447
não,33707.30235663681,-6466.359670920333,15836.903850663168,11408.844460111197,-187500.02235174447,-187500.02235174447,-187500.02235174447,-187500.02235174447
não,33799.54800600386,-6460.794086550962,16056.8897195923,11339.554052299745,-187500.02235174447,-187500.02235174447,-187500.02235174447,-187500.02235174447
não,33945.4601938081,-6471.120592489314,16269.812437273556,11301.444328003447,-187500.02235174447,-187500.02235174447,-187500.02235174447,-187500.02235174447
não,33899.9520420971,-6438.889376984761,16127.767101260079,11373.327538171714,-187500.02235174447,-187500.02235174447,-187500.02235174447,-187500.02235174447
não,33740.80762157531,-6445.304327643434,15850.180786869621,11411.571372934744,-187500.02235174447,-187500.02235174447,-187500.02235174447,-187500.02235174447
não,33747.33433095626,-6497.652113157763,15938.269011767987,11321.180918357482,-187500.02235174447,-187500.02235174447,-187500.02235174447,-187500.02235174447
não,33965.4203016067,-6463.699813330151,16300.434327177327,11337.29652610976,-187500.02235174447,-187500.02235174447,-187500.02235174447,-187500.02235174447
não,33921.38736502974,-6479.7707175935175,16188.094459544953,11351.623994305612,-187500.02235174447,-187500.02235174447,-187500.02235174447,-187500.02235174447
não,33729.96702551449,-6479.23427572659,15823.336341778797,11394.82991633772,-187500.02235174447,-187500.02235174447,-187500.02235174447,-187500.02235174447
não,33731.129316226165,-6479.144868748769,15858.361525340264,11347.399514603558,-187500.02235174447,-187500.02235174447,-187500.02235174447,-187500.02235174447
não,33937.368862315285,-6461.978729007093,16240.710465992746,11324.24310734786,-187500.02235174447,-187500.02235174447,-187500.02235174447,-187500.02235174447
não,33977.4678918681,-6448.053592211437,16247.17012014033,11366.48790436839,-187500.02235174447,-187500.02235174447,-187500.02235174447,-187500.02235174447
não,33795.88231991319,-6467.2090372096345,15904.80845031839,11419.394483494101,-187500.02235174447,-187500.02235174447,-187500.02235174447,-187500.02235174447
não,33751.64821763614,-6463.90097903025,15879.372165128252,11408.285666499814,-187500.02235174447,-187500.02235174447,-187500.02235174447,-187500.02235174447
não,33915.33004228235,-6475.546237891464,16166.413267423306,11328.221717860904,-187500.02235174447,-187500.02235174447,-187500.02235174447,-187500.02235174447
não,33982.67584832619,-6470.651205855752,16233.043817644575,11348.33828787068,-187500.02235174447,-187500.02235174447,-187500.02235174447,-187500.02235174447
não,33853.259247929964,-6457.150752204747,15981.184361122176,11429.653934199088,-187500.02235174447,-187500.02235174447,-187500.02235174447,-187500.02235174447
não,33747.20022048953,-6460.9281970176935,15830.064216859844,11420.668532928054,-187500.02235174447,-187500.02235174447,-187500.02235174447,-187500.02235174447
não,33926.61767323228,-6440.319888629901,16148.777741048068,11377.507314384857,-187500.02235174447,-187500.02235174447,-187500.02235174447,-187500.02235174447
não,34020.87497960031,-6452.926272502694,16297.238027720217,11369.304224169759,-187500.02235174447,-187500.02235174447,-187500.02235174447,-187500.02235174447
não,33890.63136465924,-6456.882531271283,16056.17446376973,11429.318658032258,-187500.02235174447,-187500.02235174447,-187500.02235174447,-187500.02235174447
não,33784.617040707715,-6441.683345041674,15875.840589504312,11462.734515992943,-187500.02235174447,-187500.02235174447,-187500.02235174447,-187500.02235174447
não,33864.859803302264,-6477.870819314817,16058.834321359913,11347.667735537021,-187500.02235174447,-187500.02235174447,-187500.02235174447,-187500.02235174447
não,34066.0925586334,-6395.459937508099,16337.761740417689,11391.410099436058,-187500.02235174447,-187500.02235174447,-187500.02235174447,-187500.02235174447
não,33940.96749317259,-6451.205188179635,16104.81185970448,11440.74039944892,-187500.02235174447,-187500.02235174447,-187500.02235174447,-187500.02235174447
não,33719.9087405096,-6504.670560916729,15730.666009267094,11395.500468671378,-187500.02235174447,-187500.02235174447,-187500.02235174447,-187500.02235174447
não,33865.217431213554,-6457.843656282861,16011.35921613684,11392.438279681002,-187500.02235174447,-187500.02235174447,-187500.02235174447,-187500.02235174447
não,34031.112078560844,-6441.482179341577,16288.69966133829,11388.750241845875,-187500.02235174447,-187500.02235174447,-187500.02235174447,-187500.02235174447
não,33980.75359830303,-6435.044876938448,16152.152854460819,11441.321544804758,-187500.02235174447,-187500.02235174447,-187500.02235174447,-187500.02235174447
não,33786.53929073087,-6471.94760703416,15844.503443777972,11467.517789306377,-187500.02235174447,-187500.02235174447,-187500.02235174447,-187500.02235174447
não,33848.87830601672,-6455.60848183733,16008.40878586874,11434.951297634996,-187500.02235174447,-187500.02235174447,-187500.02235174447,-187500.02235174447
não,34015.42115395322,-6429.903975713727,16235.480157790204,11373.819276549732,-187500.02235174447,-187500.02235174447,-187500.02235174447,-187500.02235174447
não,33984.57574660489,-6455.295557414956,16151.214081193697,11414.834727625219,-187500.02235174447,-187500.02235174447,-187500.02235174447,-187500.02235174447
não,33815.708317245044,-6470.919426789216,15875.371202870752,11471.764620752887,-187500.02235174447,-187500.02235174447,-187500.02235174447,-187500.02235174447
não,33869.33015219333,-6396.488117753043,15949.288421784453,11493.244647174437,-187500.02235174447,-187500.02235174447,-187500.02235174447,-187500.02235174447
não,34081.448207074194,-6376.170382043169,16362.169845362885,11463.27095785987,-187500.02235174447,-187500.02235174447,-187500.02235174447,-187500.02235174447
não,34043.47259324462,-6473.221656468112,16353.385609791949,11446.060114629283,-187500.02235174447,-187500.02235174447,-187500.02235174447,-187500.02235174447
não,33821.944453948076,-6491.23716249909,15872.174903413643,11454.978460666951,-187500.02235174447,-187500.02235174447,-187500.02235174447,-187500.02235174447
não,33794.898843157156,-6433.815530993406,15752.302497899831,11442.84146342772,-187500.02235174447,-187500.02235174447,-187500.02235174447,-187500.02235174447
não,33951.36105434431,-6478.295502459468,16102.733147470135,11354.10503794015,-187500.02235174447,-187500.02235174447,-187500.02235174447,-187500.02235174447
não,34065.4890615331,-6428.562871046409,16263.93392848181,11420.981457350428,-187500.02235174447,-187500.02235174447,-187500.02235174447,-187500.02235174447
não,33930.48452502305,-6434.106103671325,16047.345524709885,11500.03957748885,-187500.02235174447,-187500.02235174447,-187500.02235174447,-187500.02235174447
não,33854.91327701965,-6457.217807438113,16037.443701916183,11510.902525294128,-187500.02235174447,-187500.02235174447,-187500.02235174447,-187500.02235174447
não,33962.045188193944,-6443.695002042652,16115.518345298571,11429.251602798891,-187500.02235174447,-187500.02235174447,-187500.02235174447,-187500.02235174447
não,34041.6844536882,-6447.025411966492,16176.24803498364,11397.646236139088,-187500.02235174447,-187500.02235174447,-187500.02235174447,-187500.02235174447
não,33936.67595823717,-6463.364537163322,16024.479690132106,11467.450734073012,-187500.02235174447,-187500.02235174447,-187500.02235174447,-187500.02235174447
não,33805.672383984616,-6459.967072006116,15842.268269332442,11480.258283645902,-187500.02235174447,-187500.02235174447,-187500.02235174447,-187500.02235174447
não,33943.806164718415,-6430.909804214216,16066.903301108277,11436.78414068033,-187500.02235174447,-187500.02235174447,-187500.02235174447,-187500.02235174447
não,34082.923422208245,-6450.109952701325,16273.165198941851,11410.856117112175,-187500.02235174447,-187500.02235174447,-187500.02235174447,-187500.02235174447
não,33995.55045313245,-6472.305234945445,16101.392042802818,11464.857931716197,-187500.02235174447,-187500.02235174447,-187500.02235174447,-187500.02235174447
não,33856.7908235539,-6446.868949755305,15861.33430735282,11505.783975813863,-187500.02235174447,-187500.02235174447,-187500.02235174447,-187500.02235174447
não,33948.701196754126,-6427.1770628901795,16053.760475368557,11452.117437376672,-187500.02235174447,-187500.02235174447,-187500.02235174447,-187500.02235174447
não,34102.7494195401,-6444.723182287596,16333.269039782172,11425.720027174953,-187500.02235174447,-187500.02235174447,-187500.02235174447,-187500.02235174447
não,34029.54745644897,-6467.164333720724,16164.28985170005,11453.011507154884,-187500.02235174447,-187500.02235174447,-187500.02235174447,-187500.02235174447
não,33900.75670489749,-6427.601746034831,15894.638406591226,11530.28148773688,-187500.02235174447,-187500.02235174447,-187500.02235174447,-187500.02235174447
não,33877.175614497144,-6478.8319443263945,15944.482796726561,11430.07861734374,-187500.02235174447,-187500.02235174447,-187500.02235174447,-187500.02235174447
não,34038.376395508814,-6489.9854648095925,16237.335352579994,11370.690032325987,-187500.02235174447,-187500.02235174447,-187500.02235174447,-187500.02235174447
não,34057.040102128994,-6475.121554746814,16217.174079081307,11434.437207512523,-187500.02235174447,-187500.02235174447,-187500.02235174447,-187500.02235174447
não,33902.36603049827,-6467.812534309928,15919.270028980975,11496.731519309464,-187500.02235174447,-187500.02235174447,-187500.02235174447,-187500.02235174447
não,33881.46714943256,-6469.980653522093,15917.191316746632,11448.40704779709,-187500.02235174447,-187500.02235174447,-187500.02235174447,-187500.02235174447
não,34044.053738600465,-6475.523886147009,16224.594858240469,11388.6384831236,-187500.02235174447,-187500.02235174447,-187500.02235174447,-187500.02235174447
não,34077.044913416496,-6477.446136170165,16252.892166720889,11427.30700103128,-187500.02235174447,-187500.02235174447,-187500.02235174447,-187500.02235174447
não,33945.39313857474,-6480.530676904998,15974.657651741225,11488.819001772286,-187500.02235174447,-187500.02235174447,-187500.02235174447,-187500.02235174447
não,33875.70039936309,-6484.844563584872,15887.776421043447,11457.794780468319,-187500.02235174447,-187500.02235174447,-187500.02235174447,-187500.02235174447
não,34034.040157084484,-6487.258551986045,16196.297549760051,11386.895047056085,-187500.02235174447,-187500.02235174447,-187500.02235174447,-187500.02235174447
não,34104.872835263355,-6493.561743922442,16295.204018974784,11410.073806056238,-187500.02235174447,-187500.02235174447,-187500.02235174447,-187500.02235174447
não,33984.285173926975,-6511.353732508866,16034.001533270066,11470.98230969695,-187500.02235174447,-187500.02235174447,-187500.02235174447,-187500.02235174447
não,33876.77328309695,-6523.401322770277,15869.872673734746,11443.824940183753,-187500.02235174447,-187500.02235174447,-187500.02235174447,-187500.02235174447
