WORD,Channel_1,Channel_2,Channel_3,Channel_4,Channel_5,Channel_6,Channel_7,Channel_8
não,3163.9564828820808,-8287.69156786103,6610.751940101617,12354.658526737516,-187500.02235174447,-187500.02235174447,-187500.02235174447,-187500.02235174447
não,3293.7307111895934,-8302.68958839054,6734.71471485075,12315.67708440746,-187500.02235174447,-187500.02235174447,-187500.02235174447,-187500.02235174447
não,3509.022713783111,-8252.465218599466,7205.218935634964,12271.174761196944,-187500.02235174447,-187500.02235174447,-187500.02235174447,-187500.02235174447
não,3410.965610857679,-8238.517730059353,7131.905213821557,12299.919104566468,-187500.02235174447,-187500.02235174447,-187500.02235174447,-187500.02235174447
não,3189.996265172513,-8282.215390469479,6676.711937989228,12350.456398779917,-187500.02235174447,-187500.02235174447,-187500.02235174447,-187500.02235174447
não,3254.9951380485463,-8311.183251283557,6666.877170428893,12323.72371241137,-187500.02235174447,-187500.02235174447,-187500.02235174447,-187500.02235174447
não,3496.729254332692,-8265.764506550373,7152.960557098456,12269.52073210725,-187500.02235174447,-187500.02235174447,-187500.02235174447,-187500.02235174447
não,3447.577768275472,-8239.121227159647,7186.644635992603,12294.487630663829,-187500.02235174447,-187500.02235174447,-187500.02235174447,-187500.02235174447
não,3216.30426839641,-8273.967596765471,6742.426066687831,12348.198872589932,-187500.02235174447,-187500.02235174447,-187500.02235174447,-187500.02235174447
não,3222.7639225439934,-8315.810062385806,6602.705312097706,12339.436988763451,-187500.02235174447,-187500.02235174447,-187500.02235174447,-187500.02235174447
não,3485.5310303605834,-8277.566227622776,7092.49908834685,12280.71895607936,-187500.02235174447,-187500.02235174447,-187500.02235174447,-187500.02235174447
não,3485.083995471477,-8240.618794038153,7236.533729616849,12286.709223593381,-187500.02235174447,-187500.02235174447,-187500.02235174447,-187500.02235174447
não,3257.1409055162558,-8267.373832151156,6830.44723635283,12339.235823063353,-187500.02235174447,-187500.02235174447,-187500.02235174447,-187500.02235174447
não,3194.2878001079325,-8312.97139083998,6570.630558804341,12348.176520845476,-187500.02235174447,-187500.02235174447,-187500.02235174447,-187500.02235174447
não,3446.415477563796,-8286.775146338361,7010.915221084979,12290.978406784345,-187500.02235174447,-187500.02235174447,-187500.02235174447,-187500.02235174447
não,3507.480443415695,-8241.356401605177,7259.4666194279935,12284.362290425575,-187500.02235174447,-187500.02235174447,-187500.02235174447,-187500.02235174447
não,3298.379874036297,-8260.981233236937,6910.89116464748,12331.524471226272,-187500.02235174447,-187500.02235174447,-187500.02235174447,-187500.02235174447
não,3168.3374247953207,-8311.3620652392,6552.458590562176,12351.64104123605,-187500.02235174447,-187500.02235174447,-187500.02235174447,-187500.02235174447
não,3398.2698200070645,-8297.839259843739,6916.501452505762,12295.225238230854,-187500.02235174447,-187500.02235174447,-187500.02235174447,-187500.02235174447
não,3516.577603409005,-8247.72664877494,7266.239197997952,12271.688851319415,-187500.02235174447,-187500.02235174447,-187500.02235174447,-187500.02235174447
não,3339.6411943007943,-8254.968613978459,7001.706302369393,12320.616819932082,-187500.02235174447,-187500.02235174447,-187500.02235174447,-187500.02235174447
não,3167.8009829283933,-8307.159937281602,6569.691785537218,12354.971451159889,-187500.02235174447,-187500.02235174447,-187500.02235174447,-187500.02235174447
não,3356.963796253657,-8309.015132071392,6819.5172333141845,12308.077491292655,-187500.02235174447,-187500.02235174447,-187500.02235174447,-187500.02235174447
não,3529.183987281798,-8253.761619777873,7255.130381003664,12275.779220554736,-187500.02235174447,-187500.02235174447,-187500.02235174447,-187500.02235174447
não,3386.0434157900117,-8249.559491820275,7077.9704544509,12312.346674483619,-187500.02235174447,-187500.02235174447,-187500.02235174447,-187500.02235174447
não,3169.8349916738266,-8297.325169721267,6611.087216268446,12357.094866883144,-187500.02235174447,-187500.02235174447,-187500.02235174447,-187500.02235174447
não,3301.6655804712273,-8315.228917029968,6728.277412447622,12318.001665830812,-187500.02235174447,-187500.02235174447,-187500.02235174447,-187500.02235174447
não,3527.731123892203,-8264.289291416322,7221.021618964865,12269.632490829526,-187500.02235174447,-187500.02235174447,-187500.02235174447,-187500.02235174447
não,3430.7469047006257,-8247.704297030485,7154.480475721416,12297.438060931929,-187500.02235174447,-187500.02235174447,-187500.02235174447,-187500.02235174447
não,3204.9942857020246,-8292.407785941099,6667.614777995918,12348.400038290029,-187500.02235174447,-187500.02235174447,-187500.02235174447,-187500.02235174447
não,3266.3721759762975,-8322.426178744576,6643.117266072902,12326.718846168382,-187500.02235174447,-187500.02235174447,-187500.02235174447,-187500.02235174447
não,3515.4600161862395,-8273.900541532104,7155.218083288441,12271.733554808327,-187500.02235174447,-187500.02235174447,-187500.02235174447,-187500.02235174447
não,3475.025710466589,-8246.810227252272,7204.548383301304,12292.408918429484,-187500.02235174447,-187500.02235174447,-187500.02235174447,-187500.02235174447
não,3235.392658161242,-8283.802364325806,6749.28805223561,12345.740180699848,-187500.02235174447,-187500.02235174447,-187500.02235174447,-187500.02235174447
não,3223.0768469663676,-8325.510719479409,6590.031872991547,12333.781997416258,-187500.02235174447,-187500.02235174447,-187500.02235174447,-187500.02235174447
não,3494.6281903538934,-8286.439870171533,7086.5982278106485,12273.47699087584,-187500.02235174447,-187500.02235174447,-187500.02235174447,-187500.02235174447
não,3505.871117814913,-8247.279613885834,7248.961299533999,12282.104764235588,-187500.02235174447,-187500.02235174447,-187500.02235174447,-187500.02235174447
não,3270.6413591672613,-8273.900541532104,6836.079875955567,12334.944288127934,-187500.02235174447,-187500.02235174447,-187500.02235174447,-187500.02235174447
não,3189.2810093499434,-8322.806158400317,6555.63253827483,12342.275660309275,-187500.02235174447,-187500.02235174447,-187500.02235174447,-187500.02235174447
não,3465.9509022177344,-8298.934495322048,6998.800575590203,12280.562493868172,-187500.02235174447,-187500.02235174447,-187500.02235174447,-187500.02235174447
não,3540.4939699761835,-8252.308756388278,7273.771735879391,12274.102839720588,-187500.02235174447,-187500.02235174447,-187500.02235174447,-187500.02235174447
não,3317.669429501227,-8267.932625762538,6928.1690631114325,12324.43896823394,-187500.02235174447,-187500.02235174447,-187500.02235174447,-187500.02235174447
não,3165.878732905237,-8318.469919975987,6552.883273706827,12347.908299912013,-187500.02235174447,-187500.02235174447,-187500.02235174447,-187500.02235174447
não,3410.6079829463943,-8309.618629171686,6909.259487302243,12290.710185850881,-187500.02235174447,-187500.02235174447,-187500.02235174447,-187500.02235174447
não,3550.3287375365185,-8258.880169258138,7276.655110914125,12267.37496463954,-187500.02235174447,-187500.02235174447,-187500.02235174447,-187500.02235174447
não,3367.446764403196,-8264.579864094241,7019.118311300077,12311.407901216497,-187500.02235174447,-187500.02235174447,-187500.02235174447,-187500.02235174447
não,3179.289779578421,-8314.424254229576,6574.20683791719,12348.757666201314,-187500.02235174447,-187500.02235174447,-187500.02235174447,-187500.02235174447
não,3376.7450900966037,-8319.878079876671,6815.471567567774,12302.57896215665,-187500.02235174447,-187500.02235174447,-187500.02235174447,-187500.02235174447
não,3566.153772610876,-8266.591521095219,7264.853389841723,12265.765639038758,-187500.02235174447,-187500.02235174447,-187500.02235174447,-187500.02235174447
não,3419.3922185173296,-8262.009413481881,7103.652608830048,12301.48372667834,-187500.02235174447,-187500.02235174447,-187500.02235174447,-187500.02235174447
não,3192.7455297405163,-8310.445643716532,6622.620716407385,12344.77905568827,-187500.02235174447,-187500.02235174447,-187500.02235174447,-187500.02235174447
não,3325.000801682568,-8327.745893924939,6722.667124589339,12309.508002937795,-187500.02235174447,-187500.02235174447,-187500.02235174447,-187500.02235174447
não,3563.449211531784,-8276.672157844563,7226.721313800969,12264.46923786035,-187500.02235174447,-187500.02235174447,-187500.02235174447,-187500.02235174447
não,3462.151105660332,-8259.953052991994,7166.326900282729,12288.944398038913,-187500.02235174447,-187500.02235174447,-187500.02235174447,-187500.02235174447
não,3212.526823583463,-8301.460242445499,6681.60697002494,12339.571099230183,-187500.02235174447,-187500.02235174447,-187500.02235174447,-187500.02235174447
não,3280.9678651056133,-8331.523338737887,6649.331051031477,12319.856860620603,-187500.02235174447,-187500.02235174447,-187500.02235174447,-187500.02235174447
não,3554.1061823494656,-8283.824716070261,7167.958577627966,12269.364269896063,-187500.02235174447,-187500.02235174447,-187500.02235174447,-187500.02235174447
não,3508.128644004899,-8256.980270979437,7221.781578276346,12285.05519450369,-187500.02235174447,-187500.02235174447,-187500.02235174447,-187500.02235174447
não,3253.430515936675,-8291.73723360744,6761.5815116860285,12337.380628273562,-187500.02235174447,-187500.02235174447,-187500.02235174447,-187500.02235174447
não,3242.4111059202082,-8334.607879472718,6589.383672402343,12329.579869458661,-187500.02235174447,-187500.02235174447,-187500.02235174447,-187500.02235174447
não,3532.2014727832643,-8299.06860578878,7095.583629081682,12270.615967585562,-187500.02235174447,-187500.02235174447,-187500.02235174447,-187500.02235174447
não,3539.5328449646054,-8258.92487274705,7268.876703843678,12273.186418197922,-187500.02235174447,-187500.02235174447,-187500.02235174447,-187500.02235174447
não,3295.518850746018,-8282.68477710304,6855.011803509213,12324.617782189582,-187500.02235174447,-187500.02235174447,-187500.02235174447,-187500.02235174447
não,3210.3810561157534,-8331.41158001561,6561.265177877567,12337.06770385119,-187500.02235174447,-187500.02235174447,-187500.02235174447,-187500.02235174447
não,3475.562152333516,-8309.998608827425,6999.582886646139,12275.555703110183,-187500.02235174447,-187500.02235174447,-187500.02235174447,-187500.02235174447
não,3563.9409499098006,-8261.294157659311,7285.171125551597,12267.956109995379,-187500.02235174447,-187500.02235174447,-187500.02235174447,-187500.02235174447
não,3350.7053078061713,-8278.884980545638,6941.647165017983,12314.447738462417,-187500.02235174447,-187500.02235174447,-187500.02235174447,-187500.02235174447
não,3191.225611117555,-8326.829472402273,6553.799695229494,12342.879157409569,-187500.02235174447,-187500.02235174447,-187500.02235174447,-187500.02235174447
não,3435.574881502972,-8317.441739731043,6902.5763157101055,12288.162086982977,-187500.02235174447,-187500.02235174447,-187500.02235174447,-187500.02235174447
não,3585.0633484200657,-8270.056041485792,7285.282884273874,12260.445923858397,-187500.02235174447,-187500.02235174447,-187500.02235174447,-187500.02235174447
não,3403.030741576045,-8273.185285709535,7028.930727115957,12304.344749968619,-187500.02235174447,-187500.02235174447,-187500.02235174447,-187500.02235174447
não,3204.748416513016,-8324.482539234465,6580.219457175667,12346.366029544597,-187500.02235174447,-187500.02235174447,-187500.02235174447,-187500.02235174447
não,3393.1065670378885,-8348.287147079367,6806.888497696937,12291.425441673451,-187500.02235174447,-187500.02235174447,-187500.02235174447,-187500.02235174447
não,3602.9447439843116,-8271.598311853208,7291.764890165912,12269.677194318438,-187500.02235174447,-187500.02235174447,-187500.02235174447,-187500.02235174447
não,3448.382431075863,-8262.232930926435,7122.964516039434,12293.414746929973,-187500.02235174447,-187500.02235174447,-187500.02235174447,-187500.02235174447
não,3205.307210124399,-8312.479652461965,6626.934603087259,12332.038561348745,-187500.02235174447,-187500.02235174447,-187500.02235174447,-187500.02235174447
não,3336.0872669324003,-8334.004382372426,6721.2366129442,12296.923970809457,-187500.02235174447,-187500.02235174447,-187500.02235174447,-187500.02235174447
não,3588.550220555094,-8283.109460247691,7248.6036716227145,12257.0931621901,-187500.02235174447,-187500.02235174447,-187500.02235174447,-187500.02235174447
não,3497.31039968853,-8268.670233329563,7195.987665174922,12275.66746183246,-187500.02235174447,-187500.02235174447,-187500.02235174447,-187500.02235174447
não,3244.6686321101943,-8307.74108263744,6683.37275783691,12322.360255999596,-187500.02235174447,-187500.02235174447,-187500.02235174447,-187500.02235174447
não,3290.333246032387,-8335.79252192885,6643.407838750821,12307.071662792167,-187500.02235174447,-187500.02235174447,-187500.02235174447,-187500.02235174447
não,3574.4909732927053,-8305.304742491811,7175.871095165146,12251.684040031916,-187500.02235174447,-187500.02235174447,-187500.02235174447,-187500.02235174447
não,3549.7475921806804,-8265.272768172355,7236.936061017044,12272.784086797725,-187500.02235174447,-187500.02235174447,-187500.02235174447,-187500.02235174447
não,3312.841452698881,-8304.209507013502,6755.568892427551,12305.372930213563,-187500.02235174447,-187500.02235174447,-187500.02235174447,-187500.02235174447
não,3276.5422197034623,-8354.188007615568,6586.813221789983,12301.304912722697,-187500.02235174447,-187500.02235174447,-187500.02235174447,-187500.02235174447
não,3557.5259992511274,-8310.93738209455,7134.118036522632,12254.23213889982,-187500.02235174447,-187500.02235174447,-187500.02235174447,-187500.02235174447
não,3565.5949789994934,-8289.099727761713,7309.333361307784,12250.208824897865,-187500.02235174447,-187500.02235174447,-187500.02235174447,-187500.02235174447
não,3289.4615279986297,-8323.387303756155,6894.261466772731,12283.915255536469,-187500.02235174447,-187500.02235174447,-187500.02235174447,-187500.02235174447
não,3217.5112625969964,-8350.209397102522,6544.523721280542,12314.984180329346,-187500.02235174447,-187500.02235174447,-187500.02235174447,-187500.02235174447
não,3482.424137881296,-8336.708943451518,6983.891962038513,12236.887185202502,-187500.02235174447,-187500.02235174447,-187500.02235174447,-187500.02235174447
não,3590.271304878152,-8276.78391656684,7360.496504365981,12236.797778224682,-187500.02235174447,-187500.02235174447,-187500.02235174447,-187500.02235174447
não,3383.8976483223023,-8291.871344074172,7069.566198535705,12293.928837052446,-187500.02235174447,-187500.02235174447,-187500.02235174447,-187500.02235174447
não,3212.392713116731,-8364.156885642635,6633.1483880458345,12325.265982778787,-187500.02235174447,-187500.02235174447,-187500.02235174447,-187500.02235174447
não,3430.769256445081,-8369.029565933892,6907.337237279086,12248.778313252726,-187500.02235174447,-187500.02235174447,-187500.02235174447,-187500.02235174447
não,3599.5472788271045,-8301.370835467676,7339.9328994671,12211.383844778997,-187500.02235174447,-187500.02235174447,-187500.02235174447,-187500.02235174447
não,3443.8003234625253,-8297.056948787804,7100.88099251759,12243.27978411672,-187500.02235174447,-187500.02235174447,-187500.02235174447,-187500.02235174447
não,3182.5754860133516,-8379.601941061252,6577.939579241226,12277.343842666609,-187500.02235174447,-187500.02235174447,-187500.02235174447,-187500.02235174447
não,3349.7888862835034,-8397.304522669856,6844.439428381852,12223.36437980704,-187500.02235174447,-187500.02235174447,-187500.02235174447,-187500.02235174447
não,3586.5162118096605,-8334.45141726153,7234.119741215675,12194.642388181972,-187500.02235174447,-187500.02235174447,-187500.02235174447,-187500.02235174447
não,3441.676907739271,-8327.835300902761,7088.364015622618,12221.03979838369,-187500.02235174447,-187500.02235174447,-187500.02235174447,-187500.02235174447
não,3244.5345216434625,-8362.569911786308,6670.453449541742,12271.912368763968,-187500.02235174447,-187500.02235174447,-187500.02235174447,-187500.02235174447
não,3432.6915064682375,-8359.485371051476,6739.766209097649,12255.170912166943,-187500.02235174447,-187500.02235174447,-187500.02235174447,-187500.02235174447
não,3554.4638102607505,-8384.072289952313,7105.708969319937,12121.418073346385,-187500.02235174447,-187500.02235174447,-187500.02235174447,-187500.02235174447
não,3470.443602853251,-8356.512589038919,7130.832330087702,12169.496675669752,-187500.02235174447,-187500.02235174447,-187500.02235174447,-187500.02235174447
não,3233.939794771647,-8407.541621630386,6683.797440981561,12234.339086334598,-187500.02235174447,-187500.02235174447,-187500.02235174447,-187500.02235174447
não,3272.9882923350683,-8467.310186303877,6619.625582650374,12197.056376583145,-187500.02235174447,-187500.02235174447,-187500.02235174447,-187500.02235174447
não,3555.7825631836135,-8387.648569065163,7153.027612331822,12159.594852876051,-187500.02235174447,-187500.02235174447,-187500.02235174447,-187500.02235174447
não,3547.087734590499,-8320.772149654884,7207.4541100804945,12198.151612061456,-187500.02235174447,-187500.02235174447,-187500.02235174447,-187500.02235174447
não,3300.659751970739,-8360.021812918403,6792.069291123068,12257.406086612475,-187500.02235174447,-187500.02235174447,-187500.02235174447,-187500.02235174447
não,3221.0875417098455,-8477.502581775498,6582.074651965458,12215.407158780952,-187500.02235174447,-187500.02235174447,-187500.02235174447,-187500.02235174447
não,3543.869083388935,-8388.095603954269,7077.523419561794,12169.31786171411,-187500.02235174447,-187500.02235174447,-187500.02235174447,-187500.02235174447
não,3574.4462698037946,-8352.310461081323,7261.478276428971,12156.398553418941,-187500.02235174447,-187500.02235174447,-187500.02235174447,-187500.02235174447
não,3359.936578266213,-8372.717603769017,6885.678396901893,12234.719065990337,-187500.02235174447,-187500.02235174447,-187500.02235174447,-187500.02235174447
não,3277.7268621595936,-8411.386121676698,6570.652910548796,12275.779220554736,-187500.02235174447,-187500.02235174447,-187500.02235174447,-187500.02235174447
não,3542.930310121812,-8384.60873181924,7034.898642885523,12222.023275139723,-187500.02235174447,-187500.02235174447,-187500.02235174447,-187500.02235174447
não,3621.2955261821185,-8351.84107444776,7324.398437070661,12218.737568704793,-187500.02235174447,-187500.02235174447,-187500.02235174447,-187500.02235174447
não,3382.131860510333,-8366.190894388068,6964.937682740412,12275.801572299191,-187500.02235174447,-187500.02235174447,-187500.02235174447,-187500.02235174447
não,3217.7571317860047,-8398.265647681434,6582.231114176645,12308.725691881858,-187500.02235174447,-187500.02235174447,-187500.02235174447,-187500.02235174447
não,3482.1782686922875,-8390.576647588807,6925.330391565609,12268.961938495868,-187500.02235174447,-187500.02235174447,-187500.02235174447,-187500.02235174447
não,3659.405250478417,-8333.199719572034,7344.649117547169,12249.426513841929,-187500.02235174447,-187500.02235174447,-187500.02235174447,-187500.02235174447
não,3501.2666584571193,-8332.08213234927,7114.984943268889,12302.489555178829,-187500.02235174447,-187500.02235174447,-187500.02235174447,-187500.02235174447
não,3277.033958081479,-8382.015929462425,6643.430190495275,12346.38838128905,-187500.02235174447,-187500.02235174447,-187500.02235174447,-187500.02235174447
não,3469.0130912081113,-8388.475583610008,6843.813579537104,12302.690720878927,-187500.02235174447,-187500.02235174447,-187500.02235174447,-187500.02235174447
não,3692.8658119280117,-8329.511681736909,7334.590832542281,12272.649976330993,-187500.02235174447,-187500.02235174447,-187500.02235174447,-187500.02235174447
não,3567.3607668114623,-8312.278486761867,7200.927400699545,12320.572116443172,-187500.02235174447,-187500.02235174447,-187500.02235174447,-187500.02235174447
não,3299.2292403255988,-8362.614615275219,6706.953848237258,12381.659434039526,-187500.02235174447,-187500.02235174447,-187500.02235174447,-187500.02235174447
não,3403.3660177428746,-8389.883743510693,6768.935235611825,12358.838302950657,-187500.02235174447,-187500.02235174447,-187500.02235174447,-187500.02235174447
não,3689.49069851526,-8331.657449204618,7300.68323620358,12315.76649138528,-187500.02235174447,-187500.02235174447,-187500.02235174447,-187500.02235174447
não,3610.2314126767415,-8302.063739545792,7290.423785498594,12345.382552788562,-187500.02235174447,-187500.02235174447,-187500.02235174447,-187500.02235174447
não,3328.398266839775,-8337.848882418739,6813.884593711447,12410.69435008697,-187500.02235174447,-187500.02235174447,-187500.02235174447,-187500.02235174447
não,3370.6207121158495,-8370.773002001406,6733.4630171612525,12412.214268709931,-187500.02235174447,-187500.02235174447,-187500.02235174447,-187500.02235174447
não,3674.53738147466,-8333.64675446114,7246.636718110647,12353.518587770295,-187500.02235174447,-187500.02235174447,-187500.02235174447,-187500.02235174447
não,3634.2595379661966,-8319.095768820736,7319.21283235703,12337.134759084554,-187500.02235174447,-187500.02235174447,-187500.02235174447,-187500.02235174447
não,3405.847061377414,-8332.88679514966,6888.673530658905,12407.520402374317,-187500.02235174447,-187500.02235174447,-187500.02235174447,-187500.02235174447
não,3393.4641949491734,-8369.364842100722,6680.511734546631,12426.74290260588,-187500.02235174447,-187500.02235174447,-187500.02235174447,-187500.02235174447
não,3668.8376866385565,-8327.947059625038,7180.900237667589,12382.374689862096,-187500.02235174447,-187500.02235174447,-187500.02235174447,-187500.02235174447
não,3702.58882076607,-8282.327149191755,7396.460461194571,12388.476716098396,-187500.02235174447,-187500.02235174447,-187500.02235174447,-187500.02235174447
não,3451.466971810695,-8305.841184358738,7007.070721038666,12460.337574522207,-187500.02235174447,-187500.02235174447,-187500.02235174447,-187500.02235174447
não,3343.8656740028473,-8357.294900094856,6672.800382709549,12464.964385624455,-187500.02235174447,-187500.02235174447,-187500.02235174447,-187500.02235174447
não,3619.507386625694,-8353.137475626168,7065.118201389098,12370.058878667222,-187500.02235174447,-187500.02235174447,-187500.02235174447,-187500.02235174447
não,3715.955163950344,-8288.965617294982,7409.893859612211,12387.917922487011,-187500.02235174447,-187500.02235174447,-187500.02235174447,-187500.02235174447
não,3476.255056411631,-8292.877172574661,7101.998579740355,12443.529062691816,-187500.02235174447,-187500.02235174447,-187500.02235174447,-187500.02235174447
não,3310.4721677866182,-8353.383344815176,6665.26784482811,12465.433772258017,-187500.02235174447,-187500.02235174447,-187500.02235174447,-187500.02235174447
não,3569.506534279172,-8347.303670323334,6979.578075358639,12418.919792046523,-187500.02235174447,-187500.02235174447,-187500.02235174447,-187500.02235174447
não,3724.694696032369,-8283.936474792537,7400.8637548522665,12395.584570835183,-187500.02235174447,-187500.02235174447,-187500.02235174447,-187500.02235174447
não,3511.995495795667,-8278.795573567817,7177.391013788107,12439.75161787887,-187500.02235174447,-187500.02235174447,-187500.02235174447,-187500.02235174447
não,3295.295333301465,-8338.139455096658,6693.4310428417975,12469.23356881542,-187500.02235174447,-187500.02235174447,-187500.02235174447,-187500.02235174447
não,3479.0713762129994,-8352.332812825778,6860.577387878584,12412.907172788046,-187500.02235174447,-187500.02235174447,-187500.02235174447,-187500.02235174447
não,3665.172000547886,-8283.69060560353,7349.655908305158,12368.807180977725,-187500.02235174447,-187500.02235174447,-187500.02235174447,-187500.02235174447
não,3484.614608837916,-8274.97342526596,7237.472502883971,12411.208440209442,-187500.02235174447,-187500.02235174447,-187500.02235174447,-187500.02235174447
não,3284.298275029454,-8317.151167053124,6743.767171355149,12468.384202526118,-187500.02235174447,-187500.02235174447,-187500.02235174447,-187500.02235174447
não,3398.9180205962684,-8353.875083193194,6780.692253195317,12437.047056799776,-187500.02235174447,-187500.02235174447,-187500.02235174447,-187500.02235174447
não,3660.545189445638,-8312.300838506322,7303.745425193957,12384.855733496635,-187500.02235174447,-187500.02235174447,-187500.02235174447,-187500.02235174447
não,3576.27911284913,-8285.434041671044,7294.558858222826,12400.993692993366,-187500.02235174447,-187500.02235174447,-187500.02235174447,-187500.02235174447
não,3320.843377213881,-8314.759530396406,6818.421997835875,12451.50863546236,-187500.02235174447,-187500.02235174447,-187500.02235174447,-187500.02235174447
não,3342.2339966576096,-8346.856635434227,6720.789578055093,12439.483396945405,-187500.02235174447,-187500.02235174447,-187500.02235174447,-187500.02235174447
não,3616.0428662351214,-8298.710977877496,7263.333471218762,12416.148175734064,-187500.02235174447,-187500.02235174447,-187500.02235174447,-187500.02235174447
não,3572.546371525094,-8258.813114024773,7356.920225253132,12388.990806220867,-187500.02235174447,-187500.02235174447,-187500.02235174447,-187500.02235174447
não,3319.032885913001,-8281.231913713445,6897.994208096768,12421.624353125615,-187500.02235174447,-187500.02235174447,-187500.02235174447,-187500.02235174447
não,3271.446021967652,-8328.639963703152,6674.052080399047,12434.566013165238,-187500.02235174447,-187500.02235174447,-187500.02235174447,-187500.02235174447
não,3552.452153259773,-8289.747928350918,7154.256958276864,12392.20945742243,-187500.02235174447,-187500.02235174447,-187500.02235174447,-187500.02235174447
não,3571.6523017468817,-8257.226140168446,7371.6947283380905,12374.864503725114,-187500.02235174447,-187500.02235174447,-187500.02235174447,-187500.02235174447
não,3357.8131625429587,-8290.172611495569,7010.378779218052,12426.586440394693,-187500.02235174447,-187500.02235174447,-187500.02235174447,-187500.02235174447
não,3294.1106908453335,-8322.470882233487,6719.9625635102475,12461.544568722793,-187500.02235174447,-187500.02235174447,-187500.02235174447,-187500.02235174447
não,3523.0372575565884,-8284.159992237092,7081.680844030481,12396.523344102305,-187500.02235174447,-187500.02235174447,-187500.02235174447,-187500.02235174447
não,3613.0030289891997,-8237.757770747874,7415.615906192769,12358.033640150266,-187500.02235174447,-187500.02235174447,-187500.02235174447,-187500.02235174447
não,3395.9452385837126,-8257.181436679535,7084.184239409476,12410.090852986677,-187500.02235174447,-187500.02235174447,-187500.02235174447,-187500.02235174447
não,3219.5005678535185,-8305.841184358738,6647.051173097036,12438.477568444916,-187500.02235174447,-187500.02235174447,-187500.02235174447,-187500.02235174447
não,3431.7974366900253,-8299.895620333627,6941.3789440845185,12404.346454661663,-187500.02235174447,-187500.02235174447,-187500.02235174447,-187500.02235174447
não,3626.7493518292135,-8243.926852217539,7399.232077507028,12388.409660865029,-187500.02235174447,-187500.02235174447,-187500.02235174447,-187500.02235174447
não,3471.1812104202763,-8241.043477182804,7183.582447002226,12432.241431741886,-187500.02235174447,-187500.02235174447,-187500.02235174447,-187500.02235174447
não,3215.432550362653,-8293.59242839723,6701.164746423334,12465.098496091188,-187500.02235174447,-187500.02235174447,-187500.02235174447,-187500.02235174447
não,3384.8587733338804,-8294.26298073089,6873.809620596126,12418.495108901872,-187500.02235174447,-187500.02235174447,-187500.02235174447,-187500.02235174447
não,3616.1322732129424,-8239.434151582022,7380.613074375758,12399.943161003966,-187500.02235174447,-187500.02235174447,-187500.02235174447,-187500.02235174447
não,3443.934433929257,-8230.135825888614,7246.390848921639,12426.139405505588,-187500.02235174447,-187500.02235174447,-187500.02235174447,-187500.02235174447
não,3187.1799453711446,-8274.660500843585,6741.219072487244,12473.41334502856,-187500.02235174447,-187500.02235174447,-187500.02235174447,-187500.02235174447
não,3275.7599086475266,-8305.349445980723,6764.017851831657,12449.094647061187,-187500.02235174447,-187500.02235174447,-187500.02235174447,-187500.02235174447
não,3564.857371432468,-8247.838407497216,7296.995198368454,12390.823649266202,-187500.02235174447,-187500.02235174447,-187500.02235174447,-187500.02235174447
não,3499.5679258785162,-8224.704351985974,7304.572439738803,12401.999521493855,-187500.02235174447,-187500.02235174447,-187500.02235174447,-187500.02235174447
não,3241.0252977639793,-8264.646919327608,6816.92443095737,12457.70006867648,-187500.02235174447,-187500.02235174447,-187500.02235174447,-187500.02235174447
não,3244.9592047881133,-8304.053044802315,6692.872249230415,12445.808940626257,-187500.02235174447,-187500.02235174447,-187500.02235174447,-187500.02235174447
não,3515.7505888641585,-8265.429230383543,7210.717464770969,12379.625425294093,-187500.02235174447,-187500.02235174447,-187500.02235174447,-187500.02235174447
não,3503.4347776692844,-8227.140692131603,7339.798789000367,12396.523344102305,-187500.02235174447,-187500.02235174447,-187500.02235174447,-187500.02235174447
não,3253.8999025702365,-8253.359288377678,6897.144841807466,12453.676754674525,-187500.02235174447,-187500.02235174447,-187500.02235174447,-187500.02235174447
não,3194.82424197486,-8301.057911045304,6641.910271872315,12453.319126763241,-187500.02235174447,-187500.02235174447,-187500.02235174447,-187500.02235174447
não,3466.0179574511003,-8267.507942617887,7118.024780514811,12388.320253887208,-187500.02235174447,-187500.02235174447,-187500.02235174447,-187500.02235174447
não,3527.865234358935,-8223.966744418949,7361.9493677555765,12389.862524254624,-187500.02235174447,-187500.02235174447,-187500.02235174447,-187500.02235174447
não,3313.8249294549146,-8242.652802783585,6990.575133630649,12449.944013350489,-187500.02235174447,-187500.02235174447,-187500.02235174447,-187500.02235174447
não,3177.7698609554604,-8297.325169721267,6626.420512964787,12467.713650192458,-187500.02235174447,-187500.02235174447,-187500.02235174447,-187500.02235174447
não,3412.060846335989,-8294.419442942077,7011.474014696362,12400.993692993366,-187500.02235174447,-187500.02235174447,-187500.02235174447,-187500.02235174447
não,3533.7437431506805,-8241.982250449926,7352.762800784445,12382.061765439721,-187500.02235174447,-187500.02235174447,-187500.02235174447,-187500.02235174447
não,3341.429333857219,-8228.973535176938,7061.653680998526,12433.895460831578,-187500.02235174447,-187500.02235174447,-187500.02235174447,-187500.02235174447
não,3154.9710816110473,-8283.020053269871,6625.906422842315,12464.204426312976,-187500.02235174447,-187500.02235174447,-187500.02235174447,-187500.02235174447
não,3370.441898160207,-8284.785841081839,6905.124414578011,12407.632161096593,-187500.02235174447,-187500.02235174447,-187500.02235174447,-187500.02235174447
não,3542.5279787216164,-8236.148445147091,7335.931937209599,12374.573931047194,-187500.02235174447,-187500.02235174447,-187500.02235174447,-187500.02235174447
$SILENCE,3366.5303428805287,-8247.369020863654,7133.2016149999645,12406.69338782947,-187500.02235174447,-187500.02235174447,-187500.02235174447,-187500.02235174447
$SILENCE,3126.3161452193435,-8286.909256805093,6649.040478353558,12455.688411675503,-187500.02235174447,-187500.02235174447,-187500.02235174447,-187500.02235174447
$SILENCE,3301.620876982317,-8292.988931296937,6797.076081881057,12420.484414158394,-187500.02235174447,-187500.02235174447,-187500.02235174447,-187500.02235174447
$SILENCE,3528.580490181505,-8246.027916196337,7291.675483188091,12372.294053112753,-187500.02235174447,-187500.02235174447,-187500.02235174447,-187500.02235174447
$SILENCE,3401.220250275165,-8233.063904412258,7199.5862960322265,12398.132669703087,-187500.02235174447,-187500.02235174447,-187500.02235174447,-187500.02235174447
$SILENCE,3156.1557240671787,-8278.125021234158,6706.506813348153,12446.591251682194,-187500.02235174447,-187500.02235174447,-187500.02235174447,-187500.02235174447
$SILENCE,3243.8639693098035,-8309.104539049213,6708.5184703491295,12422.630181626104,-187500.02235174447,-187500.02235174447,-187500.02235174447,-187500.02235174447
$SILENCE,3510.40852193934,-8259.237797169424,7232.957450504,12367.935462943968,-187500.02235174447,-187500.02235174447,-187500.02235174447,-187500.02235174447
$SILENCE,3452.092820655444,-8232.192186378501,7253.431648425061,12385.414527108018,-187500.02235174447,-187500.02235174447,-187500.02235174447,-187500.02235174447
$SILENCE,3192.7678814849714,-8271.933588020038,6776.9595118712805,12441.60681266866,-187500.02235174447,-187500.02235174447,-187500.02235174447,-187500.02235174447
$SILENCE,3194.6454280192174,-8309.88685010515,6639.965670104703,12436.018876554834,-187500.02235174447,-187500.02235174447,-187500.02235174447,-187500.02235174447
$SILENCE,3472.410556365318,-8267.597349595708,7158.168513556542,12377.747878759847,-187500.02235174447,-187500.02235174447,-187500.02235174447,-187500.02235174447
$SILENCE,3474.533972088572,-8232.594517778698,7295.363521023217,12383.000538706845,-187500.02235174447,-187500.02235174447,-187500.02235174447,-187500.02235174447
$SILENCE,3218.3829806307535,-8261.048288470303,6858.49867564424,12440.042190556787,-187500.02235174447,-187500.02235174447,-187500.02235174447,-187500.02235174447
$SILENCE,3149.3160902638547,-8310.020960571881,6587.573181101463,12449.18405403901,-187500.02235174447,-187500.02235174447,-187500.02235174447,-187500.02235174447
$SILENCE,3426.6565354653044,-8281.500134646909,7059.2396925973535,12386.956797475434,-187500.02235174447,-187500.02235174447,-187500.02235174447,-187500.02235174447
$SILENCE,3491.6777600857927,-8234.96380269096,7322.16326262513,12384.006367207334,-187500.02235174447,-187500.02235174447,-187500.02235174447,-187500.02235174447
$SILENCE,3245.9203297996914,-8244.418590595555,6957.13692392551,12434.588364909694,-187500.02235174447,-187500.02235174447,-187500.02235174447,-187500.02235174447
$SILENCE,3120.817616083338,-8296.02876854286,6580.264160664578,12449.541681950293,-187500.02235174447,-187500.02235174447,-187500.02235174447,-187500.02235174447
$SILENCE,3391.1172617813663,-8285.702262604507,6960.556740827173,12387.113259686621,-187500.02235174447,-187500.02235174447,-187500.02235174447,-187500.02235174447
$SILENCE,3523.5960511679714,-8233.91327070156,7322.967925425521,12370.662375767515,-187500.02235174447,-187500.02235174447,-187500.02235174447,-187500.02235174447
$SILENCE,3294.781243178993,-8242.876320228139,7036.083285341655,12415.768196078325,-187500.02235174447,-187500.02235174447,-187500.02235174447,-187500.02235174447
$SILENCE,3103.2267931970114,-8299.917972078083,6590.2553904361,12451.620394184638,-187500.02235174447,-187500.02235174447,-187500.02235174447,-187500.02235174447
$SILENCE,3320.1504731357663,-8301.54964942332,6856.487018643263,12401.93246626049,-187500.02235174447,-187500.02235174447,-187500.02235174447,-187500.02235174447
$SILENCE,3496.5727921215052,-8247.480779585932,7303.119576349209,12371.891721712556,-187500.02235174447,-187500.02235174447,-187500.02235174447,-187500.02235174447
$SILENCE,3326.811292983448,-8237.10957015867,7116.437806658484,12413.041283254777,-187500.02235174447,-187500.02235174447,-187500.02235174447,-187500.02235174447
$SILENCE,3113.5532991353634,-8285.814021326783,6631.382600233866,12453.69910641898,-187500.02235174447,-187500.02235174447,-187500.02235174447,-187500.02235174447
$SILENCE,3262.840600352359,-8304.656541902606,6760.754497141183,12409.442652397473,-187500.02235174447,-187500.02235174447,-187500.02235174447,-187500.02235174447
$SILENCE,3503.6806468582927,-8251.995831965904,7266.015680553399,12363.35335533063,-187500.02235174447,-187500.02235174447,-187500.02235174447,-187500.02235174447
$SILENCE,3373.347624939397,-8235.76846549135,7186.778746459335,12391.941236488967,-187500.02235174447,-187500.02235174447,-187500.02235174447,-187500.02235174447
$SILENCE,3105.3502089202657,-8283.40003292561,6690.279446873599,12444.289022003297,-187500.02235174447,-187500.02235174447,-187500.02235174447,-187500.02235174447
$SILENCE,3170.5725992408516,-8314.267792018389,6669.961711163725,12419.053902513255,-187500.02235174447,-187500.02235174447,-187500.02235174447,-187500.02235174447
$SILENCE,3465.2803498840753,-8257.449657612999,7203.028464678343,12363.621576264093,-187500.02235174447,-187500.02235174447,-187500.02235174447,-187500.02235174447
$SILENCE,3429.1599308442987,-8233.890918957106,7246.4355524105495,12382.195875906453,-187500.02235174447,-187500.02235174447,-187500.02235174447,-187500.02235174447
$SILENCE,3168.2927213064104,-8270.905407775093,6771.282168779632,12435.594193410183,-187500.02235174447,-187500.02235174447,-187500.02235174447,-187500.02235174447
$SILENCE,3155.52987522243,-8311.272658261378,6610.483719168154,12427.346399706174,-187500.02235174447,-187500.02235174447,-187500.02235174447,-187500.02235174447
$SILENCE,3432.579747745961,-8272.760602564884,7121.668114861026,12362.660451252515,-187500.02235174447,-187500.02235174447,-187500.02235174447,-187500.02235174447
$SILENCE,3444.5602827740054,-8236.997811436393,7278.5997126817365,12365.052087909233,-187500.02235174447,-187500.02235174447,-187500.02235174447,-187500.02235174447
$SILENCE,3199.942791455125,-8256.06384945677,6855.637652353961,12430.430940441007,-187500.02235174447,-187500.02235174447,-187500.02235174447,-187500.02235174447
$SILENCE,3123.4551219290643,-8303.717768635484,6576.084384451436,12444.758408636859,-187500.02235174447,-187500.02235174447,-187500.02235174447,-187500.02235174447
$SILENCE,3368.2067237146766,-8277.856800300695,7044.375782534574,12387.426184108996,-187500.02235174447,-187500.02235174447,-187500.02235174447,-187500.02235174447
$SILENCE,3422.5885179744387,-8233.063904412258,7307.187593840074,12370.371803089596,-187500.02235174447,-187500.02235174447,-187500.02235174447,-187500.02235174447
$SILENCE,3226.0496289789235,-8252.35345987719,6938.272051605231,12410.873164042612,-187500.02235174447,-187500.02235174447,-187500.02235174447,-187500.02235174447
$SILENCE,3110.6028688672627,-8304.388320969143,6556.414849330766,12435.393027710084,-187500.02235174447,-187500.02235174447,-187500.02235174447,-187500.02235174447
$SILENCE,3351.152342695277,-8289.144431250625,6932.639412002494,12379.938349716467,-187500.02235174447,-187500.02235174447,-187500.02235174447,-187500.02235174447
$SILENCE,3473.930474988279,-8237.53425330332,7307.142890351163,12356.714887227403,-187500.02235174447,-187500.02235174447,-187500.02235174447,-187500.02235174447
$SILENCE,3288.1874785646773,-8246.027916196337,7030.651811439016,12400.591361593171,-187500.02235174447,-187500.02235174447,-187500.02235174447,-187500.02235174447
$SILENCE,3086.5523918333524,-8293.123041763669,6575.078555950947,12441.338591735195,-187500.02235174447,-187500.02235174447,-187500.02235174447,-187500.02235174447
$SILENCE,3278.9785598490907,-8296.87813483216,6828.301468885121,12392.388271378073,-187500.02235174447,-187500.02235174447,-187500.02235174447,-187500.02235174447
$SILENCE,3468.7225185301922,-8241.669326027552,7287.026320341387,12356.737238971858,-187500.02235174447,-187500.02235174447,-187500.02235174447,-187500.02235174447
$SILENCE,3317.8035399679593,-8238.115398659158,7112.54860312326,12390.220152165908,-187500.02235174447,-187500.02235174447,-187500.02235174447,-187500.02235174447
$SILENCE,3088.8769732567043,-8288.49623066142,6620.854928595416,12436.197690510475,-187500.02235174447,-187500.02235174447,-187500.02235174447,-187500.02235174447
$SILENCE,3217.265393407988,-8307.11523379269,6733.865348561448,12401.485431371384,-187500.02235174447,-187500.02235174447,-187500.02235174447,-187500.02235174447
$SILENCE,3459.021861436589,-8252.77814302184,7245.519130887882,12353.16095985901,-187500.02235174447,-187500.02235174447,-187500.02235174447,-187500.02235174447
$SILENCE,3372.5653138834614,-8236.550776547287,7174.664100964559,12375.110372914121,-187500.02235174447,-187500.02235174447,-187500.02235174447,-187500.02235174447
$SILENCE,3128.3054504758657,-8277.722689833963,6675.482592044186,12429.872146829623,-187500.02235174447,-187500.02235174447,-187500.02235174447,-187500.02235174447
$SILENCE,3191.627942517751,-8308.411634971098,6646.805303908027,12411.387254165085,-187500.02235174447,-187500.02235174447,-187500.02235174447,-187500.02235174447
$SILENCE,3456.8090387355137,-8259.573073336252,7184.252999335886,12356.625480249582,-187500.02235174447,-187500.02235174447,-187500.02235174447,-187500.02235174447
$SILENCE,3404.5283084545504,-8229.040590410303,7239.037124995843,12371.847018223647,-187500.02235174447,-187500.02235174447,-187500.02235174447,-187500.02235174447
$SILENCE,3141.269462259944,-8266.97150075096,6764.1072588094785,12423.859527571145,-187500.02235174447,-187500.02235174447,-187500.02235174447,-187500.02235174447
$SILENCE,3132.7310958780167,-8309.462166960499,6586.008558989592,12415.701140844958,-187500.02235174447,-187500.02235174447,-187500.02235174447,-187500.02235174447
$SILENCE,3421.24741330712,-8268.849047285205,7106.357169909141,12355.060858137711,-187500.02235174447,-187500.02235174447,-187500.02235174447,-187500.02235174447
$SILENCE,3426.7235906986703,-8229.15234913258,7281.7066051610245,12360.961718673912,-187500.02235174447,-187500.02235174447,-187500.02235174447,-187500.02235174447
$SILENCE,3176.920494666159,-8257.896692502105,6851.882559285469,12414.516498388828,-187500.02235174447,-187500.02235174447,-187500.02235174447,-187500.02235174447
$SILENCE,3105.238450197989,-8307.718730892984,6555.945462697204,12429.179242751508,-187500.02235174447,-187500.02235174447,-187500.02235174447,-187500.02235174447
$SILENCE,3382.578895399439,-8281.500134646909,7016.972543832368,12362.191064618954,-187500.02235174447,-187500.02235174447,-187500.02235174447,-187500.02235174447
$SILENCE,3459.9159312148013,-8230.515805544353,7304.103053105242,12349.115294112598,-187500.02235174447,-187500.02235174447,-187500.02235174447,-187500.02235174447
$SILENCE,3246.680289111172,-8251.884073243627,6947.726839509826,12396.188067935476,-187500.02235174447,-187500.02235174447,-187500.02235174447,-187500.02235174447
$SILENCE,3099.0246652394135,-8308.389283226643,6547.9211864377485,12413.913001288534,-187500.02235174447,-187500.02235174447,-187500.02235174447,-187500.02235174447
$SILENCE,3353.6557380742715,-8291.759585351896,6912.455786759351,12361.989898918855,-187500.02235174447,-187500.02235174447,-187500.02235174447,-187500.02235174447
$SILENCE,3493.890582786868,-8235.880224213628,7300.035035614376,12337.805311418213,-187500.02235174447,-187500.02235174447,-187500.02235174447,-187500.02235174447
$SILENCE,3303.163147349733,-8243.971555706448,7041.9841458778565,12384.274588140797,-187500.02235174447,-187500.02235174447,-187500.02235174447,-187500.02235174447
$SILENCE,3093.0791012143018,-8297.951018566015,6579.705367053195,12422.429015926005,-187500.02235174447,-187500.02235174447,-187500.02235174447,-187500.02235174447
$SILENCE,3283.448908740152,-8302.130794779157,6816.2091751348,12372.897550213045,-187500.02235174447,-187500.02235174447,-187500.02235174447,-187500.02235174447
$SILENCE,3490.917800774312,-8244.507997573375,7286.847506385745,12334.653715450015,-187500.02235174447,-187500.02235174447,-187500.02235174447,-187500.02235174447
$SILENCE,3354.438049130207,-8237.86952947015,7125.3338009516965,12373.255178124331,-187500.02235174447,-187500.02235174447,-187500.02235174447,-187500.02235174447
$SILENCE,3112.5474706348746,-8289.747928350918,6626.040533309047,12417.735149590391,-187500.02235174447,-187500.02235174447,-187500.02235174447,-187500.02235174447
$SILENCE,3240.69002159715,-8308.813966371294,6720.4319501438085,12379.111335171621,-187500.02235174447,-187500.02235174447,-187500.02235174447,-187500.02235174447
$SILENCE,3504.7088271032367,-8251.593500565708,7242.278127941862,12329.758683414304,-187500.02235174447,-187500.02235174447,-187500.02235174447,-187500.02235174447
$SILENCE,3403.4777764651512,-8231.633392767118,7193.037234906821,12358.324212828185,-187500.02235174447,-187500.02235174447,-187500.02235174447,-187500.02235174447
$SILENCE,3149.271386774944,-8278.527352634354,6693.654560286351,12410.157908220042,-187500.02235174447,-187500.02235174447,-187500.02235174447,-187500.02235174447
$SILENCE,3212.3256578833652,-8313.88781236265,6648.83931265346,12397.015082480322,-187500.02235174447,-187500.02235174447,-187500.02235174447,-187500.02235174447
$SILENCE,3482.312379159019,-8263.082297215737,7184.27535108034,12337.87236665158,-187500.02235174447,-187500.02235174447,-187500.02235174447,-187500.02235174447
$SILENCE,3433.6526314798157,-8230.806378222273,7249.184816978553,12348.400038290029,-187500.02235174447,-187500.02235174447,-187500.02235174447,-187500.02235174447
$SILENCE,3179.7591662119826,-8268.670233329563,6774.456116492286,12394.578742334694,-187500.02235174447,-187500.02235174447,-187500.02235174447,-187500.02235174447
$SILENCE,3162.682433448128,-8312.770225139884,6581.761727543084,12389.929579487989,-187500.02235174447,-187500.02235174447,-187500.02235174447,-187500.02235174447
$SILENCE,3457.0102044356117,-8273.29704443181,7097.796451782758,12335.547785228227,-187500.02235174447,-187500.02235174447,-187500.02235174447,-187500.02235174447
$SILENCE,3480.5689430915054,-8230.784026477817,7285.752270907435,12336.77713117327,-187500.02235174447,-187500.02235174447,-187500.02235174447,-187500.02235174447
$SILENCE,3232.911614526703,-8257.15908493508,6874.323710718598,12390.26485565482,-187500.02235174447,-187500.02235174447,-187500.02235174447,-187500.02235174447
$SILENCE,3138.8331221143153,-8307.338751237245,6563.746221512106,12400.524306359805,-187500.02235174447,-187500.02235174447,-187500.02235174447,-187500.02235174447
$SILENCE,3422.7896836745363,-8281.410727669088,7006.914258827479,12334.564308472194,-187500.02235174447,-187500.02235174447,-187500.02235174447,-187500.02235174447
$SILENCE,3510.967315550723,-8231.856910211673,7307.902849662644,12326.450625234918,-187500.02235174447,-187500.02235174447,-187500.02235174447,-187500.02235174447
$SILENCE,3286.064062841423,-8249.023049953348,6965.652938562982,12370.707079256426,-187500.02235174447,-187500.02235174447,-187500.02235174447,-187500.02235174447
$SILENCE,3131.1888255106005,-8304.947114580526,6562.069840677958,12394.735204545881,-187500.02235174447,-187500.02235174447,-187500.02235174447,-187500.02235174447
$SILENCE,3378.220305230654,-8295.760547609396,6903.805661655148,12335.72659918387,-187500.02235174447,-187500.02235174447,-187500.02235174447,-187500.02235174447
$SILENCE,3536.2024350407646,-8239.992945193404,7302.292561804362,12308.457470948395,-187500.02235174447,-187500.02235174447,-187500.02235174447,-187500.02235174447
$SILENCE,3350.8841217618137,-8244.172721406547,7056.915111174001,12347.774189445281,-187500.02235174447,-187500.02235174447,-187500.02235174447,-187500.02235174447
$SILENCE,3140.62126167074,-8297.88396333265,6593.1164137263795,12382.173524161999,-187500.02235174447,-187500.02235174447,-187500.02235174447,-187500.02235174447
$SILENCE,3334.0756099314226,-8304.276562246867,6811.336494843543,12332.73146542686,-187500.02235174447,-187500.02235174447,-187500.02235174447,-187500.02235174447
$SILENCE,3546.1042578344654,-8246.474951085444,7289.373253509195,12297.348653954108,-187500.02235174447,-187500.02235174447,-187500.02235174447,-187500.02235174447
$SILENCE,3398.962724085179,-8237.824825981239,7139.817731358735,12332.843224149135,-187500.02235174447,-187500.02235174447,-187500.02235174447,-187500.02235174447
$SILENCE,3153.786439154916,-8286.328111449255,6647.677021941784,12383.581684062683,-187500.02235174447,-187500.02235174447,-187500.02235174447,-187500.02235174447
$SILENCE,3278.21860053761,-8308.36693148219,6722.667124589339,12349.808198190714,-187500.02235174447,-187500.02235174447,-187500.02235174447,-187500.02235174447
$SILENCE,3531.933251849801,-8252.01818371036,7231.325773158762,12298.57799989915,-187500.02235174447,-187500.02235174447,-187500.02235174447,-187500.02235174447
$SILENCE,3440.5593205165055,-8229.487625299409,7198.513412298372,12324.930706611956,-187500.02235174447,-187500.02235174447,-187500.02235174447,-187500.02235174447
$SILENCE,3184.6318465032396,-8272.201808953501,6712.295915162077,12377.837285737669,-187500.02235174447,-187500.02235174447,-187500.02235174447,-187500.02235174447
$SILENCE,3232.68809708215,-8307.674027404073,6645.084219584968,12356.44666629394,-187500.02235174447,-187500.02235174447,-187500.02235174447,-187500.02235174447
$SILENCE,3515.1470917638653,-8262.92583500455,7172.987720130411,12296.38752894253,-187500.02235174447,-187500.02235174447,-187500.02235174447,-187500.02235174447
$SILENCE,3480.2113151802205,-8230.269936355346,7256.158561248608,12307.25047674781,-187500.02235174447,-187500.02235174447,-187500.02235174447,-187500.02235174447
$SILENCE,3224.9320417561585,-8263.395221638111,6797.903096425903,12361.900491941034,-187500.02235174447,-187500.02235174447,-187500.02235174447,-187500.02235174447
$SILENCE,3193.0808059073456,-8306.668198903584,6593.943428271226,12358.72654422838,-187500.02235174447,-187500.02235174447,-187500.02235174447,-187500.02235174447
$SILENCE,3477.216181423209,-8273.92289327656,7090.442727856962,12293.370043441064,-187500.02235174447,-187500.02235174447,-187500.02235174447,-187500.02235174447
$SILENCE,3515.2364987416863,-8233.354477090177,7283.181820295074,12292.632435874038,-187500.02235174447,-187500.02235174447,-187500.02235174447,-187500.02235174447
$SILENCE,3275.067004569412,-8257.047326212803,6880.515143932717,12348.131817356565,-187500.02235174447,-187500.02235174447,-187500.02235174447,-187500.02235174447
$SILENCE,3174.4841545205304,-8306.93641983705,6562.226302889145,12362.794561719247,-187500.02235174447,-187500.02235174447,-187500.02235174447,-187500.02235174447
$SILENCE,3452.741021244648,-8287.713919605485,6994.374930188052,12299.0026830438,-187500.02235174447,-187500.02235174447,-187500.02235174447,-187500.02235174447
$SILENCE,3545.836036901002,-8238.271860870345,7303.8348321717785,12282.57415086915,-187500.02235174447,-187500.02235174447,-187500.02235174447,-187500.02235174447
$SILENCE,3334.8579209873583,-8249.827712753739,6979.801592803192,12329.19988980292,-187500.02235174447,-187500.02235174447,-187500.02235174447,-187500.02235174447
$SILENCE,3179.5132970229743,-8303.673065146573,6571.2787593935445,12355.910224427013,-187500.02235174447,-187500.02235174447,-187500.02235174447,-187500.02235174447
$SILENCE,3431.0151256340896,-8302.242553501434,6895.580219695595,12299.405014443995,-187500.02235174447,-187500.02235174447,-187500.02235174447,-187500.02235174447
$SILENCE,3592.439424090317,-8247.212558652469,7299.275076302895,12271.867665275058,-187500.02235174447,-187500.02235174447,-187500.02235174447,-187500.02235174447
$SILENCE,3404.327142754453,-8244.552701062286,7070.192047380454,12323.187270544442,-187500.02235174447,-187500.02235174447,-187500.02235174447,-187500.02235174447
$SILENCE,3178.462765033575,-8287.892733561128,6604.381692931855,12367.600186777137,-187500.02235174447,-187500.02235174447,-187500.02235174447,-187500.02235174447
$SILENCE,3354.2815869190204,-8293.726538863963,6798.551297015107,12320.01332283179,-187500.02235174447,-187500.02235174447,-187500.02235174447,-187500.02235174447
$SILENCE,3560.27526381913,-8238.651840526085,7272.430631212072,12279.71312757887,-187500.02235174447,-187500.02235174447,-187500.02235174447,-187500.02235174447
$SILENCE,3420.2415848066316,-8229.10764564367,7140.220062758931,12321.645000177026,-187500.02235174447,-187500.02235174447,-187500.02235174447,-187500.02235174447
$SILENCE,3181.0332156459353,-8280.695471846519,6648.615795208907,12372.539922301761,-187500.02235174447,-187500.02235174447,-187500.02235174447,-187500.02235174447
$SILENCE,3297.2399350690766,-8306.60114367022,6704.428101113809,12335.0113433613,-187500.02235174447,-187500.02235174447,-187500.02235174447,-187500.02235174447
$SILENCE,3550.6640137033482,-8256.622643068153,7224.284973655341,12278.796706056202,-187500.02235174447,-187500.02235174447,-187500.02235174447,-187500.02235174447
$SILENCE,3466.9120272293126,-8232.639221267607,7206.068301924265,12302.95894181239,-187500.02235174447,-187500.02235174447,-187500.02235174447,-187500.02235174447
$SILENCE,3208.235288648044,-8267.820867040262,6718.3755896539205,12362.34752683014,-187500.02235174447,-187500.02235174447,-187500.02235174447,-187500.02235174447
$SILENCE,3246.456771666619,-8301.88492559015,6630.68969615575,12347.34950630063,-187500.02235174447,-187500.02235174447,-187500.02235174447,-187500.02235174447
$SILENCE,3530.4133332268398,-8261.785896037329,7158.727307167925,12285.993967770812,-187500.02235174447,-187500.02235174447,-187500.02235174447,-187500.02235174447
$SILENCE,3503.993571280667,-8229.487625299409,7256.605596137714,12298.62270338806,-187500.02235174447,-187500.02235174447,-187500.02235174447,-187500.02235174447
$SILENCE,3258.392603205753,-8259.282500658333,6807.491994797229,12354.412657548506,-187500.02235174447,-187500.02235174447,-187500.02235174447,-187500.02235174447
$SILENCE,3220.6405068207396,-8304.768300624884,6585.8968002673155,12355.999631404833,-187500.02235174447,-187500.02235174447,-187500.02235174447,-187500.02235174447
$SILENCE,3491.7448153191585,-8271.754774064395,7072.963663692912,12289.950226539402,-187500.02235174447,-187500.02235174447,-187500.02235174447,-187500.02235174447
$SILENCE,3530.4133332268398,-8228.995886921393,7286.713395919013,12289.391432928018,-187500.02235174447,-187500.02235174447,-187500.02235174447,-187500.02235174447
$SILENCE,3296.077644357401,-8250.341802876212,6892.898010360958,12344.53318649926,-187500.02235174447,-187500.02235174447,-187500.02235174447,-187500.02235174447
$SILENCE,3184.5871430143293,-8299.359178466699,6560.326404610444,12365.230901864876,-187500.02235174447,-187500.02235174447,-187500.02235174447,-187500.02235174447
$SILENCE,3453.098649155933,-8281.142506735625,6978.013453246767,12304.232991246343,-187500.02235174447,-187500.02235174447,-187500.02235174447,-187500.02235174447
$SILENCE,3559.3811940409178,-8230.940488689004,7295.944666379055,12286.597464871105,-187500.02235174447,-187500.02235174447,-187500.02235174447,-187500.02235174447
$SILENCE,3348.4254298717296,-8241.579919049731,6983.042595749212,12335.950116628423,-187500.02235174447,-187500.02235174447,-187500.02235174447,-187500.02235174447
$SILENCE,3175.6017417432954,-8291.580771396253,6565.556712812986,12367.510779799317,-187500.02235174447,-187500.02235174447,-187500.02235174447,-187500.02235174447
$SILENCE,3404.3047910099976,-8290.3067219623,6879.21874275431,12311.0055698163,-187500.02235174447,-187500.02235174447,-187500.02235174447,-187500.02235174447
$SILENCE,3568.9924441567,-8237.601308536687,7296.34699777925,12278.439078144918,-187500.02235174447,-187500.02235174447,-187500.02235174447,-187500.02235174447
$SILENCE,3397.867488606869,-8237.713067258963,7078.4398410844615,12322.136738555044,-187500.02235174447,-187500.02235174447,-187500.02235174447,-187500.02235174447
$SILENCE,3185.8388407038265,-8288.943265550526,6604.940486543237,12364.627404764582,-187500.02235174447,-187500.02235174447,-187500.02235174447,-187500.02235174447
$SILENCE,3351.934653751213,-8301.236725000945,6783.687386952328,12319.700398409415,-187500.02235174447,-187500.02235174447,-187500.02235174447,-187500.02235174447
$SILENCE,3572.211095358264,-8246.363192363166,7272.430631212072,12274.66163333197,-187500.02235174447,-187500.02235174447,-187500.02235174447,-187500.02235174447
$SILENCE,3442.5933292619384,-8234.740285246407,7154.122847810131,12305.81996510267,-187500.02235174447,-187500.02235174447,-187500.02235174447,-187500.02235174447
$SILENCE,3198.10994840979,-8280.628416613152,6650.515693487608,12352.557462758716,-187500.02235174447,-187500.02235174447,-187500.02235174447,-187500.02235174447
$SILENCE,3302.671408971716,-8306.154108781113,6690.748833507161,12321.041503076733,-187500.02235174447,-187500.02235174447,-187500.02235174447,-187500.02235174447
$SILENCE,3563.0692318760434,-8256.041497712315,7218.875851497156,12265.832694272125,-187500.02235174447,-187500.02235174447,-187500.02235174447,-187500.02235174447
$SILENCE,3491.11896647441,-8231.76750323385,7220.462825353483,12290.888999806524,-187500.02235174447,-187500.02235174447,-187500.02235174447,-187500.02235174447
$SILENCE,3240.0194692634905,-8270.793649052817,6734.312383450554,12349.562329001705,-187500.02235174447,-187500.02235174447,-187500.02235174447,-187500.02235174447
$SILENCE,3262.88530384127,-8309.305704749311,6625.995829820136,12332.575003215672,-187500.02235174447,-187500.02235174447,-187500.02235174447,-187500.02235174447
$SILENCE,3537.70000191927,-8264.266939671867,7152.6923361649915,12268.604310584584,-187500.02235174447,-187500.02235174447,-187500.02235174447,-187500.02235174447
$SILENCE,3516.0411615420776,-8229.86760495515,7266.462715442505,12280.204865956888,-187500.02235174447,-187500.02235174447,-187500.02235174447,-187500.02235174447
$SILENCE,3267.6462254102503,-8263.574035593752,6817.72909375776,12334.877232894569,-187500.02235174447,-187500.02235174447,-187500.02235174447,-187500.02235174447
$SILENCE,3216.751303285516,-8312.949039095527,6574.2738931505555,12332.910279382502,-187500.02235174447,-187500.02235174447,-187500.02235174447,-187500.02235174447
$SILENCE,3492.147146719354,-8279.957864279493,7064.805276966725,12270.973595496846,-187500.02235174447,-187500.02235174447,-187500.02235174447,-187500.02235174447
$SILENCE,3542.215054299242,-8232.616869523152,7304.68419846108,12272.627624586537,-187500.02235174447,-187500.02235174447,-187500.02235174447,-187500.02235174447
$SILENCE,3309.108711374845,-8254.543930833808,6911.852289659058,12324.48367172285,-187500.02235174447,-187500.02235174447,-187500.02235174447,-187500.02235174447
$SILENCE,3185.034177903435,-8308.299876248822,6550.044602161003,12338.475863751873,-187500.02235174447,-187500.02235174447,-187500.02235174447,-187500.02235174447
$SILENCE,3443.263881595598,-8292.407785941099,6960.9814239718235,12271.733554808327,-187500.02235174447,-187500.02235174447,-187500.02235174447,-187500.02235174447
$SILENCE,3550.865179403446,-8236.43901782501,7308.4169397851165,12262.971670981846,-187500.02235174447,-187500.02235174447,-187500.02235174447,-187500.02235174447
$SILENCE,3353.3428136518974,-8247.436076097021,6998.062968023178,12311.027921560755,-187500.02235174447,-187500.02235174447,-187500.02235174447,-187500.02235174447
$SILENCE,3184.4083290586864,-8307.159937281602,6550.20106437219,12332.686761937948,-187500.02235174447,-187500.02235174447,-187500.02235174447,-187500.02235174447
$SILENCE,3397.2416397621205,-8300.588524411742,6861.449105912341,12281.814191557669,-187500.02235174447,-187500.02235174447,-187500.02235174447,-187500.02235174447
$SILENCE,3572.255798847175,-8240.261166126867,7308.819271185312,12262.122304692544,-187500.02235174447,-187500.02235174447,-187500.02235174447,-187500.02235174447
$SILENCE,3398.29217175152,-8242.518692316853,7090.576838323694,12303.495383679317,-187500.02235174447,-187500.02235174447,-187500.02235174447,-187500.02235174447
$SILENCE,3168.6056457287846,-8293.503021419408,6603.912306298293,12345.606070233116,-187500.02235174447,-187500.02235174447,-187500.02235174447,-187500.02235174447
$SILENCE,3319.256403357554,-8308.344579737734,6770.701023423794,12302.020168545267,-187500.02235174447,-187500.02235174447,-187500.02235174447,-187500.02235174447
$SILENCE,3555.670804461337,-8250.63237555413,7271.223637011485,12253.449827843884,-187500.02235174447,-187500.02235174447,-187500.02235174447,-187500.02235174447
$SILENCE,3454.3056433565193,-8236.863700969661,7155.553359455271,12287.826810816146,-187500.02235174447,-187500.02235174447,-187500.02235174447,-187500.02235174447
$SILENCE,3209.77755901546,-8287.199829483012,6652.728516188684,12340.331058541664,-187500.02235174447,-187500.02235174447,-187500.02235174447,-187500.02235174447
$SILENCE,3290.5344117324844,-8313.910164107105,6681.204638624745,12316.191174529931,-187500.02235174447,-187500.02235174447,-187500.02235174447,-187500.02235174447
$SILENCE,3554.2402928161973,-8261.316509403767,7223.569717832771,12262.144656437,-187500.02235174447,-187500.02235174447,-187500.02235174447,-187500.02235174447
$SILENCE,3481.3065506585303,-8236.43901782501,7234.030334237855,12277.567360111161,-187500.02235174447,-187500.02235174447,-187500.02235174447,-187500.02235174447
$SILENCE,3228.173044702178,-8277.476820644953,6734.938232295302,12328.506985724805,-187500.02235174447,-187500.02235174447,-187500.02235174447,-187500.02235174447
$SILENCE,3249.518960656996,-8317.642905431141,6600.291323696533,12312.033750061244,-187500.02235174447,-187500.02235174447,-187500.02235174447,-187500.02235174447
$SILENCE,3523.8195686125246,-8274.34757642121,7134.006277800355,12252.600461554583,-187500.02235174447,-187500.02235174447,-187500.02235174447,-187500.02235174447
$SILENCE,3503.83710906948,-8236.774293991839,7265.903921831122,12264.871569260547,-187500.02235174447,-187500.02235174447,-187500.02235174447,-187500.02235174447
$SILENCE,3249.518960656996,-8263.372869893656,6818.042018180135,12316.705264652404,-187500.02235174447,-187500.02235174447,-187500.02235174447,-187500.02235174447
$SILENCE,3198.48992806553,-8316.614725186197,6557.0183464310585,12315.744139640825,-187500.02235174447,-187500.02235174447,-187500.02235174447,-187500.02235174447
$SILENCE,3475.3386348889635,-8290.463184173488,7031.5905847061385,12241.581051538116,-187500.02235174447,-187500.02235174447,-187500.02235174447,-187500.02235174447
$SILENCE,3524.356010479452,-8237.713067258963,7293.329512277784,12249.560624308662,-187500.02235174447,-187500.02235174447,-187500.02235174447,-187500.02235174447
$SILENCE,3306.0912258733783,-8261.696489059506,6914.646257715972,12312.0561018057,-187500.02235174447,-187500.02235174447,-187500.02235174447,-187500.02235174447
$SILENCE,3197.551154798407,-8314.893640863138,6556.504256308586,12338.565270729694,-187500.02235174447,-187500.02235174447,-187500.02235174447,-187500.02235174447
$SILENCE,3455.065602668,-8289.010320783893,6983.959017271879,12286.9997962713,-187500.02235174447,-187500.02235174447,-187500.02235174447,-187500.02235174447
$SILENCE,3598.4967468377054,-8240.462331826966,7327.617088272225,12256.444961600895,-187500.02235174447,-187500.02235174447,-187500.02235174447,-187500.02235174447
$SILENCE,3386.8927820793133,-8250.610023809675,6994.062005765678,12290.821944573157,-187500.02235174447,-187500.02235174447,-187500.02235174447,-187500.02235174447
$SILENCE,3163.8670759042593,-8304.924762836072,6536.499445021087,12324.0589885782,-187500.02235174447,-187500.02235174447,-187500.02235174447,-187500.02235174447
$SILENCE,3417.7158376831817,-8296.229934242956,6847.188692949855,12285.591636370616,-187500.02235174447,-187500.02235174447,-187500.02235174447,-187500.02235174447
não,3547.8476939019793,-8247.994869708404,7284.522924962393,12243.413894583451,-187500.02235174447,-187500.02235174447,-187500.02235174447,-187500.02235174447
não,3374.5993226288942,-8250.118285431658,7075.467059071906,12288.564418383172,-187500.02235174447,-187500.02235174447,-187500.02235174447,-187500.02235174447
não,3163.1518200816895,-8296.565210409786,6594.122242226868,12336.53126198426,-187500.02235174447,-187500.02235174447,-187500.02235174447,-187500.02235174447
não,3318.4740923016184,-8308.79161462684,6750.964433069758,12293.57120914116,-187500.02235174447,-187500.02235174447,-187500.02235174447,-187500.02235174447
não,3545.567815967538,-8249.671250542551,7270.195456766541,12240.396409081986,-187500.02235174447,-187500.02235174447,-187500.02235174447,-187500.02235174447
não,3423.795512175025,-8230.67226775554,7167.288025294308,12270.168932696455,-187500.02235174447,-187500.02235174447,-187500.02235174447,-187500.02235174447
não,3193.1255093962563,-8273.92289327656,6659.545798247552,12328.954020613912,-187500.02235174447,-187500.02235174447,-187500.02235174447,-187500.02235174447
não,3280.900809872247,-8311.093844305735,6667.771240207106,12305.171764513465,-187500.02235174447,-187500.02235174447,-187500.02235174447,-187500.02235174447
não,3518.835129598991,-8274.213465954479,7192.813717462268,12243.592708539094,-187500.02235174447,-187500.02235174447,-187500.02235174447,-187500.02235174447
não,3480.6807018137815,-8241.512863816364,7226.542499845326,12269.744249551804,-187500.02235174447,-187500.02235174447,-187500.02235174447,-187500.02235174447
não,3238.790123318449,-8272.604140353696,6742.649584132384,12347.72948595637,-187500.02235174447,-187500.02235174447,-187500.02235174447,-187500.02235174447
não,3207.654143292206,-8310.065664060792,6599.374902173866,12331.077436337166,-187500.02235174447,-187500.02235174447,-187500.02235174447,-187500.02235174447
não,3503.479481158195,-8267.373832151156,7130.899385321068,12264.357479138074,-187500.02235174447,-187500.02235174447,-187500.02235174447,-187500.02235174447
não,3506.251097470653,-8236.10374165818,7269.77077362189,12275.1980751989,-187500.02235174447,-187500.02235174447,-187500.02235174447,-187500.02235174447
não,3251.6647281247056,-8260.48949485892,6834.917585243891,12339.705209696915,-187500.02235174447,-187500.02235174447,-187500.02235174447,-187500.02235174447
não,3188.5434017829184,-8309.238649515944,6572.351643127399,12332.932631126956,-187500.02235174447,-187500.02235174447,-187500.02235174447,-187500.02235174447
não,3461.6817190267707,-8285.791669582328,7037.469093497884,12251.907557476468,-187500.02235174447,-187500.02235174447,-187500.02235174447,-187500.02235174447
não,3531.150940793865,-8234.807340479772,7294.804727411834,12255.215615655854,-187500.02235174447,-187500.02235174447,-187500.02235174447,-187500.02235174447
não,3300.972676393113,-8254.007488966881,6919.563641496139,12308.278656992754,-187500.02235174447,-187500.02235174447,-187500.02235174447,-187500.02235174447
não,3150.366622253254,-8313.865460618194,6547.161227126268,12332.463244493396,-187500.02235174447,-187500.02235174447,-187500.02235174447,-187500.02235174447
não,3426.9247563987683,-8291.513716162886,6943.3682493410415,12283.043537502712,-187500.02235174447,-187500.02235174447,-187500.02235174447,-187500.02235174447
não,3554.5532172385715,-8232.661573012063,7308.372236296205,12260.132999436022,-187500.02235174447,-187500.02235174447,-187500.02235174447,-187500.02235174447
não,3360.607130599872,-8241.691677772007,7021.241727023331,12305.99877905831,-187500.02235174447,-187500.02235174447,-187500.02235174447,-187500.02235174447
não,3151.1265815647344,-8305.997646569926,6565.802582001995,12338.542918985238,-187500.02235174447,-187500.02235174447,-187500.02235174447,-187500.02235174447
não,3349.744182794593,-8306.735254136951,6831.765989275693,12294.308816708186,-187500.02235174447,-187500.02235174447,-187500.02235174447,-187500.02235174447
não,3548.250025302175,-8240.909366716072,7291.4519657435385,12270.705374563382,-187500.02235174447,-187500.02235174447,-187500.02235174447,-187500.02235174447
não,3377.0803662634335,-8241.781084749828,7104.859603030634,12310.759700627292,-187500.02235174447,-187500.02235174447,-187500.02235174447,-187500.02235174447
não,3154.3452327662985,-8295.112347020191,6605.812204576994,12350.858730180113,-187500.02235174447,-187500.02235174447,-187500.02235174447,-187500.02235174447
não,3306.4488537846632,-8302.108443034702,6731.563118882552,12307.161069769987,-187500.02235174447,-187500.02235174447,-187500.02235174447,-187500.02235174447
não,3548.1382665798983,-8248.151331919591,7255.219787981486,12260.065944202655,-187500.02235174447,-187500.02235174447,-187500.02235174447,-187500.02235174447
não,3425.8518726649136,-8249.49243658691,7157.319147267241,12282.060060746679,-187500.02235174447,-187500.02235174447,-187500.02235174447,-187500.02235174447
não,3181.3461400683095,-8290.150259751113,6665.379603550387,12330.853918892613,-187500.02235174447,-187500.02235174447,-187500.02235174447,-187500.02235174447
não,3264.651091653239,-8304.231858757956,6666.497190773152,12319.231011775853,-187500.02235174447,-187500.02235174447,-187500.02235174447,-187500.02235174447
não,3506.519318404117,-8249.335974375723,7177.122792854642,12268.492551862306,-187500.02235174447,-187500.02235174447,-187500.02235174447,-187500.02235174447
não,3462.531085316072,-8216.233040837413,7242.6134041086925,12296.208714986888,-187500.02235174447,-187500.02235174447,-187500.02235174447,-187500.02235174447
não,3197.148823398212,-8268.759640307384,6729.394999670387,12357.094866883144,-187500.02235174447,-187500.02235174447,-187500.02235174447,-187500.02235174447
não,3194.7124832525833,-8313.418425729087,6580.800602531505,12351.462227280406,-187500.02235174447,-187500.02235174447,-187500.02235174447,-187500.02235174447
não,3476.8809052563797,-8274.079355487747,7093.59432382516,12288.229142216343,-187500.02235174447,-187500.02235174447,-187500.02235174447,-187500.02235174447
não,3480.5242396025947,-8237.95893644797,7252.179950735564,12293.638264374527,-187500.02235174447,-187500.02235174447,-187500.02235174447,-187500.02235174447
não,3237.6725360956834,-8266.479762372943,6821.8641664819925,12347.64007897855,-187500.02235174447,-187500.02235174447,-187500.02235174447,-187500.02235174447
não,3142.5435116938966,-8307.092882048235,6537.393514799299,12355.552596515727,-187500.02235174447,-187500.02235174447,-187500.02235174447,-187500.02235174447
não,3466.6214545513935,-8272.738250820428,7017.57604093266,12301.930761567446,-187500.02235174447,-187500.02235174447,-187500.02235174447,-187500.02235174447
não,3512.2413649846753,-8232.326296845235,7283.382985995172,12290.464316661873,-187500.02235174447,-187500.02235174447,-187500.02235174447,-187500.02235174447
não,3271.088394056367,-8252.688736044018,6917.663743217438,12337.24651780683,-187500.02235174447,-187500.02235174447,-187500.02235174447,-187500.02235174447
não,3103.1597379636455,-8308.769262882384,6543.406134057776,12361.58756751866,-187500.02235174447,-187500.02235174447,-187500.02235174447,-187500.02235174447
não,3366.99972951409,-8295.224105742467,6914.690961204882,12306.021130802766,-187500.02235174447,-187500.02235174447,-187500.02235174447,-187500.02235174447
não,3509.022713783111,-8234.96380269096,7275.246951013441,12286.038671259723,-187500.02235174447,-187500.02235174447,-187500.02235174447,-187500.02235174447
não,3301.8443944268697,-8247.480779585932,6992.09505225361,12325.511851967794,-187500.02235174447,-187500.02235174447,-187500.02235174447,-187500.02235174447
não,3106.3560374207545,-8295.469974931477,6542.288546835011,12371.288224612264,-187500.02235174447,-187500.02235174447,-187500.02235174447,-187500.02235174447
não,3314.2719643440205,-8297.101652276713,6805.010951162691,12326.651790935015,-187500.02235174447,-187500.02235174447,-187500.02235174447,-187500.02235174447
não,3485.329864660486,-8248.978346464437,7259.801895594824,12285.591636370616,-187500.02235174447,-187500.02235174447,-187500.02235174447,-187500.02235174447
não,3346.0784967039226,-8247.145503419102,7084.3630533651185,12320.81798563218,-187500.02235174447,-187500.02235174447,-187500.02235174447,-187500.02235174447
não,3130.8982528326815,-8294.017111541882,6596.335064927944,12374.439820580463,-187500.02235174447,-187500.02235174447,-187500.02235174447,-187500.02235174447
não,3263.712318386116,-8303.985989568948,6704.361045880443,12340.53222424176,-187500.02235174447,-187500.02235174447,-187500.02235174447,-187500.02235174447
não,3504.0829782584883,-8245.290308629312,7216.528918329349,12292.118345751565,-187500.02235174447,-187500.02235174447,-187500.02235174447,-187500.02235174447
não,3390.6255234033497,-8233.935622446015,7163.532932225816,12325.44479673443,-187500.02235174447,-187500.02235174447,-187500.02235174447,-187500.02235174447
não,3128.685430131606,-8294.330035964256,6671.101650130946,12371.914073457012,-187500.02235174447,-187500.02235174447,-187500.02235174447,-187500.02235174447
não,3216.036047462946,-8310.60210592772,6643.161969561812,12366.34848908764,-187500.02235174447,-187500.02235174447,-187500.02235174447,-187500.02235174447
não,3476.9703122342007,-8247.950166219493,7193.528973284838,12309.664465148982,-187500.02235174447,-187500.02235174447,-187500.02235174447,-187500.02235174447
não,3440.6934309832372,-8218.557622260765,7252.202302480019,12324.170747300477,-187500.02235174447,-187500.02235174447,-187500.02235174447,-187500.02235174447
não,3151.9982995984915,-8281.276617202357,6722.622421100428,12355.865520938101,-187500.02235174447,-187500.02235174447,-187500.02235174447,-187500.02235174447
não,3110.7369793339944,-8319.051065331825,6531.2467850740895,12347.058933622711,-187500.02235174447,-187500.02235174447,-187500.02235174447,-187500.02235174447
não,3428.5117302550952,-8284.696434104018,7065.92286418949,12290.978406784345,-187500.02235174447,-187500.02235174447,-187500.02235174447,-187500.02235174447
não,3463.603969049927,-8246.542006318808,7250.078886756764,12296.499287664807,-187500.02235174447,-187500.02235174447,-187500.02235174447,-187500.02235174447
não,3229.8494255363257,-8261.763544292873,6823.249974638221,12375.155076403033,-187500.02235174447,-187500.02235174447,-187500.02235174447,-187500.02235174447
não,3138.9225290921368,-8311.719693150484,6563.433297089732,12399.11614645912,-187500.02235174447,-187500.02235174447,-187500.02235174447,-187500.02235174447
não,3387.38452045733,-8277.655634600596,6991.715072597871,12325.847128134625,-187500.02235174447,-187500.02235174447,-187500.02235174447,-187500.02235174447
não,3468.5213528300947,-8236.975459691937,7294.201230311541,12288.81028757218,-187500.02235174447,-187500.02235174447,-187500.02235174447,-187500.02235174447
não,3259.0855072838676,-8250.990003465415,7014.357389731096,12385.63804455257,-187500.02235174447,-187500.02235174447,-187500.02235174447,-187500.02235174447
não,3097.594153594274,-8335.1666730841,6577.649006563307,12390.868352755113,-187500.02235174447,-187500.02235174447,-187500.02235174447,-187500.02235174447
não,3339.797656511981,-8293.368910952677,6876.715347375316,12323.38843624454,-187500.02235174447,-187500.02235174447,-187500.02235174447,-187500.02235174447
não,3470.7565272756256,-8251.63820405462,7221.468653853972,12282.395336913507,-187500.02235174447,-187500.02235174447,-187500.02235174447,-187500.02235174447
não,3305.9571154066466,-8247.525483074842,7025.130930558555,12353.58564300366,-187500.02235174447,-187500.02235174447,-187500.02235174447,-187500.02235174447
não,3096.7671390494274,-8325.421312501587,6556.1913318862125,12380.720660772404,-187500.02235174447,-187500.02235174447,-187500.02235174447,-187500.02235174447
não,3261.0748125403898,-8382.619426562718,6711.446548872776,12282.082412491132,-187500.02235174447,-187500.02235174447,-187500.02235174447,-187500.02235174447
não,3471.360024375919,-8288.630341128151,7316.68708523358,12298.24272373232,-187500.02235174447,-187500.02235174447,-187500.02235174447,-187500.02235174447
não,3354.2815869190204,-8257.561416335275,7098.645818072059,12351.506930769317,-187500.02235174447,-187500.02235174447,-187500.02235174447,-187500.02235174447
não,3092.6767698141066,-8316.435911230554,6519.087436090403,12359.97824191788,-187500.02235174447,-187500.02235174447,-187500.02235174447,-187500.02235174447
não,3234.1186087272895,-8319.78867289885,6611.511899413097,12327.34469501313,-187500.02235174447,-187500.02235174447,-187500.02235174447,-187500.02235174447
não,3466.710861529215,-8291.69253011853,7130.273536476319,12300.366139455575,-187500.02235174447,-187500.02235174447,-187500.02235174447,-187500.02235174447
não,3331.8851389748024,-8309.953905338514,7123.880937562101,12304.836488346637,-187500.02235174447,-187500.02235174447,-187500.02235174447,-187500.02235174447
não,3114.8273485693157,-8318.559326953808,6663.41265003832,12442.992620824889,-187500.02235174447,-187500.02235174447,-187500.02235174447,-187500.02235174447
não,3174.305340564888,-8335.07726610628,6596.089195738936,12357.430143049973,-187500.02235174447,-187500.02235174447,-187500.02235174447,-187500.02235174447
não,3421.806206918503,-8312.032617572859,7168.338557283707,12273.544046109206,-187500.02235174447,-187500.02235174447,-187500.02235174447,-187500.02235174447
não,3418.6993144392154,-8250.118285431658,7279.694948160047,12351.149302858032,-187500.02235174447,-187500.02235174447,-187500.02235174447,-187500.02235174447
não,3125.4220754411313,-8314.670123418586,6667.927702418292,12381.704137528437,-187500.02235174447,-187500.02235174447,-187500.02235174447,-187500.02235174447
não,3141.850607615782,-8371.622368290708,6441.75040027504,12423.568954893228,-187500.02235174447,-187500.02235174447,-187500.02235174447,-187500.02235174447
não,3423.9072708973017,-8317.709960664506,6989.211677218876,12315.431215218452,-187500.02235174447,-187500.02235174447,-187500.02235174447,-187500.02235174447
não,3457.680756769271,-8253.2475296554,7227.749494045913,12294.085299263634,-187500.02235174447,-187500.02235174447,-187500.02235174447,-187500.02235174447
não,3221.8251492768704,-8275.331053177244,6843.634765581462,12370.930596700979,-187500.02235174447,-187500.02235174447,-187500.02235174447,-187500.02235174447
não,3134.273366245433,-8333.825568416783,6551.363355083866,12413.51066988834,-187500.02235174447,-187500.02235174447,-187500.02235174447,-187500.02235174447
não,3408.551622456506,-8320.034542087858,7000.588715146628,12351.305765069219,-187500.02235174447,-187500.02235174447,-187500.02235174447,-187500.02235174447
não,3462.0616986825107,-8280.06962300177,7267.20032300953,12320.370950743074,-187500.02235174447,-187500.02235174447,-187500.02235174447,-187500.02235174447
não,3260.203094506633,-8271.799477553306,6946.430438331418,12412.817765810225,-187500.02235174447,-187500.02235174447,-187500.02235174447,-187500.02235174447
não,3153.3617560102653,-8320.928611866071,6586.120317711869,12512.081862936242,-187500.02235174447,-187500.02235174447,-187500.02235174447,-187500.02235174447
não,3392.5924769154167,-8332.462112005009,6927.900842177969,12430.185071251997,-187500.02235174447,-187500.02235174447,-187500.02235174447,-187500.02235174447
não,3571.9428744248003,-8256.77910527934,7334.367315097727,12374.193951391453,-187500.02235174447,-187500.02235174447,-187500.02235174447,-187500.02235174447
não,3340.0882291899,-8259.796590780807,7067.889817701557,12401.038396482278,-187500.02235174447,-187500.02235174447,-187500.02235174447,-187500.02235174447
não,3135.0333255569135,-8321.30859152181,6608.181489489257,12445.048981314778,-187500.02235174447,-187500.02235174447,-187500.02235174447,-187500.02235174447
não,3351.9123020067577,-8317.68760892005,6844.998221993234,12411.54371637627,-187500.02235174447,-187500.02235174447,-187500.02235174447,-187500.02235174447
não,3584.4151478308618,-8256.77910527934,7320.822157957811,12396.210419679932,-187500.02235174447,-187500.02235174447,-187500.02235174447,-187500.02235174447
não,3421.135654584844,-8261.987061737425,7161.476571735928,12433.359018964651,-187500.02235174447,-187500.02235174447,-187500.02235174447,-187500.02235174447
não,3184.4753842920527,-8314.111329807201,6671.101650130946,12484.790382956313,-187500.02235174447,-187500.02235174447,-187500.02235174447,-187500.02235174447
não,3332.7792087530147,-8330.137530581658,6768.890532122914,12454.570824452738,-187500.02235174447,-187500.02235174447,-187500.02235174447,-187500.02235174447
não,3570.937045924312,-8267.77616355135,7300.951457137044,12414.40473966655,-187500.02235174447,-187500.02235174447,-187500.02235174447,-187500.02235174447
não,3496.1704607213096,-8249.179512164535,7267.312081731807,12445.853644115168,-187500.02235174447,-187500.02235174447,-187500.02235174447,-187500.02235174447
não,3236.197320961633,-8291.73723360744,6785.497878253207,12509.153784412598,-187500.02235174447,-187500.02235174447,-187500.02235174447,-187500.02235174447
não,3272.876533612792,-8326.114216579703,6714.776958796616,12496.010958672878,-187500.02235174447,-187500.02235174447,-187500.02235174447,-187500.02235174447
não,3564.2762260766303,-8280.136678235136,7243.395715164628,12427.592268895181,-187500.02235174447,-187500.02235174447,-187500.02235174447,-187500.02235174447
não,3534.8836821179016,-8239.590613793209,7339.038829688887,12449.944013350489,-187500.02235174447,-187500.02235174447,-187500.02235174447,-187500.02235174447
não,3293.104862344845,-8276.336881677733,6879.777536365693,12505.19752564401,-187500.02235174447,-187500.02235174447,-187500.02235174447,-187500.02235174447
não,3263.488800941563,-8329.891661392649,6676.1754961223005,12502.939999454022,-187500.02235174447,-187500.02235174447,-187500.02235174447,-187500.02235174447
não,3576.3685198269513,-8286.59633238272,7190.891467439112,12446.658306915559,-187500.02235174447,-187500.02235174447,-187500.02235174447,-187500.02235174447
não,3597.7144357817697,-8244.06096268427,7395.32052222735,12452.290946518297,-187500.02235174447,-187500.02235174447,-187500.02235174447,-187500.02235174447
não,3327.683011017205,-8269.944282763516,6989.14462198551,12494.245170860908,-187500.02235174447,-187500.02235174447,-187500.02235174447,-187500.02235174447
não,3237.225501206577,-8313.194908284535,6682.635150269884,12506.270409377863,-187500.02235174447,-187500.02235174447,-187500.02235174447,-187500.02235174447
não,3533.7437431506805,-8291.804288840805,7108.391178654573,12451.396876740084,-187500.02235174447,-187500.02235174447,-187500.02235174447,-187500.02235174447
não,3625.8105785620905,-8247.436076097021,7406.049359565897,12434.141330020588,-187500.02235174447,-187500.02235174447,-187500.02235174447,-187500.02235174447
não,3399.7226833966597,-8268.82669554075,7076.4952393168505,12496.033310417333,-187500.02235174447,-187500.02235174447,-187500.02235174447,-187500.02235174447
não,3233.0233732489796,-8318.805196142817,6668.710013474228,12532.71252306849,-187500.02235174447,-187500.02235174447,-187500.02235174447,-187500.02235174447
não,3468.5660563190054,-8312.569059439786,7003.762662859281,12460.494036733395,-187500.02235174447,-187500.02235174447,-187500.02235174447,-187500.02235174447
não,3633.857206566001,-8252.733439532929,7423.37196151876,12439.349286478673,-187500.02235174447,-187500.02235174447,-187500.02235174447,-187500.02235174447
não,3448.3377275869525,-8247.369020863654,7208.549345558804,12492.054699904287,-187500.02235174447,-187500.02235174447,-187500.02235174447,-187500.02235174447
não,3232.397524404231,-8304.656541902606,6735.206453228767,12534.590069602737,-187500.02235174447,-187500.02235174447,-187500.02235174447,-187500.02235174447
não,3420.196881317721,-8313.708998407006,6917.395522283974,12478.218970086453,-187500.02235174447,-187500.02235174447,-187500.02235174447,-187500.02235174447
não,3655.694860898836,-8272.090050231225,7387.273894223439,12433.113149775643,-187500.02235174447,-187500.02235174447,-187500.02235174447,-187500.02235174447
não,3507.9051265603457,-8261.003584981392,7240.802912807812,12474.41917352905,-187500.02235174447,-187500.02235174447,-187500.02235174447,-187500.02235174447
não,3268.517943444007,-8302.242553501434,6758.2958052510985,12524.755302042402,-187500.02235174447,-187500.02235174447,-187500.02235174447,-187500.02235174447
não,3364.3398719239085,-8318.22405078698,6834.962288732802,12495.675682506047,-187500.02235174447,-187500.02235174447,-187500.02235174447,-187500.02235174447
não,3666.5801604485705,-8266.122134461659,7366.017385246442,12457.118923320642,-187500.02235174447,-187500.02235174447,-187500.02235174447,-187500.02235174447
não,3538.996403097678,-8247.413724352566,7327.102998149753,12472.675737461537,-187500.02235174447,-187500.02235174447,-187500.02235174447,-187500.02235174447
não,3271.9601120901243,-8287.803326583306,6827.630916551461,12519.256772906396,-187500.02235174447,-187500.02235174447,-187500.02235174447,-187500.02235174447
não,3316.5741940229173,-8318.22405078698,6747.499912679185,12502.783537242834,-187500.02235174447,-187500.02235174447,-187500.02235174447,-187500.02235174447
não,3601.4918805947163,-8272.917064776071,7280.141983049153,12435.147158521077,-187500.02235174447,-187500.02235174447,-187500.02235174447,-187500.02235174447
não,3575.2285808597308,-8230.87343345564,7382.624731376735,12460.60579545567,-187500.02235174447,-187500.02235174447,-187500.02235174447,-187500.02235174447
não,3318.518795790529,-8266.747983306406,6919.496586262773,12532.310191668295,-187500.02235174447,-187500.02235174447,-187500.02235174447,-187500.02235174447
não,3273.1671062907108,-8312.479652461965,6694.950961464759,12521.42489211856,-187500.02235174447,-187500.02235174447,-187500.02235174447,-187500.02235174447
não,3558.4871242627055,-8276.649806100108,7189.885638938623,12448.535853449805,-187500.02235174447,-187500.02235174447,-187500.02235174447,-187500.02235174447
não,3599.1896509158196,-8238.96476494846,7409.916211356665,12461.365754767152,-187500.02235174447,-187500.02235174447,-187500.02235174447,-187500.02235174447
não,3425.717762198182,-8262.009413481881,7033.021096351278,12543.419008662584,-187500.02235174447,-187500.02235174447,-187500.02235174447,-187500.02235174447
não,3319.256403357554,-8308.54574543783,6709.1666709383335,12556.494779168937,-187500.02235174447,-187500.02235174447,-187500.02235174447,-187500.02235174447
não,3562.8457144314907,-8279.644939857119,7137.716667379937,12504.035234932333,-187500.02235174447,-187500.02235174447,-187500.02235174447,-187500.02235174447
não,3633.6560408659034,-8232.862738712161,7447.243624597028,12484.633920745126,-187500.02235174447,-187500.02235174447,-187500.02235174447,-187500.02235174447
não,3414.385427759341,-8240.507035315875,7117.756559581347,12509.28789487933,-187500.02235174447,-187500.02235174447,-187500.02235174447,-187500.02235174447
não,3234.8562162943144,-8300.320303478278,6697.342598121477,12541.899090039622,-187500.02235174447,-187500.02235174447,-187500.02235174447,-187500.02235174447
não,3494.2705624426085,-8290.910219062593,7038.363163276096,12508.349121612207,-187500.02235174447,-187500.02235174447,-187500.02235174447,-187500.02235174447
não,3662.892122613445,-8236.170796891547,7460.319395103383,12459.0411733438,-187500.02235174447,-187500.02235174447,-187500.02235174447,-187500.02235174447
não,3462.3746231048854,-8233.421532323544,7217.221822407463,12467.646594959093,-187500.02235174447,-187500.02235174447,-187500.02235174447,-187500.02235174447
não,3261.812420107415,-8292.519544663375,6733.753589839172,12512.685360036536,-187500.02235174447,-187500.02235174447,-187500.02235174447,-187500.02235174447
não,3441.363983316897,-8288.786803339339,6955.326432624631,12509.131432668142,-187500.02235174447,-187500.02235174447,-187500.02235174447,-187500.02235174447
não,3659.0699743115874,-8229.889956699606,7461.481685815059,12484.85743818968,-187500.02235174447,-187500.02235174447,-187500.02235174447,-187500.02235174447
não,3479.6525215688375,-8225.576070019732,7321.403303313649,12475.782629940824,-187500.02235174447,-187500.02235174447,-187500.02235174447,-187500.02235174447
não,3238.0078122625127,-8277.432117156044,6801.211154605288,12508.61734254567,-187500.02235174447,-187500.02235174447,-187500.02235174447,-187500.02235174447
não,3387.1610030127767,-8305.952943081014,6841.041963224646,12472.89925490609,-187500.02235174447,-187500.02235174447,-187500.02235174447,-187500.02235174447
não,3637.9475758013223,-8251.615852310164,7360.116524710242,12413.845946055168,-187500.02235174447,-187500.02235174447,-187500.02235174447,-187500.02235174447
não,3553.2344643157085,-8230.091122399703,7351.488751350493,12454.973155852933,-187500.02235174447,-187500.02235174447,-187500.02235174447,-187500.02235174447
não,3258.2808444834764,-8258.991927980414,6867.037042026168,12522.631886319148,-187500.02235174447,-187500.02235174447,-187500.02235174447,-187500.02235174447
não,3278.531524959985,-8289.2561899729,6764.487238465219,12480.096516620699,-187500.02235174447,-187500.02235174447,-187500.02235174447,-187500.02235174447
não,3549.546426480583,-8262.076468715248,7284.075890073287,12401.418376138017,-187500.02235174447,-187500.02235174447,-187500.02235174447,-187500.02235174447
não,3570.7135284797587,-8241.15523590508,7399.969685074054,12423.680713615504,-187500.02235174447,-187500.02235174447,-187500.02235174447,-187500.02235174447
não,3328.979412195613,-8238.897709715095,6954.208845401865,12488.590179513714,-187500.02235174447,-187500.02235174447,-187500.02235174447,-187500.02235174447
não,3273.0553475684346,-8275.375756666155,6719.739046065694,12504.23640063243,-187500.02235174447,-187500.02235174447,-187500.02235174447,-187500.02235174447
não,3546.9759758682226,-8253.180474422035,7220.440473609027,12441.629164413114,-187500.02235174447,-187500.02235174447,-187500.02235174447,-187500.02235174447
não,3583.968112941756,-8215.875412926127,7434.078447112853,12454.347307008185,-187500.02235174447,-187500.02235174447,-187500.02235174447,-187500.02235174447
não,3332.332173863909,-8224.190261863501,7016.301991498708,12500.011920930378,-187500.02235174447,-187500.02235174447,-187500.02235174447,-187500.02235174447
não,3228.5306726134627,-8271.754774064395,6671.3028158310435,12501.040101175322,-187500.02235174447,-187500.02235174447,-187500.02235174447,-187500.02235174447
não,3462.151105660332,-8256.53323609033,7085.905323732534,12436.309449232753,-187500.02235174447,-187500.02235174447,-187500.02235174447,-187500.02235174447
não,3566.80197320008,-8205.213630820946,7426.389447020227,12428.955725306956,-187500.02235174447,-187500.02235174447,-187500.02235174447,-187500.02235174447
não,3351.509970606562,-8215.271915825835,7118.158890981543,12468.56301648176,-187500.02235174447,-187500.02235174447,-187500.02235174447,-187500.02235174447
não,3167.778631183938,-8275.420460155066,6679.640016512873,12502.135336653631,-187500.02235174447,-187500.02235174447,-187500.02235174447,-187500.02235174447
não,3384.1658692557658,-8268.290253673822,6975.174781700944,12449.631088928116,-187500.02235174447,-187500.02235174447,-187500.02235174447,-187500.02235174447
não,3563.024528387133,-8203.134918586602,7400.528478685436,12414.941181533479,-187500.02235174447,-187500.02235174447,-187500.02235174447,-187500.02235174447
não,3419.4369220062404,-8208.924020400527,7181.503734767883,12460.583443711215,-187500.02235174447,-187500.02235174447,-187500.02235174447,-187500.02235174447
não,3205.1283961687564,-8273.29704443181,6694.548630064563,12489.908932436578,-187500.02235174447,-187500.02235174447,-187500.02235174447,-187500.02235174447
não,3357.097906720389,-8294.575905153264,6861.940844290358,12445.719533648436,-187500.02235174447,-187500.02235174447,-187500.02235174447,-187500.02235174447
não,3570.1547348683757,-8233.019200923349,7361.055297977365,12412.571896621215,-187500.02235174447,-187500.02235174447,-187500.02235174447,-187500.02235174447
não,3434.926680913768,-8210.108662856659,7253.6551658696135,12446.211272026452,-187500.02235174447,-187500.02235174447,-187500.02235174447,-187500.02235174447
não,3181.793174957416,-8246.452599340988,6754.719526138249,12490.28891209232,-187500.02235174447,-187500.02235174447,-187500.02235174447,-187500.02235174447
não,3264.5393329309622,-8272.671195587063,6781.139288084422,12466.461952502961,-187500.02235174447,-187500.02235174447,-187500.02235174447,-187500.02235174447
não,3519.1704057658203,-8220.435168795011,7313.535489265381,12413.175393721509,-187500.02235174447,-187500.02235174447,-187500.02235174447,-187500.02235174447
não,3470.5330098310724,-8204.230154064913,7313.4684340320155,12427.972248550923,-187500.02235174447,-187500.02235174447,-187500.02235174447,-187500.02235174447
não,3242.1652367312,-8251.191169165513,6826.200404906322,12487.539647524316,-187500.02235174447,-187500.02235174447,-187500.02235174447,-187500.02235174447
não,3244.288652454454,-8291.089033018236,6701.2318016567,12470.597025227193,-187500.02235174447,-187500.02235174447,-187500.02235174447,-187500.02235174447
não,3507.2345742266866,-8248.173683664047,7228.755322546402,12405.195820950965,-187500.02235174447,-187500.02235174447,-187500.02235174447,-187500.02235174447
não,3483.5864285929715,-8208.834613422707,7356.920225253132,12422.049036270266,-187500.02235174447,-187500.02235174447,-187500.02235174447,-187500.02235174447
não,3211.7668642719823,-8239.948241704493,6899.380016252997,12482.242284088408,-187500.02235174447,-187500.02235174447,-187500.02235174447,-187500.02235174447
não,3163.4423927596085,-8281.477782902453,6640.815036394005,12475.983795640923,-187500.02235174447,-187500.02235174447,-187500.02235174447,-187500.02235174447
não,3461.8828847268683,-8250.565320320764,7123.3444956951735,12400.83723078218,-187500.02235174447,-187500.02235174447,-187500.02235174447,-187500.02235174447
não,3516.4658446867284,-8208.521689000332,7365.637405590703,12394.332873145686,-187500.02235174447,-187500.02235174447,-187500.02235174447,-187500.02235174447
não,3288.455699498141,-8236.036686424815,6981.723842826348,12451.061600573255,-187500.02235174447,-187500.02235174447,-187500.02235174447,-187500.02235174447
não,3149.137276308212,-8291.089033018236,6617.435111693753,12476.497885763394,-187500.02235174447,-187500.02235174447,-187500.02235174447,-187500.02235174447
não,3399.8567938633914,-8266.502114117398,7016.681971154449,12414.874126300112,-187500.02235174447,-187500.02235174447,-187500.02235174447,-187500.02235174447
não,3506.40755968184,-8216.076578626225,7365.927978268622,12395.45046036845,-187500.02235174447,-187500.02235174447,-187500.02235174447,-187500.02235174447
não,3321.51392954754,-8225.665476997552,7077.434012583973,12454.03438258581,-187500.02235174447,-187500.02235174447,-187500.02235174447,-187500.02235174447
não,3136.62029941324,-8275.107535732692,6633.953050846226,12489.28308359183,-187500.02235174447,-187500.02235174447,-187500.02235174447,-187500.02235174447
não,3380.47783142064,-8274.392279910122,6923.2963828201755,12440.89155684609,-187500.02235174447,-187500.02235174447,-187500.02235174447,-187500.02235174447
não,3543.4220484998286,-8218.065883882748,7362.8881410226995,12398.244428425363,-187500.02235174447,-187500.02235174447,-187500.02235174447,-187500.02235174447
não,3356.6955753201933,-8219.116415872148,7150.390106486096,12427.41345493954,-187500.02235174447,-187500.02235174447,-187500.02235174447,-187500.02235174447
não,3144.9575000950695,-8272.87236128716,6662.518580260108,12472.139295594608,-187500.02235174447,-187500.02235174447,-187500.02235174447,-187500.02235174447
não,3301.8220426824146,-8288.876210317161,6815.739788501238,12428.285172973297,-187500.02235174447,-187500.02235174447,-187500.02235174447,-187500.02235174447
não,3523.216071512231,-8236.863700969661,7311.657942731135,12384.632216052081,-187500.02235174447,-187500.02235174447,-187500.02235174447,-187500.02235174447
não,3416.8441196494246,-8220.904555428571,7216.506566584893,12421.065559514233,-187500.02235174447,-187500.02235174447,-187500.02235174447,-187500.02235174447
não,3180.8320499458373,-8261.897654759605,6725.103464734968,12478.37543229764,-187500.02235174447,-187500.02235174447,-187500.02235174447,-187500.02235174447
não,3236.7337628285604,-8290.016149284382,6725.394037412887,12448.759370894359,-187500.02235174447,-187500.02235174447,-187500.02235174447,-187500.02235174447
não,3487.5203356171055,-8243.256299883878,7249.520093145382,12382.866428240113,-187500.02235174447,-187500.02235174447,-187500.02235174447,-187500.02235174447
não,3435.552529758517,-8219.183471105513,7271.871837600689,12401.17250694901,-187500.02235174447,-187500.02235174447,-187500.02235174447,-187500.02235174447
não,3188.006959915991,-8252.845198255205,6796.070253380568,12464.785571668814,-187500.02235174447,-187500.02235174447,-187500.02235174447,-187500.02235174447
não,3191.426776817653,-8291.469012673977,6652.728516188684,12449.496978461382,-187500.02235174447,-187500.02235174447,-187500.02235174447,-187500.02235174447
não,3495.0081700096334,-8254.20865466698,7177.6368829771145,12388.54377133176,-187500.02235174447,-187500.02235174447,-187500.02235174447,-187500.02235174447
não,3496.2375159546755,-8217.551793760276,7319.369294568217,12407.296884929763,-187500.02235174447,-187500.02235174447,-187500.02235174447,-187500.02235174447
não,3218.271221908477,-8251.660555799073,6876.804754353137,12461.432810000517,-187500.02235174447,-187500.02235174447,-187500.02235174447,-187500.02235174447
$SILENCE,3163.4870962485193,-8296.49815517642,6613.858832580904,12460.114057077653,-187500.02235174447,-187500.02235174447,-187500.02235174447,-187500.02235174447
$SILENCE,3432.3785820458634,-8263.305814660289,7084.720681276403,12388.744937031859,-187500.02235174447,-187500.02235174447,-187500.02235174447,-187500.02235174447
$SILENCE,3502.987742780178,-8215.406026292567,7346.839588503789,12385.079250941188,-187500.02235174447,-187500.02235174447,-187500.02235174447,-187500.02235174447
$SILENCE,3255.9562630601245,-8235.589651535709,6973.654863077983,12449.206405783463,-187500.02235174447,-187500.02235174447,-187500.02235174447,-187500.02235174447
$SILENCE,3111.228717712011,-8289.747928350918,6597.206782961701,12471.871074661145,-187500.02235174447,-187500.02235174447,-187500.02235174447,-187500.02235174447
$SILENCE,3377.5050494080842,-8273.49821013191,6983.802555060692,12396.232771424386,-187500.02235174447,-187500.02235174447,-187500.02235174447,-187500.02235174447
$SILENCE,3511.5484609065606,-8218.021180393836,7346.191387914585,12379.245445638353,-187500.02235174447,-187500.02235174447,-187500.02235174447,-187500.02235174447
$SILENCE,3305.1524526062553,-8222.446825795987,7063.6429862550485,12432.755521864357,-187500.02235174447,-187500.02235174447,-187500.02235174447,-187500.02235174447
$SILENCE,3120.7058573610616,-8275.152239221601,6616.853966337916,12461.70103093398,-187500.02235174447,-187500.02235174447,-187500.02235174447,-187500.02235174447
$SILENCE,3335.260252387554,-8282.036576513836,6884.583161423584,12407.587457607682,-187500.02235174447,-187500.02235174447,-187500.02235174447,-187500.02235174447
$SILENCE,3520.7573796221473,-8226.805415964773,7330.567518540325,12374.104544413633,-187500.02235174447,-187500.02235174447,-187500.02235174447,-187500.02235174447
$SILENCE,3347.0172699710456,-8221.508052528865,7143.84104536069,12410.515536131328,-187500.02235174447,-187500.02235174447,-187500.02235174447,-187500.02235174447
$SILENCE,3124.259784729455,-8264.132829205135,6663.211484338222,12465.970214124944,-187500.02235174447,-187500.02235174447,-187500.02235174447,-187500.02235174447
$SILENCE,3262.0582892964235,-8284.316454448277,6791.890477167425,12430.833271841202,-187500.02235174447,-187500.02235174447,-187500.02235174447,-187500.02235174447
$SILENCE,3493.220030453209,-8237.310735858768,7291.943704121555,12373.232826379875,-187500.02235174447,-187500.02235174447,-187500.02235174447,-187500.02235174447
$SILENCE,3396.1464042838106,-8217.350628060178,7218.182947419042,12402.826536038701,-187500.02235174447,-187500.02235174447,-187500.02235174447,-187500.02235174447
$SILENCE,3141.1577035376677,-8262.054116970792,6724.1870432123005,12462.058658845266,-187500.02235174447,-187500.02235174447,-187500.02235174447,-187500.02235174447
$SILENCE,3198.042893176424,-8284.539971892831,6709.971333738725,12437.516443433338,-187500.02235174447,-187500.02235174447,-187500.02235174447,-187500.02235174447
$SILENCE,3472.634073809871,-8236.997811436393,7235.550252860815,12376.764402003813,-187500.02235174447,-187500.02235174447,-187500.02235174447,-187500.02235174447
$SILENCE,3430.5233872560725,-8214.981343147916,7268.094392787742,12383.291111384764,-187500.02235174447,-187500.02235174447,-187500.02235174447,-187500.02235174447
$SILENCE,3181.3461400683095,-8252.35345987719,6793.9244859128585,12427.838138084191,-187500.02235174447,-187500.02235174447,-187500.02235174447,-187500.02235174447
$SILENCE,3182.0166924019686,-8294.106518519702,6649.55456847603,12429.916850318534,-187500.02235174447,-187500.02235174447,-187500.02235174447,-187500.02235174447
$SILENCE,3464.0733556834884,-8254.096895944702,7165.9916241159,12378.552541560239,-187500.02235174447,-187500.02235174447,-187500.02235174447,-187500.02235174447
$SILENCE,3459.893579470346,-8222.804453707273,7315.882422433188,12377.144381659555,-187500.02235174447,-187500.02235174447,-187500.02235174447,-187500.02235174447
$SILENCE,3213.7338177840493,-8244.418590595555,6889.187620781377,12436.13063527711,-187500.02235174447,-187500.02235174447,-187500.02235174447,-187500.02235174447
$SILENCE,3134.1169040342456,-8279.175553223557,6617.0104285491025,12458.03534484331,-187500.02235174447,-187500.02235174447,-187500.02235174447,-187500.02235174447
$SILENCE,3422.6779249522597,-8261.070640214759,7072.047242170244,12384.051070696243,-187500.02235174447,-187500.02235174447,-187500.02235174447,-187500.02235174447
$SILENCE,3495.790481065569,-8217.998828649383,7339.552919811359,12371.243521123353,-187500.02235174447,-187500.02235174447,-187500.02235174447,-187500.02235174447
$SILENCE,3248.9601670456136,-8238.853006226183,6976.6499968349935,12428.754559606858,-187500.02235174447,-187500.02235174447,-187500.02235174447,-187500.02235174447
$SILENCE,3109.597040366774,-8285.702262604507,6593.295227682022,12442.724399891425,-187500.02235174447,-187500.02235174447,-187500.02235174447,-187500.02235174447
$SILENCE,3384.9258285672463,-8274.101707232203,6971.598502588094,12382.464096839918,-187500.02235174447,-187500.02235174447,-187500.02235174447,-187500.02235174447
$SILENCE,3515.951754564256,-8223.452654296476,7351.108771694752,12371.288224612264,-187500.02235174447,-187500.02235174447,-187500.02235174447,-187500.02235174447
$SILENCE,3288.4780512425964,-8231.499282300387,7068.87329445759,12407.140422718576,-187500.02235174447,-187500.02235174447,-187500.02235174447,-187500.02235174447
$SILENCE,3105.32785717581,-8283.891771303626,6614.059998281003,12437.427036455518,-187500.02235174447,-187500.02235174447,-187500.02235174447,-187500.02235174447
$SILENCE,3320.3069353469537,-8282.64007361413,6877.497658431252,12399.853754026146,-187500.02235174447,-187500.02235174447,-187500.02235174447,-187500.02235174447
$SILENCE,3502.674818357804,-8231.521634044842,7332.02038192992,12368.471904810895,-187500.02235174447,-187500.02235174447,-187500.02235174447,-187500.02235174447
$SILENCE,3340.8928919902914,-8225.330200830722,7155.374545499629,12400.054919726244,-187500.02235174447,-187500.02235174447,-187500.02235174447,-187500.02235174447
$SILENCE,3120.1247120052235,-8272.693547331519,6668.50884777413,12442.07619930222,-187500.02235174447,-187500.02235174447,-187500.02235174447,-187500.02235174447
$SILENCE,3271.2001527786438,-8293.659483630596,6784.290884052621,12398.959684247933,-187500.02235174447,-187500.02235174447,-187500.02235174447,-187500.02235174447
$SILENCE,3504.4182544253176,-8243.569224306253,7289.105032575731,12349.562329001705,-187500.02235174447,-187500.02235174447,-187500.02235174447,-187500.02235174447
$SILENCE,3397.5322124400395,-8225.039628152803,7228.151825446109,12384.341643374162,-187500.02235174447,-187500.02235174447,-187500.02235174447,-187500.02235174447
$SILENCE,3144.8680931172485,-8265.16100945008,6737.307517207565,12444.356077236662,-187500.02235174447,-187500.02235174447,-187500.02235174447,-187500.02235174447
$SILENCE,3215.723123040572,-8300.186193011546,6710.619534327929,12425.446501427472,-187500.02235174447,-187500.02235174447,-187500.02235174447,-187500.02235174447
$SILENCE,3493.3317891754855,-8248.754829019885,7245.452075654516,12375.043317680755,-187500.02235174447,-187500.02235174447,-187500.02235174447,-187500.02235174447
$SILENCE,3439.7546577161147,-8219.496395527887,7289.082680831276,12380.385384605574,-187500.02235174447,-187500.02235174447,-187500.02235174447,-187500.02235174447
$SILENCE,3176.585218499329,-8259.684832058529,6810.330666343054,12422.004332781355,-187500.02235174447,-187500.02235174447,-187500.02235174447,-187500.02235174447
$SILENCE,3162.011881114469,-8295.581733653753,6638.669268926295,12416.483451900895,-187500.02235174447,-187500.02235174447,-187500.02235174447,-187500.02235174447
$SILENCE,3458.574826547483,-8257.941395991016,7159.040231590299,12356.78194246077,-187500.02235174447,-187500.02235174447,-187500.02235174447,-187500.02235174447
$SILENCE,3478.6243413238935,-8224.30202058578,7332.422713330116,12363.710983241914,-187500.02235174447,-187500.02235174447,-187500.02235174447,-187500.02235174447
$SILENCE,3230.654088336717,-8253.381640122132,6909.281839046698,12425.401797938563,-187500.02235174447,-187500.02235174447,-187500.02235174447,-187500.02235174447
$SILENCE,3145.5162937064524,-8299.627399400164,6612.048341280025,12436.108283532654,-187500.02235174447,-187500.02235174447,-187500.02235174447,-187500.02235174447
$SILENCE,3429.338744799941,-8271.285387430833,7069.677957257982,12371.154114145531,-187500.02235174447,-187500.02235174447,-187500.02235174447,-187500.02235174447
$SILENCE,3507.771016093614,-8225.933697931016,7356.719059553035,12358.905358184023,-187500.02235174447,-187500.02235174447,-187500.02235174447,-187500.02235174447
$SILENCE,3278.3974144932527,-8246.899634230094,6999.247610479309,12403.899419772557,-187500.02235174447,-187500.02235174447,-187500.02235174447,-187500.02235174447
$SILENCE,3126.7408283639943,-8296.408748198599,6607.868565066882,12434.521309676327,-187500.02235174447,-187500.02235174447,-187500.02235174447,-187500.02235174447
$SILENCE,3379.3378924534195,-8282.483611402942,6975.398299145496,12382.061765439721,-187500.02235174447,-187500.02235174447,-187500.02235174447,-187500.02235174447
$SILENCE,3519.3939232103735,-8234.919099202049,7359.401268887672,12360.961718673912,-187500.02235174447,-187500.02235174447,-187500.02235174447,-187500.02235174447
$SILENCE,3332.3768773528195,-8242.138712661113,7091.359149379629,12395.048128968256,-187500.02235174447,-187500.02235174447,-187500.02235174447,-187500.02235174447
$SILENCE,3137.939052336103,-8285.344634693221,6632.321373500989,12433.694295131481,-187500.02235174447,-187500.02235174447,-187500.02235174447,-187500.02235174447
$SILENCE,3338.5012553335737,-8289.837335328739,6876.0447950416565,12390.018986465811,-187500.02235174447,-187500.02235174447,-187500.02235174447,-187500.02235174447
$SILENCE,3534.6825164178035,-8238.67419227054,7337.988297699488,12349.696439468436,-187500.02235174447,-187500.02235174447,-187500.02235174447,-187500.02235174447
$SILENCE,3384.5458489115063,-8229.934660188515,7169.456144506472,12381.793544506258,-187500.02235174447,-187500.02235174447,-187500.02235174447,-187500.02235174447
$SILENCE,3149.494904219497,-8280.06962300177,6675.147315877356,12430.632106141104,-187500.02235174447,-187500.02235174447,-187500.02235174447,-187500.02235174447
$SILENCE,3289.4168245097194,-8301.97433256797,6775.90897988188,12393.416451623018,-187500.02235174447,-187500.02235174447,-187500.02235174447,-187500.02235174447
$SILENCE,3543.4220484998286,-8250.162988920569,7299.185669325075,12347.505968511818,-187500.02235174447,-187500.02235174447,-187500.02235174447,-187500.02235174447
$SILENCE,3456.1384864018546,-8232.035724167315,7249.028354767365,12378.30667237123,-187500.02235174447,-187500.02235174447,-187500.02235174447,-187500.02235174447
$SILENCE,3207.58708805884,-8275.487515388431,6748.52809292413,12423.680713615504,-187500.02235174447,-187500.02235174447,-187500.02235174447,-187500.02235174447
$SILENCE,3265.9474928316467,-8306.332922736756,6709.1666709383335,12397.9762074919,-187500.02235174447,-187500.02235174447,-187500.02235174447,-187500.02235174447
$SILENCE,3546.0819060900103,-8259.975404736448,7239.14888371812,12330.518642725783,-187500.02235174447,-187500.02235174447,-187500.02235174447,-187500.02235174447
$SILENCE,3505.2676207146196,-8229.264107854857,7298.805689669334,12344.175558587976,-187500.02235174447,-187500.02235174447,-187500.02235174447,-187500.02235174447
$SILENCE,3245.741515844049,-8259.953052991994,6825.7980735061265,12398.69146331447,-187500.02235174447,-187500.02235174447,-187500.02235174447,-187500.02235174447
$SILENCE,3229.1788732026666,-8305.93059133656,6645.374792262887,12403.228867438898,-187500.02235174447,-187500.02235174447,-187500.02235174447,-187500.02235174447
$SILENCE,3519.3715714659184,-8274.079355487747,7163.1976560589865,12343.616764976594,-187500.02235174447,-187500.02235174447,-187500.02235174447,-187500.02235174447
$SILENCE,3541.8574263879573,-8228.884128199117,7344.045620446876,12351.082247624667,-187500.02235174447,-187500.02235174447,-187500.02235174447,-187500.02235174447
$SILENCE,3301.5314700044955,-8254.700393044996,6927.498510777773,12405.844021540168,-187500.02235174447,-187500.02235174447,-187500.02235174447,-187500.02235174447
$SILENCE,3206.4247973471643,-8303.40484421311,6618.105664027413,12412.50484138785,-187500.02235174447,-187500.02235174447,-187500.02235174447,-187500.02235174447
$SILENCE,3480.1666116913098,-8277.610931111685,7062.100715887633,12345.516663255295,-187500.02235174447,-187500.02235174447,-187500.02235174447,-187500.02235174447
$SILENCE,3563.8738946764347,-8222.62563975163,7360.7200218105345,12333.178500315966,-187500.02235174447,-187500.02235174447,-187500.02235174447,-187500.02235174447
$SILENCE,3349.7218310501376,-8236.416666080555,7020.705285156404,12389.862524254624,-187500.02235174447,-187500.02235174447,-187500.02235174447,-187500.02235174447
$SILENCE,3201.1497856557116,-8291.245495229423,6613.523556414075,12423.36778919313,-187500.02235174447,-187500.02235174447,-187500.02235174447,-187500.02235174447
$SILENCE,3428.1988058327206,-8283.981178281449,6955.527598324728,12357.430143049973,-187500.02235174447,-187500.02235174447,-187500.02235174447,-187500.02235174447
$SILENCE,3582.8728774634455,-8228.928831688027,7375.539228384403,12317.174651285965,-187500.02235174447,-187500.02235174447,-187500.02235174447,-187500.02235174447
$SILENCE,3374.7781365845367,-8227.833596209717,7085.0112539543225,12360.514683784806,-187500.02235174447,-187500.02235174447,-187500.02235174447,-187500.02235174447
$SILENCE,3189.2810093499434,-8283.757660836895,6629.639164166351,12394.489335356873,-187500.02235174447,-187500.02235174447,-187500.02235174447,-187500.02235174447
$SILENCE,3367.71498533666,-8288.92091380607,6852.128428474478,12355.709058726914,-187500.02235174447,-187500.02235174447,-187500.02235174447,-187500.02235174447
$SILENCE,3571.3617290689626,-8240.641145782607,7313.893117176666,12316.213526274387,-187500.02235174447,-187500.02235174447,-187500.02235174447,-187500.02235174447
$SILENCE,3446.3707740748855,-8227.140692131603,7179.335615555718,12355.0161546488,-187500.02235174447,-187500.02235174447,-187500.02235174447,-187500.02235174447
$SILENCE,3215.2537364070104,-8273.900541532104,6677.002510667147,12398.087966214176,-187500.02235174447,-187500.02235174447,-187500.02235174447,-187500.02235174447
$SILENCE,3327.258327872554,-8294.419442942077,6749.735087124716,12357.631308750071,-187500.02235174447,-187500.02235174447,-187500.02235174447,-187500.02235174447
$SILENCE,3573.8427727035014,-8243.189244650514,7278.309140003817,12307.742215125825,-187500.02235174447,-187500.02235174447,-187500.02235174447,-187500.02235174447
$SILENCE,3491.7001118302483,-8220.837500195206,7248.469561155983,12335.614840461594,-187500.02235174447,-187500.02235174447,-187500.02235174447,-187500.02235174447
$SILENCE,3234.0962569828343,-8259.841294269716,6748.416334201853,12383.939311973967,-187500.02235174447,-187500.02235174447,-187500.02235174447,-187500.02235174447
$SILENCE,3280.096147071856,-8302.466070945988,6683.596275281463,12360.917015185001,-187500.02235174447,-187500.02235174447,-187500.02235174447,-187500.02235174447
$SILENCE,3551.423973014829,-8254.990965722915,7221.826281765257,12302.333092967641,-187500.02235174447,-187500.02235174447,-187500.02235174447,-187500.02235174447
$SILENCE,3523.4619407012397,-8221.82097695124,7309.6462857301585,12317.241706519331,-187500.02235174447,-187500.02235174447,-187500.02235174447,-187500.02235174447
$SILENCE,3277.101013314845,-8254.320413389256,6847.322803416587,12375.423297336496,-187500.02235174447,-187500.02235174447,-187500.02235174447,-187500.02235174447
$SILENCE,3247.909635056214,-8292.765413852383,6642.849045139438,12375.06566942521,-187500.02235174447,-187500.02235174447,-187500.02235174447,-187500.02235174447
$SILENCE,3530.592147182482,-8264.378698394145,7148.601966929671,12311.25143900531,-187500.02235174447,-187500.02235174447,-187500.02235174447,-187500.02235174447
$SILENCE,3558.241255073697,-8221.10572112867,7344.291489635884,12307.541049425728,-187500.02235174447,-187500.02235174447,-187500.02235174447,-187500.02235174447
$SILENCE,3324.0173249265345,-8246.92198597455,6925.6433159879825,12357.54190177225,-187500.02235174447,-187500.02235174447,-187500.02235174447,-187500.02235174447
$SILENCE,3237.6948878401386,-8296.811079598794,6602.347684186421,12370.192989133953,-187500.02235174447,-187500.02235174447,-187500.02235174447,-187500.02235174447
$SILENCE,3509.805024839047,-8283.243570714423,7040.218358065887,12311.117328538578,-187500.02235174447,-187500.02235174447,-187500.02235174447,-187500.02235174447
$SILENCE,3598.653209048892,-8246.430247596532,7358.060164220353,12307.384587214541,-187500.02235174447,-187500.02235174447,-187500.02235174447,-187500.02235174447
$SILENCE,3380.6566453762825,-8253.403991866588,7032.037619595244,12364.40388732003,-187500.02235174447,-187500.02235174447,-187500.02235174447,-187500.02235174447
$SILENCE,3215.298439895921,-8301.147318023124,6612.271858724578,12387.873218998102,-187500.02235174447,-187500.02235174447,-187500.02235174447,-187500.02235174447
$SILENCE,3452.2939863555416,-8292.072509774269,6959.953243726879,12322.87434612207,-187500.02235174447,-187500.02235174447,-187500.02235174447,-187500.02235174447
$SILENCE,3602.6765230508477,-8237.86952947015,7365.145667212685,12289.52554339475,-187500.02235174447,-187500.02235174447,-187500.02235174447,-187500.02235174447
$SILENCE,3420.6886196957375,-8243.591576050709,7114.962591524433,12330.518642725783,-187500.02235174447,-187500.02235174447,-187500.02235174447,-187500.02235174447
$SILENCE,3213.5326520839517,-8297.59339065473,6635.987059591658,12371.288224612264,-187500.02235174447,-187500.02235174447,-187500.02235174447,-187500.02235174447
$SILENCE,3401.9131543532794,-8310.467995460987,6844.439428381852,12319.946267598423,-187500.02235174447,-187500.02235174447,-187500.02235174447,-187500.02235174447
$SILENCE,3612.1089592109875,-8251.548797076797,7338.122408166219,12281.456563646385,-187500.02235174447,-187500.02235174447,-187500.02235174447,-187500.02235174447
$SILENCE,3480.188963435765,-8237.668363770052,7199.653351265592,12318.783976886747,-187500.02235174447,-187500.02235174447,-187500.02235174447,-187500.02235174447
$SILENCE,3249.250739723532,-8287.602160883209,6698.9519237222585,12372.83049497968,-187500.02235174447,-187500.02235174447,-187500.02235174447,-187500.02235174447
$SILENCE,3358.774287554537,-8308.746911137929,6771.751555413193,12349.629384235071,-187500.02235174447,-187500.02235174447,-187500.02235174447,-187500.02235174447
$SILENCE,3606.699837052803,-8253.96278547797,7305.287695561373,12294.442927174918,-187500.02235174447,-187500.02235174447,-187500.02235174447,-187500.02235174447
$SILENCE,3525.4288942133066,-8231.208709622468,7283.718262162002,12319.633343176049,-187500.02235174447,-187500.02235174447,-187500.02235174447,-187500.02235174447
$SILENCE,3284.164164562722,-8271.955939764493,6790.2811515666435,12387.649701553548,-187500.02235174447,-187500.02235174447,-187500.02235174447,-187500.02235174447
$SILENCE,3316.5294905340065,-8311.697341406028,6697.99079871068,12351.953965658424,-187500.02235174447,-187500.02235174447,-187500.02235174447,-187500.02235174447
$SILENCE,3591.9029822233897,-8266.479762372943,7220.865156753678,12274.438115887418,-187500.02235174447,-187500.02235174447,-187500.02235174447,-187500.02235174447
$SILENCE,3568.701871478781,-8222.379770562622,7331.439236574082,12294.241761474821,-187500.02235174447,-187500.02235174447,-187500.02235174447,-187500.02235174447
$SILENCE,3317.915298690236,-8259.506018102888,6875.5754084080945,12352.535111014262,-187500.02235174447,-187500.02235174447,-187500.02235174447,-187500.02235174447
$SILENCE,3264.0922980418563,-8322.940268867049,6640.055077082525,12340.241651563842,-187500.02235174447,-187500.02235174447,-187500.02235174447,-187500.02235174447
$SILENCE,3548.160618324354,-8280.248436957412,7130.988792298889,12283.311758436175,-187500.02235174447,-187500.02235174447,-187500.02235174447,-187500.02235174447
$SILENCE,3600.866031749968,-8234.58382303522,7342.905681479655,12286.642168360017,-187500.02235174447,-187500.02235174447,-187500.02235174447,-187500.02235174447
$SILENCE,3373.8617150618693,-8256.53323609033,6975.688871823415,12350.411695291006,-187500.02235174447,-187500.02235174447,-187500.02235174447,-187500.02235174447
$SILENCE,3268.786164377471,-8305.774129125373,6660.350461047943,12378.932521215978,-187500.02235174447,-187500.02235174447,-187500.02235174447,-187500.02235174447
$SILENCE,3515.571774908516,-8294.397091197621,7047.259157569309,12297.39335744302,-187500.02235174447,-187500.02235174447,-187500.02235174447,-187500.02235174447
$SILENCE,3613.7853400451354,-8248.374849364143,7373.661681850158,12274.460467631874,-187500.02235174447,-187500.02235174447,-187500.02235174447,-187500.02235174447
$SILENCE,3410.183299801743,-8257.717878546462,7069.834419469169,12325.400093245518,-187500.02235174447,-187500.02235174447,-187500.02235174447,-187500.02235174447
$SILENCE,3225.06615222289,-8313.21726002899,6604.672265609774,12340.219299819388,-187500.02235174447,-187500.02235174447,-187500.02235174447,-187500.02235174447
$SILENCE,3455.423230579285,-8312.144376295135,6905.258525044743,12281.277749690742,-187500.02235174447,-187500.02235174447,-187500.02235174447,-187500.02235174447
$SILENCE,3623.463645394283,-8242.92102371705,7347.9795274710095,12267.151447194989,-187500.02235174447,-187500.02235174447,-187500.02235174447,-187500.02235174447
$SILENCE,3450.1705706322878,-8244.083314428724,7137.381391213106,12320.549764698717,-187500.02235174447,-187500.02235174447,-187500.02235174447,-187500.02235174447
$SILENCE,3235.3703064167867,-8299.02390229987,6676.980158922692,12368.717773999904,-187500.02235174447,-187500.02235174447,-187500.02235174447,-187500.02235174447
$SILENCE,3413.96074461469,-8311.250306516922,6842.852454525525,12311.072625049666,-187500.02235174447,-187500.02235174447,-187500.02235174447,-187500.02235174447
$SILENCE,3625.76587507318,-8253.672212800051,7324.174919626108,12266.793819283703,-187500.02235174447,-187500.02235174447,-187500.02235174447,-187500.02235174447
$SILENCE,3494.9187630318124,-8245.714991773963,7212.103272927198,12305.99877905831,-187500.02235174447,-187500.02235174447,-187500.02235174447,-187500.02235174447
$SILENCE,3249.809533334915,-8289.703224862007,6712.430025628809,12360.246462851343,-187500.02235174447,-187500.02235174447,-187500.02235174447,-187500.02235174447
$SILENCE,3355.935616008713,-8307.897544848627,6753.66899414885,12332.127968326566,-187500.02235174447,-187500.02235174447,-187500.02235174447,-187500.02235174447
$SILENCE,3615.9087557683893,-8255.885035501127,7283.427689484083,12277.209732199875,-187500.02235174447,-187500.02235174447,-187500.02235174447,-187500.02235174447
$SILENCE,3531.3297547495076,-8236.01433468036,7285.6405121851585,12303.048348790211,-187500.02235174447,-187500.02235174447,-187500.02235174447,-187500.02235174447
$SILENCE,3276.966902848113,-8272.715899075973,6799.937105171336,12362.682802996971,-187500.02235174447,-187500.02235174447,-187500.02235174447,-187500.02235174447
$SILENCE,3307.6334962407946,-8307.159937281602,6687.0384439275795,12349.53997725725,-187500.02235174447,-187500.02235174447,-187500.02235174447,-187500.02235174447
$SILENCE,3582.604656529982,-8263.283462915833,7199.049854165299,12285.14460148151,-187500.02235174447,-187500.02235174447,-187500.02235174447,-187500.02235174447
$SILENCE,3559.0459178740884,-8228.995886921393,7311.657942731135,12290.844296317613,-187500.02235174447,-187500.02235174447,-187500.02235174447,-187500.02235174447
$SILENCE,3305.5324322619954,-8256.10855294568,6876.134202019478,12348.198872589932,-187500.02235174447,-187500.02235174447,-187500.02235174447,-187500.02235174447
