WORD,Channel_1,Channel_2,Channel_3,Channel_4,Channel_5,Channel_6,Channel_7,Channel_8
talvez,3052.0636501388135,-8676.231941727632,7469.8412382413435,12060.755438894683,-187500.02235174447,-187500.02235174447,-187500.02235174447,-187500.02235174447
talvez,3285.1923448076664,-8656.204778695677,7851.787847493631,12015.537859861597,-187500.02235174447,-187500.02235174447,-187500.02235174447,-187500.02235174447
talvez,3186.978779671047,-8645.699458801682,7826.329210559036,12038.873081072938,-187500.02235174447,-187500.02235174447,-187500.02235174447,-187500.02235174447
talvez,2910.1747763365242,-8633.651868540272,7472.121116175786,12100.139212624934,-187500.02235174447,-187500.02235174447,-187500.02235174447,-187500.02235174447
talvez,2919.8754334301275,-8672.521552148051,7355.69087930809,12043.455188686276,-187500.02235174447,-187500.02235174447,-187500.02235174447,-187500.02235174447
talvez,3251.575321146884,-8685.306749976486,7777.0659657795395,12002.61855156643,-187500.02235174447,-187500.02235174447,-187500.02235174447,-187500.02235174447
talvez,3248.580187389873,-8638.122217431333,7877.961740250796,12066.812761642072,-187500.02235174447,-187500.02235174447,-187500.02235174447,-187500.02235174447
talvez,3000.9228588250708,-8634.65769704076,7543.132608310296,12115.830137232559,-187500.02235174447,-187500.02235174447,-187500.02235174447,-187500.02235174447
talvez,2912.8122821822503,-8656.696517073693,7373.639330105702,12097.568762012574,-187500.02235174447,-187500.02235174447,-187500.02235174447,-187500.02235174447
talvez,3140.8894826042037,-8646.928804746723,7715.866889460909,12042.672877630339,-187500.02235174447,-187500.02235174447,-187500.02235174447,-187500.02235174447
talvez,3222.7639225439934,-8628.265098126543,7883.974359509273,12041.711752618761,-187500.02235174447,-187500.02235174447,-187500.02235174447,-187500.02235174447
talvez,3036.88681565366,-8624.733522502604,7609.673751553745,12114.913715709892,-187500.02235174447,-187500.02235174447,-187500.02235174447,-187500.02235174447
talvez,2904.631543711608,-8667.134781734321,7344.35854486925,12082.928369394347,-187500.02235174447,-187500.02235174447,-187500.02235174447,-187500.02235174447
talvez,3144.5328169504187,-8675.963720794169,7646.420019438269,12049.66897364485,-187500.02235174447,-187500.02235174447,-187500.02235174447,-187500.02235174447
talvez,3220.4169893761864,-8617.580964276905,7909.23183074377,12071.39486925541,-187500.02235174447,-187500.02235174447,-187500.02235174447,-187500.02235174447
talvez,3054.7011559845396,-8631.37199060583,7673.644444184833,12087.175200840855,-187500.02235174447,-187500.02235174447,-187500.02235174447,-187500.02235174447
talvez,2919.696619474485,-8660.76453456456,7345.520835580926,12094.372462555464,-187500.02235174447,-187500.02235174447,-187500.02235174447,-187500.02235174447
talvez,3141.71649714905,-8671.538075392018,7588.797222232488,12064.756401152183,-187500.02235174447,-187500.02235174447,-187500.02235174447,-187500.02235174447
talvez,3264.785202119971,-8636.51289183055,7913.053979045628,12050.026601556136,-187500.02235174447,-187500.02235174447,-187500.02235174447,-187500.02235174447
talvez,3096.074234971313,-8624.46530156914,7736.7434187821655,12094.886552677937,-187500.02235174447,-187500.02235174447,-187500.02235174447,-187500.02235174447
talvez,2931.3418783357,-8673.81795332646,7371.627673104725,12088.270436319166,-187500.02235174447,-187500.02235174447,-187500.02235174447,-187500.02235174447
talvez,3104.4784908865086,-8680.858752829881,7510.029674771986,12073.920616378859,-187500.02235174447,-187500.02235174447,-187500.02235174447,-187500.02235174447
talvez,3264.3158154864095,-8641.005592466068,7892.065691002094,12050.451284700786,-187500.02235174447,-187500.02235174447,-187500.02235174447,-187500.02235174447
talvez,3132.3511162222762,-8618.810310221948,7796.44492822229,12090.01387238668,-187500.02235174447,-187500.02235174447,-187500.02235174447,-187500.02235174447
talvez,2937.5556632942753,-8638.479845342617,7436.000697136009,12125.664904792895,-187500.02235174447,-187500.02235174447,-187500.02235174447,-187500.02235174447
talvez,3012.590469430741,-8659.959871764167,7440.918080916176,12076.2004943133,-187500.02235174447,-187500.02235174447,-187500.02235174447,-187500.02235174447
talvez,3214.136149184245,-8648.985165236612,7848.233920125237,12041.599993896485,-187500.02235174447,-187500.02235174447,-187500.02235174447,-187500.02235174447
talvez,3182.3296168243432,-8623.951211446669,7846.535187546634,12067.505665720186,-187500.02235174447,-187500.02235174447,-187500.02235174447,-187500.02235174447
talvez,2963.573093840253,-8647.644060569293,7483.006415725519,12103.939009182335,-187500.02235174447,-187500.02235174447,-187500.02235174447,-187500.02235174447
talvez,2980.8062888152945,-8669.9958050246,7405.825842121344,12101.279151592154,-187500.02235174447,-187500.02235174447,-187500.02235174447,-187500.02235174447
talvez,3211.744512527527,-8652.80731353847,7802.144623058394,12048.976069566736,-187500.02235174447,-187500.02235174447,-187500.02235174447,-187500.02235174447
talvez,3216.4830823520524,-8628.756836504559,7879.593417596033,12058.855540615981,-187500.02235174447,-187500.02235174447,-187500.02235174447,-187500.02235174447
talvez,3002.8004053593168,-8640.156226176767,7543.199663543662,12093.657206732894,-187500.02235174447,-187500.02235174447,-187500.02235174447,-187500.02235174447
talvez,2923.1611398650575,-8665.056069499979,7364.452763134571,12110.108090652,-187500.02235174447,-187500.02235174447,-187500.02235174447,-187500.02235174447
talvez,3168.8291631733377,-8650.37097339284,7730.551985568045,12061.157770294878,-187500.02235174447,-187500.02235174447,-187500.02235174447,-187500.02235174447
talvez,3238.6336611072616,-8623.079493412912,7912.204612756326,12038.04606652809,-187500.02235174447,-187500.02235174447,-187500.02235174447,-187500.02235174447
talvez,3056.198722863045,-8637.362258119852,7629.611507607879,12082.503686249696,-187500.02235174447,-187500.02235174447,-187500.02235174447,-187500.02235174447
talvez,2947.8151139992615,-8669.079383501934,7366.397364902183,12106.218887116776,-187500.02235174447,-187500.02235174447,-187500.02235174447,-187500.02235174447
talvez,3144.465761717053,-8666.419525911751,7651.203292751706,12053.893453346904,-187500.02235174447,-187500.02235174447,-187500.02235174447,-187500.02235174447
talvez,3264.852257353337,-8639.888005243303,7914.596249413044,12033.799235081582,-187500.02235174447,-187500.02235174447,-187500.02235174447,-187500.02235174447
talvez,3095.47073787102,-8638.23397615361,7685.04383385704,12066.365726752965,-187500.02235174447,-187500.02235174447,-187500.02235174447,-187500.02235174447
talvez,2939.0755819172364,-8662.843246798902,7373.035833005409,12095.400642800409,-187500.02235174447,-187500.02235174447,-187500.02235174447,-187500.02235174447
talvez,3105.2160984535335,-8671.739241092115,7575.587341259402,12044.885700331415,-187500.02235174447,-187500.02235174447,-187500.02235174447,-187500.02235174447
talvez,3271.4683737121077,-8640.200929665676,7905.432034186368,12025.32792393302,-187500.02235174447,-187500.02235174447,-187500.02235174447,-187500.02235174447
talvez,3124.6397643851956,-8633.920089473735,7748.29927066556,12069.092639576513,-187500.02235174447,-187500.02235174447,-187500.02235174447,-187500.02235174447
talvez,2934.985212681915,-8653.90254901678,7409.402121234193,12108.476413306764,-187500.02235174447,-187500.02235174447,-187500.02235174447,-187500.02235174447
talvez,3060.087926398269,-8672.074517258945,7514.075340518397,12063.661165673873,-187500.02235174447,-187500.02235174447,-187500.02235174447,-187500.02235174447
talvez,3276.7657371480154,-8649.387496636808,7888.422356655879,12017.258944184656,-187500.02235174447,-187500.02235174447,-187500.02235174447,-187500.02235174447
talvez,3195.3830355862424,-8640.04446745449,7813.0522743525835,12040.013020040158,-187500.02235174447,-187500.02235174447,-187500.02235174447,-187500.02235174447
talvez,2978.1464312251132,-8657.56823510745,7452.853912455311,12085.96820664027,-187500.02235174447,-187500.02235174447,-187500.02235174447,-187500.02235174447
talvez,3031.5894522177523,-8680.970511552157,7447.5341972749475,12058.520264449153,-187500.02235174447,-187500.02235174447,-187500.02235174447,-187500.02235174447
talvez,3274.776431891493,-8661.502142131585,7840.0531816545945,12008.698226058272,-187500.02235174447,-187500.02235174447,-187500.02235174447,-187500.02235174447
talvez,3221.6686870656836,-8643.218415167143,7850.245577126215,12025.752607077671,-187500.02235174447,-187500.02235174447,-187500.02235174447,-187500.02235174447
talvez,3015.8761758656715,-8657.590586851906,7507.727445093089,12070.545502966108,-187500.02235174447,-187500.02235174447,-187500.02235174447,-187500.02235174447
talvez,3019.2512892784225,-8685.418508698764,7411.816109635367,12059.928424349837,-187500.02235174447,-187500.02235174447,-187500.02235174447,-187500.02235174447
talvez,3258.5714171613954,-8669.392307924309,7793.963884587752,12008.742929547183,-187500.02235174447,-187500.02235174447,-187500.02235174447,-187500.02235174447
talvez,3269.233199266577,-8643.196063422689,7898.614752127499,12016.588391850995,-187500.02235174447,-187500.02235174447,-187500.02235174447,-187500.02235174447
talvez,3061.943121188059,-8652.740258305104,7581.354091328871,12063.080020318035,-187500.02235174447,-187500.02235174447,-187500.02235174447,-187500.02235174447
talvez,2983.2649807053785,-8688.458345944684,7386.379824445227,12062.297709262099,-187500.02235174447,-187500.02235174447,-187500.02235174447,-187500.02235174447
talvez,3219.947602742625,-8679.987034796124,7746.980517742696,12012.498022615675,-187500.02235174447,-187500.02235174447,-187500.02235174447,-187500.02235174447
talvez,3293.261324556032,-8645.006554723568,7933.483473477778,12012.81094703805,-187500.02235174447,-187500.02235174447,-187500.02235174447,-187500.02235174447
talvez,3089.055787212347,-8641.318516888443,7638.440446667725,12057.00034582619,-187500.02235174447,-187500.02235174447,-187500.02235174447,-187500.02235174447
talvez,2986.148355740113,-8652.33792690491,7407.904554355688,12084.113011850479,-187500.02235174447,-187500.02235174447,-187500.02235174447,-187500.02235174447
talvez,3197.2158786315777,-8680.0987935184,7684.216819312194,12017.683627329307,-187500.02235174447,-187500.02235174447,-187500.02235174447,-187500.02235174447
talvez,3297.9328391471913,-8672.275682959042,7902.436900429357,11988.76047000414,-187500.02235174447,-187500.02235174447,-187500.02235174447,-187500.02235174447
talvez,3130.697087132584,-8656.987089751612,7706.389749811859,12042.516415419152,-187500.02235174447,-187500.02235174447,-187500.02235174447,-187500.02235174447
talvez,2972.022053244359,-8674.734374849126,7399.835574607322,12064.935215107826,-187500.02235174447,-187500.02235174447,-187500.02235174447,-187500.02235174447
talvez,3157.3180147788544,-8661.18921770921,7633.7018768432,12036.101464760479,-187500.02235174447,-187500.02235174447,-187500.02235174447,-187500.02235174447
talvez,3320.7316184916044,-8636.959926719657,7944.346421283058,12000.405728865353,-187500.02235174447,-187500.02235174447,-187500.02235174447,-187500.02235174447
talvez,3153.9652531105585,-8663.849075299391,7714.928116193786,12003.691435300283,-187500.02235174447,-187500.02235174447,-187500.02235174447,-187500.02235174447
talvez,2951.056116945281,-8697.220229771165,7393.308865226372,12032.324019947531,-187500.02235174447,-187500.02235174447,-187500.02235174447,-187500.02235174447
talvez,3091.8721070137153,-8683.809183097981,7532.135550038284,12032.122854247435,-187500.02235174447,-187500.02235174447,-187500.02235174447,-187500.02235174447
talvez,3347.352546137875,-8599.923086157214,7966.698165738365,12044.326906720033,-187500.02235174447,-187500.02235174447,-187500.02235174447,-187500.02235174447
talvez,3155.127543822234,-8666.24071195611,7771.410974432347,11991.934417716791,-187500.02235174447,-187500.02235174447,-187500.02235174447,-187500.02235174447
talvez,2941.4225150850434,-8687.72073837766,7475.563284821902,12041.644697385394,-187500.02235174447,-187500.02235174447,-187500.02235174447,-187500.02235174447
talvez,2987.8917918076268,-8725.763407440592,7420.75680741749,11997.768223019628,-187500.02235174447,-187500.02235174447,-187500.02235174447,-187500.02235174447
talvez,3230.6987918256277,-8711.190070055733,7883.907304275907,11966.36402205992,-187500.02235174447,-187500.02235174447,-187500.02235174447,-187500.02235174447
talvez,3215.365495129287,-8656.920034518247,7845.641117768421,12012.296856915576,-187500.02235174447,-187500.02235174447,-187500.02235174447,-187500.02235174447
talvez,2985.5448586398197,-8680.210552240676,7448.897653686721,12058.229691771234,-187500.02235174447,-187500.02235174447,-187500.02235174447,-187500.02235174447
talvez,2983.242628960923,-8700.483584461641,7480.52537209098,12051.345354478999,-187500.02235174447,-187500.02235174447,-187500.02235174447,-187500.02235174447
talvez,3206.1565764137003,-8697.823726871458,7931.471816476801,11969.31445232802,-187500.02235174447,-187500.02235174447,-187500.02235174447,-187500.02235174447
talvez,3175.0205963874578,-8716.621543958372,7827.267983826159,11941.039495592058,-187500.02235174447,-187500.02235174447,-187500.02235174447,-187500.02235174447
talvez,2929.173759123535,-8771.11509694041,7337.921242466122,11974.164780874824,-187500.02235174447,-187500.02235174447,-187500.02235174447,-187500.02235174447
talvez,2814.1069786676144,-8805.045045023566,7149.4066297300615,11921.481719193664,-187500.02235174447,-187500.02235174447,-187500.02235174447,-187500.02235174447
talvez,3159.2179130575555,-8742.25899484861,7672.124525561872,11963.838274936472,-187500.02235174447,-187500.02235174447,-187500.02235174447,-187500.02235174447
talvez,3243.1487134872336,-8763.269634636597,7914.909173835418,11963.391240047365,-187500.02235174447,-187500.02235174447,-187500.02235174447,-187500.02235174447
talvez,2980.8733440486603,-8759.581596801472,7477.507886589514,11956.730420199683,-187500.02235174447,-187500.02235174447,-187500.02235174447,-187500.02235174447
talvez,2848.796886062251,-8764.409573603818,7218.3170578857735,11935.563318200508,-187500.02235174447,-187500.02235174447,-187500.02235174447,-187500.02235174447
talvez,3063.8430194667603,-8783.430908135284,7528.782788369988,11913.12216676738,-187500.02235174447,-187500.02235174447,-187500.02235174447,-187500.02235174447
talvez,3220.7522655430157,-8755.044192677045,7767.722936597221,11924.633315161862,-187500.02235174447,-187500.02235174447,-187500.02235174447,-187500.02235174447
talvez,3015.339733998744,-8767.762335272115,7541.8585588763435,11861.10965741988,-187500.02235174447,-187500.02235174447,-187500.02235174447,-187500.02235174447
talvez,2905.9055931455605,-8754.39599208784,7328.645268517169,12002.462089355242,-187500.02235174447,-187500.02235174447,-187500.02235174447,-187500.02235174447
talvez,3065.8993799566488,-8731.261936576599,7533.811930872433,12006.552458590562,-187500.02235174447,-187500.02235174447,-187500.02235174447,-187500.02235174447
talvez,3292.188440822177,-8712.86645088988,7873.513743104189,11950.22606256319,-187500.02235174447,-187500.02235174447,-187500.02235174447,-187500.02235174447
talvez,3132.887558089204,-8709.893668877325,7736.765770526621,11952.058905608525,-187500.02235174447,-187500.02235174447,-187500.02235174447,-187500.02235174447
talvez,2887.9571423479492,-8749.411553074307,7368.565484114348,12029.015961768147,-187500.02235174447,-187500.02235174447,-187500.02235174447,-187500.02235174447
talvez,3022.045257335336,-8748.070448406988,7446.707182730101,12020.946982019781,-187500.02235174447,-187500.02235174447,-187500.02235174447,-187500.02235174447
talvez,3263.5335044304734,-8704.05986357449,7838.510911287179,11993.923722973315,-187500.02235174447,-187500.02235174447,-187500.02235174447,-187500.02235174447
talvez,3121.890499817193,-8689.106546533889,7792.06398630905,12029.66416235735,-187500.02235174447,-187500.02235174447,-187500.02235174447,-187500.02235174447
talvez,2907.693732701985,-8707.904363620803,7437.90059541471,12086.795221185115,-187500.02235174447,-187500.02235174447,-187500.02235174447,-187500.02235174447
talvez,2932.9288521920266,-8733.363000555397,7370.666548093146,12039.744799106695,-187500.02235174447,-187500.02235174447,-187500.02235174447,-187500.02235174447
talvez,3226.004925490013,-8689.061843044978,7783.436212949302,12020.119967474935,-187500.02235174447,-187500.02235174447,-187500.02235174447,-187500.02235174447
talvez,3223.747399300027,-8672.834476570426,7849.463266070279,12051.971203323747,-187500.02235174447,-187500.02235174447,-187500.02235174447,-187500.02235174447
talvez,2999.134719268646,-8701.176488539755,7524.8935848347655,12137.086646209556,-187500.02235174447,-187500.02235174447,-187500.02235174447,-187500.02235174447
talvez,2959.102744949191,-8720.264878304586,7386.536286656415,12111.87387846397,-187500.02235174447,-187500.02235174447,-187500.02235174447,-187500.02235174447
talvez,3243.014603020502,-8704.52925020805,7773.266169222137,12036.481444416218,-187500.02235174447,-187500.02235174447,-187500.02235174447,-187500.02235174447
talvez,3244.6686321101943,-8688.145421522311,7895.194935225837,12022.75747332066,-187500.02235174447,-187500.02235174447,-187500.02235174447,-187500.02235174447
talvez,3041.3571645447214,-8697.622561171362,7598.967265959653,12093.791317199626,-187500.02235174447,-187500.02235174447,-187500.02235174447,-187500.02235174447
talvez,2959.661538560574,-8718.409683514796,7392.7053681260795,12103.179049870856,-187500.02235174447,-187500.02235174447,-187500.02235174447,-187500.02235174447
talvez,3203.6978845236167,-8711.190070055733,7726.90865122183,12059.749610394194,-187500.02235174447,-187500.02235174447,-187500.02235174447,-187500.02235174447
talvez,3257.07385028289,-8689.352415722897,7941.105418337038,12035.90029906038,-187500.02235174447,-187500.02235174447,-187500.02235174447,-187500.02235174447
talvez,3044.5981674907407,-8698.29311350502,7669.37526099387,12044.23749974221,-187500.02235174447,-187500.02235174447,-187500.02235174447,-187500.02235174447
talvez,2937.935642950016,-8706.764424653582,7404.216516520562,12109.124613895967,-187500.02235174447,-187500.02235174447,-187500.02235174447,-187500.02235174447
talvez,3162.9953578705026,-8716.599192213916,7661.306281245504,12075.19466581281,-187500.02235174447,-187500.02235174447,-187500.02235174447,-187500.02235174447
talvez,3302.4702432716185,-8687.519572677562,7954.248244076758,12047.657316643872,-187500.02235174447,-187500.02235174447,-187500.02235174447,-187500.02235174447
talvez,3132.5075784334636,-8678.176543495243,7762.939663283785,12089.522134008663,-187500.02235174447,-187500.02235174447,-187500.02235174447,-187500.02235174447
talvez,2932.347706836189,-8697.980189082646,7422.902574885199,12113.594962787029,-187500.02235174447,-187500.02235174447,-187500.02235174447,-187500.02235174447
talvez,3101.013970495936,-8708.999599099112,7583.142230885295,12075.842866402016,-187500.02235174447,-187500.02235174447,-187500.02235174447,-187500.02235174447
talvez,3288.7015686871496,-8684.367976709364,7928.18611004187,12053.37936322443,-187500.02235174447,-187500.02235174447,-187500.02235174447,-187500.02235174447
talvez,3157.2286078010334,-8668.76645907956,7809.788919662109,12092.293750321121,-187500.02235174447,-187500.02235174447,-187500.02235174447,-187500.02235174447
talvez,2950.340861122711,-8667.648871856794,7474.758622021512,12151.525873127684,-187500.02235174447,-187500.02235174447,-187500.02235174447,-187500.02235174447
talvez,3046.3863070471657,-8679.785869096026,7531.219128515617,12122.647419291428,-187500.02235174447,-187500.02235174447,-187500.02235174447,-187500.02235174447
talvez,3286.779318663993,-8655.444819384196,7922.776987883686,12086.72816595175,-187500.02235174447,-187500.02235174447,-187500.02235174447,-187500.02235174447
talvez,3216.8630620077925,-8634.411827851753,7881.806240297108,12132.437483362852,-187500.02235174447,-187500.02235174447,-187500.02235174447,-187500.02235174447
talvez,2968.602236342697,-8645.632403568317,7519.842090587866,12176.291605984165,-187500.02235174447,-187500.02235174447,-187500.02235174447,-187500.02235174447
talvez,3018.670143922585,-8666.866560800858,7478.066680200896,12172.067126282112,-187500.02235174447,-187500.02235174447,-187500.02235174447,-187500.02235174447
talvez,3276.6316266812837,-8656.294185673498,7855.319423117569,12091.310273565088,-187500.02235174447,-187500.02235174447,-187500.02235174447,-187500.02235174447
talvez,3254.9951380485463,-8624.130025402312,7926.375618740991,12108.766985984683,-187500.02235174447,-187500.02235174447,-187500.02235174447,-187500.02235174447
talvez,3069.9226939586038,-8624.577060291418,7616.848661523898,12185.500524699752,-187500.02235174447,-187500.02235174447,-187500.02235174447,-187500.02235174447
talvez,3007.606030417208,-8654.28252867252,7445.90251992971,12159.416038920408,-187500.02235174447,-187500.02235174447,-187500.02235174447,-187500.02235174447
talvez,3249.206036234622,-8651.153284448777,7805.1844603043155,12106.554163283607,-187500.02235174447,-187500.02235174447,-187500.02235174447,-187500.02235174447
talvez,3276.273998769999,-8633.160130162256,7943.608813716032,12111.426843574864,-187500.02235174447,-187500.02235174447,-187500.02235174447,-187500.02235174447
talvez,3066.860504968227,-8626.834586481404,7654.019612553074,12156.219739463299,-187500.02235174447,-187500.02235174447,-187500.02235174447,-187500.02235174447
talvez,2984.0249400168586,-8646.370011135341,7435.330144802349,12173.02825129369,-187500.02235174447,-187500.02235174447,-187500.02235174447,-187500.02235174447
talvez,3211.4762915940632,-8647.979336736124,7740.654974061844,12113.036169175646,-187500.02235174447,-187500.02235174447,-187500.02235174447,-187500.02235174447
talvez,3290.914391388225,-8620.75491198956,7966.854627949551,12102.039110903635,-187500.02235174447,-187500.02235174447,-187500.02235174447,-187500.02235174447
talvez,3104.7020083310617,-8624.353542846864,7716.246869116649,12133.68918105235,-187500.02235174447,-187500.02235174447,-187500.02235174447,-187500.02235174447
talvez,2981.633303360141,-8647.778171036027,7424.221327808062,12157.762009830716,-187500.02235174447,-187500.02235174447,-187500.02235174447,-187500.02235174447
talvez,3191.0915006508235,-8658.149380463288,7655.7406968761325,12103.44727080432,-187500.02235174447,-187500.02235174447,-187500.02235174447,-187500.02235174447
talvez,3295.8541269128477,-8642.65962155576,7941.753618926242,12059.43668597182,-187500.02235174447,-187500.02235174447,-187500.02235174447,-187500.02235174447
talvez,3148.6678896746507,-8622.61010677935,7781.335148970503,12132.012800218201,-187500.02235174447,-187500.02235174447,-187500.02235174447,-187500.02235174447
talvez,2995.7149023669845,-8639.217452909643,7450.797551965422,12157.002050519235,-187500.02235174447,-187500.02235174447,-187500.02235174447,-187500.02235174447
talvez,3108.1888804660894,-8655.914206017758,7596.285056625016,12108.565820284584,-187500.02235174447,-187500.02235174447,-187500.02235174447,-187500.02235174447
talvez,3333.4050575977635,-8608.103824627857,7989.943979971884,12105.838907461037,-187500.02235174447,-187500.02235174447,-187500.02235174447,-187500.02235174447
talvez,3182.4190238021642,-8631.66256328375,7834.755818218687,12117.573573300073,-187500.02235174447,-187500.02235174447,-187500.02235174447,-187500.02235174447
talvez,2961.7849542838285,-8679.830572584937,7454.7538107340115,12128.324762383076,-187500.02235174447,-187500.02235174447,-187500.02235174447,-187500.02235174447
talvez,3070.5485428033526,-8676.298996960997,7514.0976922628515,12131.409303117909,-187500.02235174447,-187500.02235174447,-187500.02235174447,-187500.02235174447
talvez,3309.0193043970235,-8645.23007216812,7905.543792908645,12061.023659828146,-187500.02235174447,-187500.02235174447,-187500.02235174447,-187500.02235174447
talvez,3242.433457664664,-8603.94640015917,7918.217232014804,12109.01285517369,-187500.02235174447,-187500.02235174447,-187500.02235174447,-187500.02235174447
talvez,2995.6478471336186,-8633.94244121819,7535.421256473215,12134.471492108285,-187500.02235174447,-187500.02235174447,-187500.02235174447,-187500.02235174447
talvez,3018.8936613671376,-8667.984148023623,7479.050156956931,12108.364654584486,-187500.02235174447,-187500.02235174447,-187500.02235174447,-187500.02235174447
talvez,3277.9503796041467,-8640.782075021514,7865.981205222751,12077.899226891903,-187500.02235174447,-187500.02235174447,-187500.02235174447,-187500.02235174447
talvez,3259.1749142616886,-8632.355467361864,7920.5194616937,12086.370538040464,-187500.02235174447,-187500.02235174447,-187500.02235174447,-187500.02235174447
talvez,3064.1335921446794,-8627.862766726348,7640.407400179792,12124.882593736958,-187500.02235174447,-187500.02235174447,-187500.02235174447,-187500.02235174447
talvez,3006.2202222609785,-8687.318406977463,7465.035613183452,12121.485128579752,-187500.02235174447,-187500.02235174447,-187500.02235174447,-187500.02235174447
talvez,3221.0651899653903,-8659.75870606407,7860.728545275753,12091.712604965283,-187500.02235174447,-187500.02235174447,-187500.02235174447,-187500.02235174447
talvez,3284.2535715405434,-8596.41386227773,7956.751639455752,12082.973072883258,-187500.02235174447,-187500.02235174447,-187500.02235174447,-187500.02235174447
talvez,3009.0365420623475,-8673.057994014978,7557.8847596507985,12054.72046789175,-187500.02235174447,-187500.02235174447,-187500.02235174447,-187500.02235174447
talvez,2969.898637521105,-8667.76063057907,7398.181545517629,12131.610468818006,-187500.02235174447,-187500.02235174447,-187500.02235174447,-187500.02235174447
talvez,3243.8192658208927,-8615.278734598009,7742.599575829456,12113.930238953859,-187500.02235174447,-187500.02235174447,-187500.02235174447,-187500.02235174447
talvez,3240.2206349635885,-8693.353377980397,7873.647853570921,11996.22595265221,-187500.02235174447,-187500.02235174447,-187500.02235174447,-187500.02235174447
talvez,3016.2561555214115,-8733.765331955592,7656.478304443158,12021.796348309083,-187500.02235174447,-187500.02235174447,-187500.02235174447,-187500.02235174447
talvez,2935.0969714041917,-8673.639139370816,7444.986098407042,12107.604695273007,-187500.02235174447,-187500.02235174447,-187500.02235174447,-187500.02235174447
talvez,3096.6777320716064,-8732.513634266095,7583.432803563214,12013.816775538538,-187500.02235174447,-187500.02235174447,-187500.02235174447,-187500.02235174447
talvez,3228.396562146731,-8740.180282614265,7809.5430504731,11976.958748931736,-187500.02235174447,-187500.02235174447,-187500.02235174447,-187500.02235174447
talvez,3076.8070312508385,-8729.674962720272,7613.160623688773,12028.121891989935,-187500.02235174447,-187500.02235174447,-187500.02235174447,-187500.02235174447
talvez,2854.56363613172,-8759.715707268204,7284.902904618133,12009.212316180745,-187500.02235174447,-187500.02235174447,-187500.02235174447,-187500.02235174447
talvez,3023.274603280378,-8756.519407811094,7458.888883458243,12002.082109699502,-187500.02235174447,-187500.02235174447,-187500.02235174447,-187500.02235174447
talvez,3271.5801324343843,-8707.613790942883,7886.388347910446,11999.84693525397,-187500.02235174447,-187500.02235174447,-187500.02235174447,-187500.02235174447
talvez,3164.62703521574,-8709.334875265942,7777.982387302207,12010.106385958958,-187500.02235174447,-187500.02235174447,-187500.02235174447,-187500.02235174447
talvez,2900.407064009555,-8758.665175278804,7348.068934448831,12002.551496333062,-187500.02235174447,-187500.02235174447,-187500.02235174447,-187500.02235174447
talvez,2977.1406027246244,-8763.806076503524,7350.237053660996,12021.438720397797,-187500.02235174447,-187500.02235174447,-187500.02235174447,-187500.02235174447
talvez,3227.077809223868,-8734.100608122422,7766.225369718715,11972.980138418692,-187500.02235174447,-187500.02235174447,-187500.02235174447,-187500.02235174447
talvez,3175.91466616567,-8721.494224249629,7787.504230440168,11989.2298566377,-187500.02235174447,-187500.02235174447,-187500.02235174447,-187500.02235174447
talvez,2948.7091837774738,-8730.524329009573,7459.335918347349,12049.445456200297,-187500.02235174447,-187500.02235174447,-187500.02235174447,-187500.02235174447
talvez,2957.7169367929623,-8742.370753570885,7368.789001558901,12053.535825435618,-187500.02235174447,-187500.02235174447,-187500.02235174447,-187500.02235174447
talvez,3195.3383320973317,-8744.382410571863,7720.873680218898,11970.722612228707,-187500.02235174447,-187500.02235174447,-187500.02235174447,-187500.02235174447
talvez,3205.597782802318,-8711.681808433748,7843.383591578436,11995.04131019608,-187500.02235174447,-187500.02235174447,-187500.02235174447,-187500.02235174447
talvez,2973.474916633954,-8729.160872597799,7510.9237445501985,12040.504758418174,-187500.02235174447,-187500.02235174447,-187500.02235174447,-187500.02235174447
talvez,2925.217500354946,-8738.168625613287,7333.227376130507,12050.451284700786,-187500.02235174447,-187500.02235174447,-187500.02235174447,-187500.02235174447
talvez,3175.1100033652788,-8740.426151803274,7715.464558060713,11987.061737425534,-187500.02235174447,-187500.02235174447,-187500.02235174447,-187500.02235174447
talvez,3249.6307193792727,-8700.885915861836,7934.891633378463,12018.465938385241,-187500.02235174447,-187500.02235174447,-187500.02235174447,-187500.02235174447
talvez,3029.376629516677,-8710.541869466528,7567.004271388563,12042.069380530045,-187500.02235174447,-187500.02235174447,-187500.02235174447,-187500.02235174447
talvez,2923.049381142781,-8743.130712882366,7308.975733396499,12043.678706130828,-187500.02235174447,-187500.02235174447,-187500.02235174447,-187500.02235174447
talvez,3134.1169040342456,-8742.77308497108,7595.1004141688845,12003.110289944445,-187500.02235174447,-187500.02235174447,-187500.02235174447,-187500.02235174447
talvez,3266.126306787289,-8708.77608165456,7879.615769340488,11988.492249070674,-187500.02235174447,-187500.02235174447,-187500.02235174447,-187500.02235174447
talvez,3064.4241648225984,-8711.39123575583,7641.904967058297,12021.57283086453,-187500.02235174447,-187500.02235174447,-187500.02235174447,-187500.02235174447
talvez,2912.76757869334,-8726.098683607423,7353.567463584836,12056.709773148272,-187500.02235174447,-187500.02235174447,-187500.02235174447,-187500.02235174447
talvez,3085.524211588408,-8728.602078986416,7541.724448409611,12035.72148510474,-187500.02235174447,-187500.02235174447,-187500.02235174447,-187500.02235174447
talvez,3248.624890878784,-8719.795491671026,7866.942330234329,11980.825600722505,-187500.02235174447,-187500.02235174447,-187500.02235174447,-187500.02235174447
talvez,3125.3550202077654,-8706.272686275564,7759.743363826677,12012.609781337951,-187500.02235174447,-187500.02235174447,-187500.02235174447,-187500.02235174447
talvez,2919.115474118647,-8729.160872597799,7369.79483005939,12055.927462092337,-187500.02235174447,-187500.02235174447,-187500.02235174447,-187500.02235174447
talvez,3041.6700889670956,-8751.244396119642,7438.660554726191,12016.320170917532,-187500.02235174447,-187500.02235174447,-187500.02235174447,-187500.02235174447
talvez,3260.7842398624707,-8716.085102091445,7824.853995424985,11979.819772222016,-187500.02235174447,-187500.02235174447,-187500.02235174447,-187500.02235174447
talvez,3166.169305583156,-8689.374767467352,7768.72876509771,12018.108310473957,-187500.02235174447,-187500.02235174447,-187500.02235174447,-187500.02235174447
talvez,2928.3467445786887,-8727.059808619,7409.3797694897385,12046.450322443286,-187500.02235174447,-187500.02235174447,-187500.02235174447,-187500.02235174447
talvez,2984.7401958394285,-8755.938262455256,7400.506126940982,12028.323057690031,-187500.02235174447,-187500.02235174447,-187500.02235174447,-187500.02235174447
talvez,3244.489818154552,-8723.304715550508,7812.314666785559,11989.341615359977,-187500.02235174447,-187500.02235174447,-187500.02235174447,-187500.02235174447
talvez,3181.301436579399,-8706.071520575468,7823.334076802025,11999.42225210932,-187500.02235174447,-187500.02235174447,-187500.02235174447,-187500.02235174447
talvez,2942.0707156742474,-8707.367921753874,7451.9374909326425,12035.497967660185,-187500.02235174447,-187500.02235174447,-187500.02235174447,-187500.02235174447
talvez,2945.244663386901,-8742.214291359698,7351.9134344951435,12025.2385169552,-187500.02235174447,-187500.02235174447,-187500.02235174447,-187500.02235174447
talvez,3226.809588290404,-8723.125901594865,7738.240985660671,11994.683682284794,-187500.02235174447,-187500.02235174447,-187500.02235174447,-187500.02235174447
talvez,3219.1876434311444,-8704.596305441417,7857.062859185084,11999.109327686945,-187500.02235174447,-187500.02235174447,-187500.02235174447,-187500.02235174447
talvez,2995.4913849224313,-8713.693465434726,7535.868291362321,12046.204453254279,-187500.02235174447,-187500.02235174447,-187500.02235174447,-187500.02235174447
talvez,2908.610154224653,-8754.016012432101,7297.241067557463,12028.591278623495,-187500.02235174447,-187500.02235174447,-187500.02235174447,-187500.02235174447
talvez,3176.6075702437843,-8740.448503547728,7713.7881772265655,12004.071414956024,-187500.02235174447,-187500.02235174447,-187500.02235174447,-187500.02235174447
talvez,3241.4723326530857,-8698.315465249476,7902.816880085097,12002.640903310885,-187500.02235174447,-187500.02235174447,-187500.02235174447,-187500.02235174447
$SILENCE,3048.8673506817045,-8680.299959218497,7609.204364920183,12047.254985243677,-187500.02235174447,-187500.02235174447,-187500.02235174447,-187500.02235174447
$SILENCE,2871.3944997065664,-8753.323108353987,7257.812590338301,12010.575772592518,-187500.02235174447,-187500.02235174447,-187500.02235174447,-187500.02235174447
$SILENCE,3103.7632350639387,-8755.938262455256,7556.722468939122,11982.725499001206,-187500.02235174447,-187500.02235174447,-187500.02235174447,-187500.02235174447
$SILENCE,3241.8523123088257,-8715.146328824321,7869.244559913226,11984.088955412979,-187500.02235174447,-187500.02235174447,-187500.02235174447,-187500.02235174447
$SILENCE,3066.234656123478,-8704.462194974685,7677.2207232976825,12026.937249533803,-187500.02235174447,-187500.02235174447,-187500.02235174447,-187500.02235174447
$SILENCE,2896.5849157076977,-8742.34840182643,7311.724997964501,12048.730200377728,-187500.02235174447,-187500.02235174447,-187500.02235174447,-187500.02235174447
$SILENCE,3067.84398172426,-8747.265785606598,7499.546706622447,12005.144298689878,-187500.02235174447,-187500.02235174447,-187500.02235174447,-187500.02235174447
$SILENCE,3253.430515936675,-8697.488450704628,7884.84607754303,11992.627321794907,-187500.02235174447,-187500.02235174447,-187500.02235174447,-187500.02235174447
$SILENCE,3101.8409850407825,-8681.439898185718,7739.827959516998,12033.2404414702,-187500.02235174447,-187500.02235174447,-187500.02235174447,-187500.02235174447
$SILENCE,2889.2982470152674,-8716.040398602534,7360.049469476876,12052.820569613048,-187500.02235174447,-187500.02235174447,-187500.02235174447,-187500.02235174447
$SILENCE,2990.5292976533533,-8757.771105500593,7436.626545980757,12005.658388812351,-187500.02235174447,-187500.02235174447,-187500.02235174447,-187500.02235174447
$SILENCE,3236.845521550837,-8717.560317225494,7843.964736934274,11980.177400133301,-187500.02235174447,-187500.02235174447,-187500.02235174447,-187500.02235174447
$SILENCE,3125.7349998635054,-8708.887840376836,7743.895977007864,11995.75656601865,-187500.02235174447,-187500.02235174447,-187500.02235174447,-187500.02235174447
$SILENCE,2887.890087114583,-8724.310544050997,7378.154382485674,12040.013020040158,-187500.02235174447,-187500.02235174447,-187500.02235174447,-187500.02235174447
$SILENCE,2951.503151834387,-8744.091837893944,7376.120373740241,12030.938211791303,-187500.02235174447,-187500.02235174447,-187500.02235174447,-187500.02235174447
$SILENCE,3207.96706771458,-8726.880994663357,7773.355576199959,11983.463106568232,-187500.02235174447,-187500.02235174447,-187500.02235174447,-187500.02235174447
$SILENCE,3173.053642875391,-8700.684750161738,7819.8025011780865,12005.70309230126,-187500.02235174447,-187500.02235174447,-187500.02235174447,-187500.02235174447
$SILENCE,2952.8442565017053,-8714.878107890858,7459.358270091805,12045.91388057636,-187500.02235174447,-187500.02235174447,-187500.02235174447,-187500.02235174447
$SILENCE,2942.093067418703,-8751.9149484533,7334.903756964655,12026.132586733413,-187500.02235174447,-187500.02235174447,-187500.02235174447,-187500.02235174447
$SILENCE,3219.612326575795,-8720.354285282408,7743.895977007864,11988.648711281861,-187500.02235174447,-187500.02235174447,-187500.02235174447,-187500.02235174447
$SILENCE,3239.7288965855714,-8677.81891558396,7864.640100555433,12000.003397465158,-187500.02235174447,-187500.02235174447,-187500.02235174447,-187500.02235174447
$SILENCE,2983.7343673389396,-8716.86741314738,7527.1287592802955,12022.019865753635,-187500.02235174447,-187500.02235174447,-187500.02235174447,-187500.02235174447
$SILENCE,2881.341025989178,-8762.084992180466,7276.744517891946,12019.181194207811,-187500.02235174447,-187500.02235174447,-187500.02235174447,-187500.02235174447
$SILENCE,3133.848683100782,-8736.134616867856,7632.249013453605,11989.878057226904,-187500.02235174447,-187500.02235174447,-187500.02235174447,-187500.02235174447
$SILENCE,3207.654143292206,-8701.735282151138,7857.487542329734,11997.365891619433,-187500.02235174447,-187500.02235174447,-187500.02235174447,-187500.02235174447
$SILENCE,3005.035579804847,-8707.256163031598,7588.663111765756,12030.446473413287,-187500.02235174447,-187500.02235174447,-187500.02235174447,-187500.02235174447
$SILENCE,2887.6218661811195,-8733.854738933414,7315.882422433188,12053.513473691162,-187500.02235174447,-187500.02235174447,-187500.02235174447,-187500.02235174447
$SILENCE,3091.7379965469836,-8732.334820310452,7584.863315208354,12003.020882966624,-187500.02235174447,-187500.02235174447,-187500.02235174447,-187500.02235174447
$SILENCE,3215.7678265294826,-8706.496203720119,7870.205684924804,11982.725499001206,-187500.02235174447,-187500.02235174447,-187500.02235174447,-187500.02235174447
$SILENCE,3052.465981539009,-8701.377654239852,7662.3121097459925,12033.62042112594,-187500.02235174447,-187500.02235174447,-187500.02235174447,-187500.02235174447
$SILENCE,2874.411985208033,-8734.97232615618,7317.335285822784,12054.228729513732,-187500.02235174447,-187500.02235174447,-187500.02235174447,-187500.02235174447
$SILENCE,3050.7448972159505,-8734.301773822519,7514.432968429682,12013.637961582896,-187500.02235174447,-187500.02235174447,-187500.02235174447,-187500.02235174447
$SILENCE,3239.8853587967587,-8694.515668692073,7867.590530823533,11992.157935161345,-187500.02235174447,-187500.02235174447,-187500.02235174447,-187500.02235174447
$SILENCE,3091.0897959577796,-8705.311561263987,7707.105005634428,12006.95478999076,-187500.02235174447,-187500.02235174447,-187500.02235174447,-187500.02235174447
$SILENCE,2883.28562775679,-8728.289154564041,7346.325498381317,12043.43283694182,-187500.02235174447,-187500.02235174447,-187500.02235174447,-187500.02235174447
$SILENCE,2988.6741028635624,-8753.144294398344,7425.785949919934,12014.889659272392,-187500.02235174447,-187500.02235174447,-187500.02235174447,-187500.02235174447
$SILENCE,3213.3538381283092,-8724.39995102882,7818.059065110572,11982.99371993467,-187500.02235174447,-187500.02235174447,-187500.02235174447,-187500.02235174447
$SILENCE,3114.5814793803074,-8708.239639787631,7748.098104965461,12003.75849053365,-187500.02235174447,-187500.02235174447,-187500.02235174447,-187500.02235174447
$SILENCE,2907.5596222352533,-8720.086064348945,7403.992999076009,12045.735066620717,-187500.02235174447,-187500.02235174447,-187500.02235174447,-187500.02235174447
$SILENCE,2964.020128729359,-8731.954840654713,7401.623714163747,12036.52614790513,-187500.02235174447,-187500.02235174447,-187500.02235174447,-187500.02235174447
$SILENCE,3189.616285516773,-8715.861584646891,7764.280767951103,11992.336749116988,-187500.02235174447,-187500.02235174447,-187500.02235174447,-187500.02235174447
$SILENCE,3147.7067646630726,-8705.132747308344,7799.216544534749,11993.208467150745,-187500.02235174447,-187500.02235174447,-187500.02235174447,-187500.02235174447
$SILENCE,2921.730628219918,-8719.460215504196,7453.032726410953,12034.983877537714,-187500.02235174447,-187500.02235174447,-187500.02235174447,-187500.02235174447
$SILENCE,2917.3273345622224,-8742.706029737716,7335.775474998412,12043.701057875283,-187500.02235174447,-187500.02235174447,-187500.02235174447,-187500.02235174447
$SILENCE,3163.0177096149578,-8723.192956828232,7716.112758649917,12005.814851023539,-187500.02235174447,-187500.02235174447,-187500.02235174447,-187500.02235174447
$SILENCE,3171.9584073970805,-8693.800412869503,7835.336963574525,12000.383377120897,-187500.02235174447,-187500.02235174447,-187500.02235174447,-187500.02235174447
$SILENCE,2964.4448118740097,-8706.093872319922,7521.741988866567,12028.479519901219,-187500.02235174447,-187500.02235174447,-187500.02235174447,-187500.02235174447
$SILENCE,2889.2758952708123,-8732.558337755007,7318.9222596791105,12032.815758325549,-187500.02235174447,-187500.02235174447,-187500.02235174447,-187500.02235174447
$SILENCE,3127.9478225645807,-8728.356209797408,7657.618243410378,11989.296911871066,-187500.02235174447,-187500.02235174447,-187500.02235174447,-187500.02235174447
$SILENCE,3191.292666350921,-8703.121090307366,7851.787847493631,11978.836295465982,-187500.02235174447,-187500.02235174447,-187500.02235174447,-187500.02235174447
$SILENCE,2990.395187186621,-8707.77025315407,7584.796259974988,12019.47176688573,-187500.02235174447,-187500.02235174447,-187500.02235174447,-187500.02235174447
$SILENCE,2866.4994676708543,-8722.902384150313,7327.773550483412,12062.096543562002,-187500.02235174447,-187500.02235174447,-187500.02235174447,-187500.02235174447
$SILENCE,3085.2559906549445,-8722.72357019467,7599.011969448563,12012.81094703805,-187500.02235174447,-187500.02235174447,-187500.02235174447,-187500.02235174447
$SILENCE,3257.0514985384348,-8695.119165792366,7877.5594088505995,11996.091842185479,-187500.02235174447,-187500.02235174447,-187500.02235174447,-187500.02235174447
$SILENCE,3080.919752230615,-8683.518610420062,7670.962234850197,12044.036334042114,-187500.02235174447,-187500.02235174447,-187500.02235174447,-187500.02235174447
$SILENCE,2875.127241030603,-8725.316372551486,7331.729809252001,12058.05087781559,-187500.02235174447,-187500.02235174447,-187500.02235174447,-187500.02235174447
$SILENCE,3048.241501836956,-8729.898480164824,7520.691456877167,12023.964467521248,-187500.02235174447,-187500.02235174447,-187500.02235174447,-187500.02235174447
$SILENCE,3233.135131971256,-8691.788755868525,7868.4622488572895,11991.465031083231,-187500.02235174447,-187500.02235174447,-187500.02235174447,-187500.02235174447
$SILENCE,3116.4813776590086,-8674.466153915662,7745.505302608646,12031.854633313971,-187500.02235174447,-187500.02235174447,-187500.02235174447,-187500.02235174447
$SILENCE,2909.280706558312,-8699.09777630541,7393.13005127073,12073.272415789655,-187500.02235174447,-187500.02235174447,-187500.02235174447,-187500.02235174447
$SILENCE,2985.4554516619983,-8723.930564395258,7455.960804934598,12031.564060636052,-187500.02235174447,-187500.02235174447,-187500.02235174447,-187500.02235174447
$SILENCE,3229.6706115806833,-8696.43791871523,7834.420542051857,12000.271618398621,-187500.02235174447,-187500.02235174447,-187500.02235174447,-187500.02235174447
$SILENCE,3159.7320031800277,-8683.697424375705,7778.809401847054,12020.790519808594,-187500.02235174447,-187500.02235174447,-187500.02235174447,-187500.02235174447
$SILENCE,2940.506093562376,-8709.334875265942,7421.628525451247,12052.731162635228,-187500.02235174447,-187500.02235174447,-187500.02235174447,-187500.02235174447
$SILENCE,2979.956922525993,-8724.06467486199,7395.074653038341,12039.118950261945,-187500.02235174447,-187500.02235174447,-187500.02235174447,-187500.02235174447
$SILENCE,3200.389826344231,-8696.214401270676,7784.173820516327,11996.807098008048,-187500.02235174447,-187500.02235174447,-187500.02235174447,-187500.02235174447
$SILENCE,3174.8194306873597,-8671.694537603205,7837.192158364315,12028.546575134586,-187500.02235174447,-187500.02235174447,-187500.02235174447,-187500.02235174447
$SILENCE,2975.2407044459233,-8689.464174445173,7500.91016303422,12080.022642615157,-187500.02235174447,-187500.02235174447,-187500.02235174447,-187500.02235174447
$SILENCE,2943.9706139529485,-8715.973343369167,7372.03000450492,12072.870084389458,-187500.02235174447,-187500.02235174447,-187500.02235174447,-187500.02235174447
$SILENCE,3189.6386372612283,-8696.52732569305,7750.310927666537,12014.219106938734,-187500.02235174447,-187500.02235174447,-187500.02235174447,-187500.02235174447
$SILENCE,3215.365495129287,-8692.01227331308,7854.1347806614385,12001.724481788217,-187500.02235174447,-187500.02235174447,-187500.02235174447,-187500.02235174447
$SILENCE,3011.2270130189677,-8701.020026328568,7543.132608310296,12044.840996842504,-187500.02235174447,-187500.02235174447,-187500.02235174447,-187500.02235174447
$SILENCE,2928.9949451678926,-8718.163814325788,7334.92610870911,12056.843883615004,-187500.02235174447,-187500.02235174447,-187500.02235174447,-187500.02235174447
$SILENCE,3161.1848665696225,-8714.699293935215,7660.2557492561045,12002.23857191069,-187500.02235174447,-187500.02235174447,-187500.02235174447,-187500.02235174447
$SILENCE,3235.683230839161,-8686.916075577268,7883.281455431159,12002.70795854425,-187500.02235174447,-187500.02235174447,-187500.02235174447,-187500.02235174447
$SILENCE,3033.958737130015,-8686.379633710341,7621.1625482037725,12049.043124800102,-187500.02235174447,-187500.02235174447,-187500.02235174447,-187500.02235174447
$SILENCE,2907.4925670018874,-8707.971418854167,7338.837663988789,12069.472619232252,-187500.02235174447,-187500.02235174447,-187500.02235174447,-187500.02235174447
$SILENCE,3120.5046916609635,-8716.53213698055,7593.31227461246,12026.020828011135,-187500.02235174447,-187500.02235174447,-187500.02235174447,-187500.02235174447
$SILENCE,3253.2517019810325,-8693.688654147227,7882.834420542053,12007.312417902043,-187500.02235174447,-187500.02235174447,-187500.02235174447,-187500.02235174447
$SILENCE,3084.2278104100005,-8688.167773266767,7683.322749533982,12040.840034585004,-187500.02235174447,-187500.02235174447,-187500.02235174447,-187500.02235174447
$SILENCE,2910.3312385477116,-8711.614753200383,7359.021289231931,12066.00809884168,-187500.02235174447,-187500.02235174447,-187500.02235174447,-187500.02235174447
$SILENCE,3065.1617723896234,-8718.879070148358,7519.752683610044,12020.723464575227,-187500.02235174447,-187500.02235174447,-187500.02235174447,-187500.02235174447
$SILENCE,3253.8999025702365,-8685.86554358787,7875.346586149524,11994.035481695591,-187500.02235174447,-187500.02235174447,-187500.02235174447,-187500.02235174447
$SILENCE,3137.0449825578908,-8681.551656907995,7756.301195180559,12031.72052284724,-187500.02235174447,-187500.02235174447,-187500.02235174447,-187500.02235174447
$SILENCE,2931.3195265912445,-8713.827575901458,7393.264161737462,12068.176218053844,-187500.02235174447,-187500.02235174447,-187500.02235174447,-187500.02235174447
$SILENCE,3030.7400859284508,-8726.322201051975,7449.232929853551,12041.175310751834,-187500.02235174447,-187500.02235174447,-187500.02235174447,-187500.02235174447
$SILENCE,3250.524789157485,-8698.851907116403,7832.028905395139,12010.016978981135,-187500.02235174447,-187500.02235174447,-187500.02235174447,-187500.02235174447
$SILENCE,3161.8554189032816,-8683.742127864614,7798.657750923366,12031.117025746946,-187500.02235174447,-187500.02235174447,-187500.02235174447,-187500.02235174447
$SILENCE,2948.5527215662864,-8701.377654239852,7444.203787351106,12068.399735498399,-187500.02235174447,-187500.02235174447,-187500.02235174447,-187500.02235174447
$SILENCE,2995.3796262001547,-8725.137558595843,7397.667455395157,12045.332735220521,-187500.02235174447,-187500.02235174447,-187500.02235174447,-187500.02235174447
$SILENCE,3238.6560128517167,-8699.187183283233,7787.30306474007,11993.364929361931,-187500.02235174447,-187500.02235174447,-187500.02235174447,-187500.02235174447
$SILENCE,3210.2916491379324,-8678.422412684253,7844.948213690307,12014.688493572296,-187500.02235174447,-187500.02235174447,-187500.02235174447,-187500.02235174447
$SILENCE,2978.995797514415,-8699.053072816501,7506.118119492307,12058.833188871526,-187500.02235174447,-187500.02235174447,-187500.02235174447,-187500.02235174447
$SILENCE,2947.9045209770825,-8721.494224249629,7371.918245782644,12067.125686064444,-187500.02235174447,-187500.02235174447,-187500.02235174447,-187500.02235174447
$SILENCE,3208.4364543481415,-8708.77608165456,7742.398410129358,12013.2356301827,-187500.02235174447,-187500.02235174447,-187500.02235174447,-187500.02235174447
$SILENCE,3233.4704081380855,-8683.47390693115,7887.282417688659,12020.90227853087,-187500.02235174447,-187500.02235174447,-187500.02235174447,-187500.02235174447
$SILENCE,3038.473789509987,-8688.771270367059,7571.631082490812,12058.833188871526,-187500.02235174447,-187500.02235174447,-187500.02235174447,-187500.02235174447
$SILENCE,2942.8753784746386,-8723.081198105956,7331.796864485367,12063.1470755514,-187500.02235174447,-187500.02235174447,-187500.02235174447,-187500.02235174447
$SILENCE,3157.00509035648,-8719.43786375974,7645.9953362936185,12015.403749394865,-187500.02235174447,-187500.02235174447,-187500.02235174447,-187500.02235174447
$SILENCE,3246.613233877806,-8686.089061032422,7887.79650781113,12012.1850981933,-187500.02235174447,-187500.02235174447,-187500.02235174447,-187500.02235174447
$SILENCE,3053.3600513172214,-8686.33493022143,7641.1226560023615,12056.709773148272,-187500.02235174447,-187500.02235174447,-187500.02235174447,-187500.02235174447
$SILENCE,2917.8190729402395,-8713.648761945817,7352.762800784445,12076.222846057755,-187500.02235174447,-187500.02235174447,-187500.02235174447,-187500.02235174447
$SILENCE,3112.2792497014107,-8716.085102091445,7595.323931613438,12027.674857100828,-187500.02235174447,-187500.02235174447,-187500.02235174447,-187500.02235174447
$SILENCE,3245.6074053773173,-8687.161944766278,7889.249371200725,12011.112214459446,-187500.02235174447,-187500.02235174447,-187500.02235174447,-187500.02235174447
$SILENCE,3098.75644430595,-8684.412680198275,7688.016615869596,12038.917784561847,-187500.02235174447,-187500.02235174447,-187500.02235174447,-187500.02235174447
$SILENCE,2927.765599222851,-8709.826613643958,7361.435277633104,12067.39390699791,-187500.02235174447,-187500.02235174447,-187500.02235174447,-187500.02235174447
$SILENCE,3073.431917838087,-8724.91404115129,7511.5719451394025,12041.309421218566,-187500.02235174447,-187500.02235174447,-187500.02235174447,-187500.02235174447
$SILENCE,3254.391640948253,-8697.376691982352,7856.571120807067,12011.358083648454,-187500.02235174447,-187500.02235174447,-187500.02235174447,-187500.02235174447
$SILENCE,3129.3112789763545,-8684.166811009265,7744.454770619246,12040.616517140452,-187500.02235174447,-187500.02235174447,-187500.02235174447,-187500.02235174447
$SILENCE,2926.4021428110773,-8709.513689221583,7393.018292548453,12079.86618040397,-187500.02235174447,-187500.02235174447,-187500.02235174447,-187500.02235174447
$SILENCE,3019.2065857895122,-8724.15408183981,7446.416610052182,12054.452246958286,-187500.02235174447,-187500.02235174447,-187500.02235174447,-187500.02235174447
$SILENCE,3240.0194692634905,-8690.738223879127,7841.349582833002,12017.102481973468,-187500.02235174447,-187500.02235174447,-187500.02235174447,-187500.02235174447
$SILENCE,3177.367529555265,-8673.057994014978,7815.265097053659,12040.52711016263,-187500.02235174447,-187500.02235174447,-187500.02235174447,-187500.02235174447
$SILENCE,2956.889922248116,-8705.1550990528,7440.85102568281,12067.460962231275,-187500.02235174447,-187500.02235174447,-187500.02235174447,-187500.02235174447
$SILENCE,2967.01526248637,-8737.00633490161,7379.160210986163,12052.57470042404,-187500.02235174447,-187500.02235174447,-187500.02235174447,-187500.02235174447
$SILENCE,3205.7765967579603,-8721.53892773854,7756.748230069666,11999.221086409223,-187500.02235174447,-187500.02235174447,-187500.02235174447,-187500.02235174447
$SILENCE,3174.4170992871645,-8696.616732670873,7811.68881794081,12009.033502225102,-187500.02235174447,-187500.02235174447,-187500.02235174447,-187500.02235174447
$SILENCE,2965.4282886300434,-8705.535078708539,7504.5311456359805,12075.261721046178,-187500.02235174447,-187500.02235174447,-187500.02235174447,-187500.02235174447
$SILENCE,2933.465294058954,-8722.455349261207,7370.778306815423,12098.149907368412,-187500.02235174447,-187500.02235174447,-187500.02235174447,-187500.02235174447
$SILENCE,3157.206256056578,-8711.72651192266,7712.424720814792,12029.686514101806,-187500.02235174447,-187500.02235174447,-187500.02235174447,-187500.02235174447
$SILENCE,3198.780500743449,-8693.129860535844,7854.380649850446,12008.318246402532,-187500.02235174447,-187500.02235174447,-187500.02235174447,-187500.02235174447
$SILENCE,3027.78965566035,-8695.566200681473,7565.797277187977,12057.469732459753,-187500.02235174447,-187500.02235174447,-187500.02235174447,-187500.02235174447
$SILENCE,2926.2903840888007,-8732.625392988371,7324.465492304027,12067.952700609292,-187500.02235174447,-187500.02235174447,-187500.02235174447,-187500.02235174447
$SILENCE,3134.8098081123603,-8736.380486056863,7629.052713996496,12015.1355284614,-187500.02235174447,-187500.02235174447,-187500.02235174447,-187500.02235174447
$SILENCE,3237.3819634177644,-8698.114299549377,7877.715871061787,12018.220069196233,-187500.02235174447,-187500.02235174447,-187500.02235174447,-187500.02235174447
$SILENCE,3044.374650046188,-8697.130822793344,7627.219870951161,12057.737953393216,-187500.02235174447,-187500.02235174447,-187500.02235174447,-187500.02235174447
$SILENCE,2890.1699650490245,-8725.137558595843,7322.833814958789,12072.691270433817,-187500.02235174447,-187500.02235174447,-187500.02235174447,-187500.02235174447
$SILENCE,3069.6097695362296,-8731.597212743427,7540.003364086553,12021.639886097895,-187500.02235174447,-187500.02235174447,-187500.02235174447,-187500.02235174447
$SILENCE,3228.7318383135607,-8699.611866427884,7856.548769062611,11999.712824787239,-187500.02235174447,-187500.02235174447,-187500.02235174447,-187500.02235174447
$SILENCE,3085.2559906549445,-8694.560372180984,7692.531668249568,12039.968316551247,-187500.02235174447,-187500.02235174447,-187500.02235174447,-187500.02235174447
$SILENCE,2897.210764552446,-8721.740093438637,7360.049469476876,12075.462886746274,-187500.02235174447,-187500.02235174447,-187500.02235174447,-187500.02235174447
$SILENCE,3030.7400859284508,-8736.291079079041,7484.906314004221,12037.889604316904,-187500.02235174447,-187500.02235174447,-187500.02235174447,-187500.02235174447
$SILENCE,3231.034067992457,-8708.239639787631,7838.913242687374,12004.294932400577,-187500.02235174447,-187500.02235174447,-187500.02235174447,-187500.02235174447
$SILENCE,3119.655325371662,-8698.069596060466,7739.023296716607,12033.776883337126,-187500.02235174447,-187500.02235174447,-187500.02235174447,-187500.02235174447
$SILENCE,2925.0833898882142,-8719.683732948748,7390.961932058565,12071.86425588897,-187500.02235174447,-187500.02235174447,-187500.02235174447,-187500.02235174447
$SILENCE,3000.811100102794,-8740.1132273809,7417.381694004738,12042.516415419152,-187500.02235174447,-187500.02235174447,-187500.02235174447,-187500.02235174447
$SILENCE,3224.820283033882,-8717.783834670048,7798.21071603426,12003.84789751147,-187500.02235174447,-187500.02235174447,-187500.02235174447,-187500.02235174447
$SILENCE,3156.9156833786587,-8700.774157139558,7780.306968725559,12015.694322072784,-187500.02235174447,-187500.02235174447,-187500.02235174447,-187500.02235174447
$SILENCE,2937.242738871901,-8716.710950936193,7435.084275613342,12058.944947593804,-187500.02235174447,-187500.02235174447,-187500.02235174447,-187500.02235174447
$SILENCE,2947.8821692326273,-8741.186111114754,7363.223417189529,12052.798217868592,-187500.02235174447,-187500.02235174447,-187500.02235174447,-187500.02235174447
$SILENCE,3193.9972274300135,-8722.34359053893,7748.925119510308,12003.1326416889,-187500.02235174447,-187500.02235174447,-187500.02235174447,-187500.02235174447
$SILENCE,3178.9992069005025,-8697.309636748987,7827.044466381606,12016.99072325119,-187500.02235174447,-187500.02235174447,-187500.02235174447,-187500.02235174447
$SILENCE,2966.657634575085,-8710.608924699894,7503.748834580045,12054.027563813635,-187500.02235174447,-187500.02235174447,-187500.02235174447,-187500.02235174447
$SILENCE,2915.449788027977,-8739.420323302786,7332.579175541303,12045.533900920618,-187500.02235174447,-187500.02235174447,-187500.02235174447,-187500.02235174447
$SILENCE,3155.485171733519,-8731.619564487883,7685.7143861907,11992.89554272837,-187500.02235174447,-187500.02235174447,-187500.02235174447,-187500.02235174447
$SILENCE,3203.004980445502,-8705.87035487537,7855.319423117569,11997.254132897155,-187500.02235174447,-187500.02235174447,-187500.02235174447,-187500.02235174447
$SILENCE,2999.447643691021,-8713.24643054562,7560.92459689672,12043.030505541625,-187500.02235174447,-187500.02235174447,-187500.02235174447,-187500.02235174447
$SILENCE,2902.5528314772646,-8738.928584924768,7307.835794429278,12051.412409712364,-187500.02235174447,-187500.02235174447,-187500.02235174447,-187500.02235174447
$SILENCE,3121.0634852723465,-8734.25707033361,7606.276286396538,12001.724481788217,-187500.02235174447,-187500.02235174447,-187500.02235174447,-187500.02235174447
$SILENCE,3212.526823583463,-8702.808165884991,7863.522513332667,11994.773089262617,-187500.02235174447,-187500.02235174447,-187500.02235174447,-187500.02235174447
$SILENCE,3034.2940132968442,-8708.44080548773,7635.490016399624,12035.967354293747,-187500.02235174447,-187500.02235174447,-187500.02235174447,-187500.02235174447
$SILENCE,2891.6228284386193,-8740.91789018129,7326.857128960744,12055.94981383679,-187500.02235174447,-187500.02235174447,-187500.02235174447,-187500.02235174447
$SILENCE,3072.6049032932406,-8739.241509347143,7533.901337850254,12009.681702814307,-187500.02235174447,-187500.02235174447,-187500.02235174447,-187500.02235174447
$SILENCE,3221.4004661322197,-8708.910192121291,7850.826722482053,11981.630263522895,-187500.02235174447,-187500.02235174447,-187500.02235174447,-187500.02235174447
$SILENCE,3073.4766213269977,-8703.411662985285,7685.423813512781,12016.81190929555,-187500.02235174447,-187500.02235174447,-187500.02235174447,-187500.02235174447
$SILENCE,2898.216593052935,-8727.283326063553,7349.097114693775,12056.218034770256,-187500.02235174447,-187500.02235174447,-187500.02235174447,-187500.02235174447
$SILENCE,3017.105521810713,-8741.789608215047,7466.689642273145,12025.707903588762,-187500.02235174447,-187500.02235174447,-187500.02235174447,-187500.02235174447
$SILENCE,3211.6104020607954,-8715.72747418016,7830.330172816536,11985.631225780395,-187500.02235174447,-187500.02235174447,-187500.02235174447,-187500.02235174447
$SILENCE,3117.4872061594974,-8703.411662985285,7747.516959609624,12013.772072049627,-187500.02235174447,-187500.02235174447,-187500.02235174447,-187500.02235174447
$SILENCE,2906.5537937347644,-8721.62833471636,7394.113528026764,12062.744744151205,-187500.02235174447,-187500.02235174447,-187500.02235174447,-187500.02235174447
$SILENCE,2957.53812283732,-8740.15793086981,7402.495432197504,12042.404656696875,-187500.02235174447,-187500.02235174447,-187500.02235174447,-187500.02235174447
$SILENCE,3194.8018902304043,-8722.120073094376,7786.967788573241,11989.65453978235,-187500.02235174447,-187500.02235174447,-187500.02235174447,-187500.02235174447
$SILENCE,3158.390898512709,-8704.573953696961,7787.191306017793,12001.925647488315,-187500.02235174447,-187500.02235174447,-187500.02235174447,-187500.02235174447
$SILENCE,2950.0726401892475,-8719.460215504196,7440.6051564938025,12047.05381954358,-187500.02235174447,-187500.02235174447,-187500.02235174447,-187500.02235174447
$SILENCE,2942.785971496817,-8741.163759370298,7355.042678718887,12040.348296206987,-187500.02235174447,-187500.02235174447,-187500.02235174447,-187500.02235174447
$SILENCE,3173.433622531131,-8724.556413240005,7741.996078729163,11996.583580563496,-187500.02235174447,-187500.02235174447,-187500.02235174447,-187500.02235174447
$SILENCE,3156.200427556089,-8706.317389764476,7828.430274537835,11998.774051520117,-187500.02235174447,-187500.02235174447,-187500.02235174447,-187500.02235174447
$SILENCE,2961.069698461258,-8718.789663170537,7501.62541885679,12045.310383476066,-187500.02235174447,-187500.02235174447,-187500.02235174447,-187500.02235174447
$SILENCE,2902.5528314772646,-8738.950936669224,7322.789111469879,12052.328831235032,-187500.02235174447,-187500.02235174447,-187500.02235174447,-187500.02235174447
$SILENCE,3128.528967920419,-8727.193919085732,7667.0059760816075,11990.727423516206,-187500.02235174447,-187500.02235174447,-187500.02235174447,-187500.02235174447
$SILENCE,3169.72323295155,-8701.936447851234,7855.4311818398455,11995.689510785283,-187500.02235174447,-187500.02235174447,-187500.02235174447,-187500.02235174447
$SILENCE,2956.800515270295,-8708.753729910104,7577.777812216022,12049.803084111581,-187500.02235174447,-187500.02235174447,-187500.02235174447,-187500.02235174447
$SILENCE,2852.216702963913,-8740.135579125355,7311.345018308762,12057.402677226386,-187500.02235174447,-187500.02235174447,-187500.02235174447,-187500.02235174447
$SILENCE,3067.195781135056,-8742.571919270984,7589.713643755155,12007.67004581333,-187500.02235174447,-187500.02235174447,-187500.02235174447,-187500.02235174447
$SILENCE,3170.9972823855023,-8714.967514868678,7849.9103009593855,11987.79934499256,-187500.02235174447,-187500.02235174447,-187500.02235174447,-187500.02235174447
$SILENCE,3007.6730856505737,-8708.083177576444,7642.240243225127,12027.786615823105,-187500.02235174447,-187500.02235174447,-187500.02235174447,-187500.02235174447
$SILENCE,2865.2254182369015,-8732.15600635481,7317.916431178622,12042.2928979746,-187500.02235174447,-187500.02235174447,-187500.02235174447,-187500.02235174447
$SILENCE,3068.17925789109,-8743.39893381583,7511.884869561776,11998.438775353286,-187500.02235174447,-187500.02235174447,-187500.02235174447,-187500.02235174447
$SILENCE,3223.2780126664657,-8714.67694219076,7842.847149711508,11973.583635518986,-187500.02235174447,-187500.02235174447,-187500.02235174447,-187500.02235174447
$SILENCE,3076.4717550840087,-8710.072482832968,7699.416005541802,12011.961580748748,-187500.02235174447,-187500.02235174447,-187500.02235174447,-187500.02235174447
$SILENCE,2885.565505691231,-8735.48641627865,7353.366297884739,12049.892491089404,-187500.02235174447,-187500.02235174447,-187500.02235174447,-187500.02235174447
$SILENCE,2989.054082519303,-8751.602024030928,7449.8811304427545,12022.086920987002,-187500.02235174447,-187500.02235174447,-187500.02235174447,-187500.02235174447
$SILENCE,3182.910762180181,-8727.886823163846,7819.8025011780865,11984.781859491093,-187500.02235174447,-187500.02235174447,-187500.02235174447,-187500.02235174447
$SILENCE,3091.045092468869,-8716.085102091445,7749.193340443771,12013.168574949334,-187500.02235174447,-187500.02235174447,-187500.02235174447,-187500.02235174447
$SILENCE,2892.628656939108,-8734.927622667268,7392.191278003607,12053.982860324724,-187500.02235174447,-187500.02235174447,-187500.02235174447,-187500.02235174447
$SILENCE,2955.4594106029763,-8755.200654888231,7384.74814709999,12035.81089208256,-187500.02235174447,-187500.02235174447,-187500.02235174447,-187500.02235174447
$SILENCE,3179.133317367234,-8731.664267976794,7777.133021012905,11991.442679338776,-187500.02235174447,-187500.02235174447,-187500.02235174447,-187500.02235174447
$SILENCE,3136.5755959243293,-8712.754692167604,7794.5897334325,12009.838165025492,-187500.02235174447,-187500.02235174447,-187500.02235174447,-187500.02235174447
$SILENCE,2914.868642672139,-8726.433959774251,7444.7178774735785,12049.154883522378,-187500.02235174447,-187500.02235174447,-187500.02235174447,-187500.02235174447
$SILENCE,2917.6402589845966,-8751.44556181974,7330.902794707155,12031.497005402685,-187500.02235174447,-187500.02235174447,-187500.02235174447,-187500.02235174447
$SILENCE,3170.7067097075833,-8738.168625613287,7717.029180172584,11991.50973457214,-187500.02235174447,-187500.02235174447,-187500.02235174447,-187500.02235174447
talvez,3172.7630701974717,-8713.469947990174,7831.291297828115,12004.674912056316,-187500.02235174447,-187500.02235174447,-187500.02235174447,-187500.02235174447
talvez,2956.82286701475,-8723.68469520625,7514.589430640868,12054.452246958286,-187500.02235174447,-187500.02235174447,-187500.02235174447,-187500.02235174447
talvez,2875.5295724307985,-8752.63020427587,7313.803710198845,12070.366689010465,-187500.02235174447,-187500.02235174447,-187500.02235174447,-187500.02235174447
talvez,3120.325877705321,-8746.215253617198,7647.403496194303,12006.32894114601,-187500.02235174447,-187500.02235174447,-187500.02235174447,-187500.02235174447
talvez,3189.683340750139,-8715.571011968972,7844.769399734664,11991.08505142749,-187500.02235174447,-187500.02235174447,-187500.02235174447,-187500.02235174447
talvez,2984.919009795071,-8719.393160270829,7568.770059200533,12034.00040078168,-187500.02235174447,-187500.02235174447,-187500.02235174447,-187500.02235174447
talvez,2858.095211755659,-8745.87997745037,7297.710454191024,12053.759342880172,-187500.02235174447,-187500.02235174447,-187500.02235174447,-187500.02235174447
talvez,3057.8080484638276,-8747.0646199065,7571.452268535169,12010.396958636877,-187500.02235174447,-187500.02235174447,-187500.02235174447,-187500.02235174447
talvez,3188.722215738561,-8719.661381204294,7852.480751571746,11999.958693976247,-187500.02235174447,-187500.02235174447,-187500.02235174447,-187500.02235174447
talvez,3031.8800248956713,-8720.533099238051,7639.289812957027,12039.051895028579,-187500.02235174447,-187500.02235174447,-187500.02235174447,-187500.02235174447
talvez,2872.959121818438,-8748.718648996193,7314.027227643398,12068.131514564933,-187500.02235174447,-187500.02235174447,-187500.02235174447,-187500.02235174447
talvez,3032.3270597847772,-8757.949919456234,7497.982084510575,12029.284182701611,-187500.02235174447,-187500.02235174447,-187500.02235174447,-187500.02235174447
talvez,3197.5064513094967,-8725.91986965178,7834.532300774134,11990.034519438092,-187500.02235174447,-187500.02235174447,-187500.02235174447,-187500.02235174447
talvez,3061.8984176991485,-8717.157985825299,7692.598723482934,12022.355141920465,-187500.02235174447,-187500.02235174447,-187500.02235174447,-187500.02235174447
talvez,2864.152534503047,-8738.570957013484,7341.050486689865,12061.180122039334,-187500.02235174447,-187500.02235174447,-187500.02235174447,-187500.02235174447
talvez,2965.316529907767,-8755.893558966347,7419.102778327797,12033.978049037225,-187500.02235174447,-187500.02235174447,-187500.02235174447,-187500.02235174447
talvez,3182.5754860133516,-8731.641916232338,7803.798652148087,12007.111252201945,-187500.02235174447,-187500.02235174447,-187500.02235174447,-187500.02235174447
talvez,3095.8060140378493,-8715.325142779964,7747.6287183319,12024.210336710255,-187500.02235174447,-187500.02235174447,-187500.02235174447,-187500.02235174447
talvez,2887.375996992111,-8735.061733134,7391.4760221810375,12054.072267302547,-187500.02235174447,-187500.02235174447,-187500.02235174447,-187500.02235174447
talvez,2930.470160301943,-8758.68752702326,7369.236036448006,12034.402732181876,-187500.02235174447,-187500.02235174447,-187500.02235174447,-187500.02235174447
talvez,3168.9409218956143,-8742.460160548706,7760.413916160335,11990.906237471849,-187500.02235174447,-187500.02235174447,-187500.02235174447,-187500.02235174447
talvez,3126.0255725414245,-8718.879070148358,7783.235047249204,12005.52427834562,-187500.02235174447,-187500.02235174447,-187500.02235174447,-187500.02235174447
talvez,2911.0017908813707,-8732.021895888078,7434.99486863552,12052.529996935129,-187500.02235174447,-187500.02235174447,-187500.02235174447,-187500.02235174447
talvez,2893.8803546286053,-8756.050021177534,7315.793015455368,12054.407543469375,-187500.02235174447,-187500.02235174447,-187500.02235174447,-187500.02235174447
talvez,3134.228662756522,-8741.275518092576,7694.208049083716,12000.383377120897,-187500.02235174447,-187500.02235174447,-187500.02235174447,-187500.02235174447
talvez,3150.7242501645387,-8720.801320171515,7816.382684276425,11999.444603853775,-187500.02235174447,-187500.02235174447,-187500.02235174447,-187500.02235174447
talvez,2939.0308784283257,-8726.992753385633,7508.353293937838,12051.591223668007,-187500.02235174447,-187500.02235174447,-187500.02235174447,-187500.02235174447
talvez,2867.7064618714408,-8753.278404865076,7293.217753555507,12066.611595941973,-187500.02235174447,-187500.02235174447,-187500.02235174447,-187500.02235174447
talvez,3097.504746616453,-8748.852759462925,7628.158644218283,12005.211353923245,-187500.02235174447,-187500.02235174447,-187500.02235174447,-187500.02235174447
talvez,3164.9846631270248,-8727.171567341276,7837.750951975698,11984.871266468916,-187500.02235174447,-187500.02235174447,-187500.02235174447,-187500.02235174447
talvez,2977.341768424722,-8727.931526652757,7563.763268442544,12026.75843557816,-187500.02235174447,-187500.02235174447,-187500.02235174447,-187500.02235174447
talvez,2853.624862864597,-8756.050021177534,7278.800878381834,12050.00424981168,-187500.02235174447,-187500.02235174447,-187500.02235174447,-187500.02235174447
talvez,3061.630196765685,-8768.298777139042,7533.946041339164,11998.662292797839,-187500.02235174447,-187500.02235174447,-187500.02235174447,-187500.02235174447
talvez,3203.004980445502,-8724.243488817632,7828.430274537835,11985.586522291485,-187500.02235174447,-187500.02235174447,-187500.02235174447,-187500.02235174447
talvez,3039.524321499386,-8717.046227103023,7637.054638511496,12029.217127468244,-187500.02235174447,-187500.02235174447,-187500.02235174447,-187500.02235174447
talvez,2873.6073224076417,-8752.429038575774,7313.78135845439,12054.00521206918,-187500.02235174447,-187500.02235174447,-187500.02235174447,-187500.02235174447
talvez,3021.6429259351407,-8767.605873060927,7452.362174077293,12010.106385958958,-187500.02235174447,-187500.02235174447,-187500.02235174447,-187500.02235174447
talvez,3189.2810093499434,-8731.619564487883,7792.108689797961,11984.535990302085,-187500.02235174447,-187500.02235174447,-187500.02235174447,-187500.02235174447
talvez,3045.8051616913276,-8720.510747493596,7665.441353969736,12013.70501681626,-187500.02235174447,-187500.02235174447,-187500.02235174447,-187500.02235174447
talvez,2835.98933648936,-8741.476683792673,7310.339189808273,12041.95762180777,-187500.02235174447,-187500.02235174447,-187500.02235174447,-187500.02235174447
talvez,2931.6548027580743,-8755.535931055061,7376.478001651526,12015.359045905954,-187500.02235174447,-187500.02235174447,-187500.02235174447,-187500.02235174447
talvez,3147.997337340991,-8726.34455279643,7767.410012174847,11981.719670500717,-187500.02235174447,-187500.02235174447,-187500.02235174447,-187500.02235174447
talvez,3074.057766682836,-8712.128843322855,7724.606421542933,12005.881906256904,-187500.02235174447,-187500.02235174447,-187500.02235174447,-187500.02235174447
talvez,2860.5986071346533,-8737.363962812897,7363.379879400716,12040.325944462533,-187500.02235174447,-187500.02235174447,-187500.02235174447,-187500.02235174447
talvez,2879.865810855128,-8758.955747956723,7321.760931224934,12024.299743688076,-187500.02235174447,-187500.02235174447,-187500.02235174447,-187500.02235174447
talvez,3118.917717804637,-8736.447541290228,7715.710427249722,11976.824638465005,-187500.02235174447,-187500.02235174447,-187500.02235174447,-187500.02235174447
talvez,3099.717569317528,-8718.052055603512,7757.731706825699,11990.168629904823,-187500.02235174447,-187500.02235174447,-187500.02235174447,-187500.02235174447
talvez,2886.4595754694433,-8735.844044189937,7413.51484221397,12039.387171195409,-187500.02235174447,-187500.02235174447,-187500.02235174447,-187500.02235174447
talvez,2850.383859918578,-8759.536893312561,7279.024395826387,12031.318191447042,-187500.02235174447,-187500.02235174447,-187500.02235174447,-187500.02235174447
talvez,3096.3424559047767,-8742.884843693357,7658.758182377599,11981.965539689725,-187500.02235174447,-187500.02235174447,-187500.02235174447,-187500.02235174447
talvez,3121.935203306103,-8719.907250393302,7792.443965964791,11981.317339100522,-187500.02235174447,-187500.02235174447,-187500.02235174447,-187500.02235174447
talvez,2913.6392967270967,-8737.408666301808,7475.898560988732,12015.984894750703,-187500.02235174447,-187500.02235174447,-187500.02235174447,-187500.02235174447
talvez,2847.3663744171113,-8766.130657926877,7253.319889702784,12026.71373208925,-187500.02235174447,-187500.02235174447,-187500.02235174447,-187500.02235174447
talvez,3076.1811824060896,-8753.770143243091,7578.761288972055,11981.674967011806,-187500.02235174447,-187500.02235174447,-187500.02235174447,-187500.02235174447
talvez,3145.2033692840782,-8724.019971373078,7810.884155140419,11977.316376843022,-187500.02235174447,-187500.02235174447,-187500.02235174447,-187500.02235174447
talvez,2954.6994512914957,-8729.183224342254,7562.220998075128,12028.703037345773,-187500.02235174447,-187500.02235174447,-187500.02235174447,-187500.02235174447
talvez,2819.8513769926285,-8748.025744918079,7285.01466334041,12055.793351625605,-187500.02235174447,-187500.02235174447,-187500.02235174447,-187500.02235174447
talvez,3017.9325363555595,-8745.276480350076,7536.2259192736055,11998.32701663101,-187500.02235174447,-187500.02235174447,-187500.02235174447,-187500.02235174447
talvez,3161.140163080712,-8728.624430730872,7812.06879759655,11963.570054003008,-187500.02235174447,-187500.02235174447,-187500.02235174447,-187500.02235174447
talvez,2996.050178533814,-8721.024837616067,7648.699897372711,12013.2356301827,-187500.02235174447,-187500.02235174447,-187500.02235174447,-187500.02235174447
talvez,2794.7280162248635,-8764.208407903721,7311.836756686778,12023.830357054516,-187500.02235174447,-187500.02235174447,-187500.02235174447,-187500.02235174447
talvez,2953.984195468926,-8776.233646420676,7452.09395314383,11982.881961212393,-187500.02235174447,-187500.02235174447,-187500.02235174447,-187500.02235174447
talvez,3173.679491720139,-8700.81886062847,7810.884155140419,11997.120022430423,-187500.02235174447,-187500.02235174447,-187500.02235174447,-187500.02235174447
talvez,3026.6720684375846,-8717.113282336388,7724.517014565113,11996.650635796863,-187500.02235174447,-187500.02235174447,-187500.02235174447,-187500.02235174447
talvez,2806.1944611304357,-8765.773030015593,7326.298335349362,12032.636944369906,-187500.02235174447,-187500.02235174447,-187500.02235174447,-187500.02235174447
talvez,2921.350648564178,-8764.16370441481,7373.1028882387745,12033.374551936931,-187500.02235174447,-187500.02235174447,-187500.02235174447,-187500.02235174447
talvez,3110.826386311816,-8753.211349631709,7723.846462231453,11941.821806647993,-187500.02235174447,-187500.02235174447,-187500.02235174447,-187500.02235174447
talvez,3061.2949205988552,-8701.422357728763,7768.974634286718,11993.096708428468,-187500.02235174447,-187500.02235174447,-187500.02235174447,-187500.02235174447
talvez,2847.0087465058264,-8747.601061773428,7428.0434761099195,12012.699188315772,-187500.02235174447,-187500.02235174447,-187500.02235174447,-187500.02235174447
talvez,2841.5549208587317,-8809.403635192351,7298.202192569041,11972.957786674237,-187500.02235174447,-187500.02235174447,-187500.02235174447,-187500.02235174447
talvez,3042.0277168783805,-8814.097501527966,7585.0644809084515,11904.717910852183,-187500.02235174447,-187500.02235174447,-187500.02235174447,-187500.02235174447
talvez,3105.238450197989,-8701.601171684406,7741.370229884414,11998.997568964669,-187500.02235174447,-187500.02235174447,-187500.02235174447,-187500.02235174447
talvez,2850.2273977073905,-8758.73223051217,7364.989205001499,11976.869341953916,-187500.02235174447,-187500.02235174447,-187500.02235174447,-187500.02235174447
talvez,2684.3103986156466,-8906.052578217099,7079.266855629308,11890.50220137861,-187500.02235174447,-187500.02235174447,-187500.02235174447,-187500.02235174447
talvez,2932.9735556809374,-8871.04974640009,7503.502965391036,11878.96870123967,-187500.02235174447,-187500.02235174447,-187500.02235174447,-187500.02235174447
talvez,3067.0169671794138,-8758.866340978902,7811.778224918631,11967.74983021615,-187500.02235174447,-187500.02235174447,-187500.02235174447,-187500.02235174447
talvez,2883.1291655456025,-8754.463047321207,7477.9996249675305,12030.446473413287,-187500.02235174447,-187500.02235174447,-187500.02235174447,-187500.02235174447
talvez,2742.3802307105343,-8818.634905652394,7130.228832987408,11979.260978610633,-187500.02235174447,-187500.02235174447,-187500.02235174447,-187500.02235174447
talvez,3019.3853997451547,-8745.924680939279,7526.860538346832,11990.392147349376,-187500.02235174447,-187500.02235174447,-187500.02235174447,-187500.02235174447
talvez,3107.4736246435195,-8698.136651293833,7677.6901099312445,11973.2260076077,-187500.02235174447,-187500.02235174447,-187500.02235174447,-187500.02235174447
talvez,2771.906885135995,-8844.22765305372,7273.972901579488,11900.269913705579,-187500.02235174447,-187500.02235174447,-187500.02235174447,-187500.02235174447
talvez,2622.2843077521693,-8916.848470789013,7049.069648870189,11918.330123225465,-187500.02235174447,-187500.02235174447,-187500.02235174447,-187500.02235174447
talvez,2943.0765441747362,-8826.882699356402,7376.03096676242,11946.113341583412,-187500.02235174447,-187500.02235174447,-187500.02235174447,-187500.02235174447
talvez,3071.3532056037434,-8822.345295231975,7737.257508904638,11909.724701610172,-187500.02235174447,-187500.02235174447,-187500.02235174447,-187500.02235174447
talvez,2920.4565787859656,-8775.473687109195,7529.922727337209,11988.805173493049,-187500.02235174447,-187500.02235174447,-187500.02235174447,-187500.02235174447
talvez,2730.220881726847,-8779.407594133329,7152.468818720439,12011.76041504865,-187500.02235174447,-187500.02235174447,-187500.02235174447,-187500.02235174447
talvez,2857.759935588829,-8811.83997533798,7318.363466067728,12006.75362429066,-187500.02235174447,-187500.02235174447,-187500.02235174447,-187500.02235174447
talvez,3082.2608568979335,-8784.414384891317,7689.871810659387,11976.757583231638,-187500.02235174447,-187500.02235174447,-187500.02235174447,-187500.02235174447
talvez,3000.0287890468585,-8745.812922217003,7628.292754685016,11996.203600907756,-187500.02235174447,-187500.02235174447,-187500.02235174447,-187500.02235174447
talvez,2793.990408657838,-8751.266747864098,7290.066157587309,12089.902113664402,-187500.02235174447,-187500.02235174447,-187500.02235174447,-187500.02235174447
talvez,2881.1622120335355,-8763.940186970256,7303.231335071485,12055.43572371432,-187500.02235174447,-187500.02235174447,-187500.02235174447,-187500.02235174447
talvez,3112.502767145964,-8749.813884474503,7680.908761132809,11982.725499001206,-187500.02235174447,-187500.02235174447,-187500.02235174447,-187500.02235174447
talvez,3066.502877056942,-8722.947087639224,7705.070996888995,12011.715711559738,-187500.02235174447,-187500.02235174447,-187500.02235174447,-187500.02235174447
talvez,2891.444014482977,-8739.554433769517,7391.051339036387,12085.320006051064,-187500.02235174447,-187500.02235174447,-187500.02235174447,-187500.02235174447
talvez,2839.3644499021116,-8749.947994941234,7265.278072986373,12089.902113664402,-187500.02235174447,-187500.02235174447,-187500.02235174447,-187500.02235174447
talvez,3043.3017663123333,-8736.760465712603,7638.015763523074,12037.219051983244,-187500.02235174447,-187500.02235174447,-187500.02235174447,-187500.02235174447
talvez,3076.069423683813,-8708.887840376836,7738.553910083046,12048.774903866639,-187500.02235174447,-187500.02235174447,-187500.02235174447,-187500.02235174447
talvez,2892.919229617027,-8714.989866613134,7415.37003700376,12097.367596312475,-187500.02235174447,-187500.02235174447,-187500.02235174447,-187500.02235174447
talvez,2863.8843135695834,-8742.750733226625,7259.824247339278,12130.090550195046,-187500.02235174447,-187500.02235174447,-187500.02235174447,-187500.02235174447
talvez,3090.7098163020396,-8733.877090677868,7612.7135887996665,12074.39000301242,-187500.02235174447,-187500.02235174447,-187500.02235174447,-187500.02235174447
talvez,3150.5454362088963,-8694.58272392544,7800.378835246424,12075.686404190828,-187500.02235174447,-187500.02235174447,-187500.02235174447,-187500.02235174447
talvez,2944.372945353144,-8693.57689542495,7520.646753388257,12143.814521290604,-187500.02235174447,-187500.02235174447,-187500.02235174447,-187500.02235174447
talvez,2854.273063453801,-8724.712875451192,7284.142945306653,12159.281928453676,-187500.02235174447,-187500.02235174447,-187500.02235174447,-187500.02235174447
talvez,3082.4173191091204,-8721.695389949726,7589.065443165951,12093.947779410813,-187500.02235174447,-187500.02235174447,-187500.02235174447,-187500.02235174447
talvez,3177.7475092110053,-8697.108471048889,7847.429257324846,12078.413317014376,-187500.02235174447,-187500.02235174447,-187500.02235174447,-187500.02235174447
talvez,3004.923821082571,-8702.91992460727,7619.977905747642,12104.810727216092,-187500.02235174447,-187500.02235174447,-187500.02235174447,-187500.02235174447
talvez,2831.161359687014,-8720.264878304586,7287.383948252672,12121.865108235492,-187500.02235174447,-187500.02235174447,-187500.02235174447,-187500.02235174447
talvez,3019.8994898676265,-8728.736189453148,7483.118174447796,12053.781694624628,-187500.02235174447,-187500.02235174447,-187500.02235174447,-187500.02235174447
talvez,3204.815471746382,-8703.523421707561,7847.205739880293,12044.57277590904,-187500.02235174447,-187500.02235174447,-187500.02235174447,-187500.02235174447
talvez,3051.9965949054476,-8694.269799503065,7694.766842695099,12091.131459609445,-187500.02235174447,-187500.02235174447,-187500.02235174447,-187500.02235174447
talvez,2851.2108744634243,-8710.094834577421,7329.092303406275,12120.948686712825,-187500.02235174447,-187500.02235174447,-187500.02235174447,-187500.02235174447
talvez,2979.7557568258953,-8728.15504409731,7439.264051826483,12086.214075829277,-187500.02235174447,-187500.02235174447,-187500.02235174447,-187500.02235174447
talvez,3163.5765032263403,-8702.182317040244,7831.02307689465,12048.23846199971,-187500.02235174447,-187500.02235174447,-187500.02235174447,-187500.02235174447
talvez,3071.2190951370117,-8680.970511552157,7751.115590466928,12074.188837312322,-187500.02235174447,-187500.02235174447,-187500.02235174447,-187500.02235174447
talvez,2853.669566353508,-8696.549677437506,7377.8414580633,12109.459890062797,-187500.02235174447,-187500.02235174447,-187500.02235174447,-187500.02235174447
talvez,2915.6509537280745,-8714.743997424126,7379.5625423863585,12096.406471300897,-187500.02235174447,-187500.02235174447,-187500.02235174447,-187500.02235174447
talvez,3145.940976851103,-8690.559409923484,7776.037785534595,12059.77196213865,-187500.02235174447,-187500.02235174447,-187500.02235174447,-187500.02235174447
talvez,3099.5387553618857,-8662.083287487423,7800.110614312961,12079.530904237141,-187500.02235174447,-187500.02235174447,-187500.02235174447,-187500.02235174447
talvez,2880.2010870219574,-8672.409793425775,7451.423400810171,12120.993390201735,-187500.02235174447,-187500.02235174447,-187500.02235174447,-187500.02235174447
talvez,2886.861906869639,-8693.420433213763,7341.296355878873,12108.275247606665,-187500.02235174447,-187500.02235174447,-187500.02235174447,-187500.02235174447
talvez,3137.179093024623,-8680.38936619632,7721.81245348602,12064.48818021872,-187500.02235174447,-187500.02235174447,-187500.02235174447,-187500.02235174447
talvez,3136.2403197575,-8652.51674086055,7828.474978026746,12081.386099026931,-187500.02235174447,-187500.02235174447,-187500.02235174447,-187500.02235174447
talvez,2921.663572986552,-8661.882121787325,7508.643866615756,12123.385026858454,-187500.02235174447,-187500.02235174447,-187500.02235174447,-187500.02235174447
talvez,2858.6540053670415,-8690.604113412395,7321.045675402364,12124.189689658844,-187500.02235174447,-187500.02235174447,-187500.02235174447,-187500.02235174447
talvez,3094.4872611149863,-8679.942331307213,7670.761069150099,12077.742764680715,-187500.02235174447,-187500.02235174447,-187500.02235174447,-187500.02235174447
talvez,3146.589177440307,-8655.489522873107,7846.535187546634,12061.738915650716,-187500.02235174447,-187500.02235174447,-187500.02235174447,-187500.02235174447
talvez,2954.788858269317,-8664.743145077604,7556.610710216846,12098.865163190982,-187500.02235174447,-187500.02235174447,-187500.02235174447,-187500.02235174447
talvez,2843.208949948424,-8692.638122157827,7296.101128590242,12136.170224686888,-187500.02235174447,-187500.02235174447,-187500.02235174447,-187500.02235174447
talvez,3046.431010536076,-8683.38449995333,7588.7078152546665,12101.010930658691,-187500.02235174447,-187500.02235174447,-187500.02235174447,-187500.02235174447
talvez,3151.841837387304,-8651.08622921541,7864.014251710684,12069.271453532154,-187500.02235174447,-187500.02235174447,-187500.02235174447,-187500.02235174447
talvez,2990.8422220757275,-8659.870464786347,7632.427827409248,12095.177125355856,-187500.02235174447,-187500.02235174447,-187500.02235174447,-187500.02235174447
talvez,2834.8270457776844,-8682.62454064185,7306.11471010622,12127.475396093774,-187500.02235174447,-187500.02235174447,-187500.02235174447,-187500.02235174447
talvez,3011.182309530057,-8691.498183190606,7515.081169018886,12096.473526534262,-187500.02235174447,-187500.02235174447,-187500.02235174447,-187500.02235174447
talvez,3157.3180147788544,-8662.843246798902,7844.568234034567,12055.189854525312,-187500.02235174447,-187500.02235174447,-187500.02235174447,-187500.02235174447
talvez,3037.7138301985065,-8654.081362972423,7699.863040430909,12082.526037994152,-187500.02235174447,-187500.02235174447,-187500.02235174447,-187500.02235174447
talvez,2864.152534503047,-8683.742127864614,7355.310899652351,12127.855375749514,-187500.02235174447,-187500.02235174447,-187500.02235174447,-187500.02235174447
talvez,2966.8364485307275,-8715.43690150224,7436.492435514026,12084.336529295031,-187500.02235174447,-187500.02235174447,-187500.02235174447,-187500.02235174447
talvez,3153.9652531105585,-8681.372842952353,7802.412843991858,12038.962488050758,-187500.02235174447,-187500.02235174447,-187500.02235174447,-187500.02235174447
talvez,3051.817780949805,-8656.361240906865,7723.980572698185,12070.366689010465,-187500.02235174447,-187500.02235174447,-187500.02235174447,-187500.02235174447
talvez,2860.509200156832,-8674.466153915662,7388.503240168481,12116.813613988592,-187500.02235174447,-187500.02235174447,-187500.02235174447,-187500.02235174447
talvez,2950.564378567264,-8697.421395471263,7429.831615666344,12108.699930751316,-187500.02235174447,-187500.02235174447,-187500.02235174447,-187500.02235174447
talvez,3145.069258817346,-8685.329101720941,7809.1183673284495,12071.014889599668,-187500.02235174447,-187500.02235174447,-187500.02235174447,-187500.02235174447
talvez,3085.725377288506,-8672.879180059335,7785.090242038995,12069.562026210073,-187500.02235174447,-187500.02235174447,-187500.02235174447,-187500.02235174447
talvez,2917.5955554956863,-8686.804316854992,7450.194054865129,12093.903075921902,-187500.02235174447,-187500.02235174447,-187500.02235174447,-187500.02235174447
talvez,2887.3536452476555,-8711.950029367212,7335.4178470871275,12070.67961343284,-187500.02235174447,-187500.02235174447,-187500.02235174447,-187500.02235174447
talvez,3137.4473139580864,-8689.039491300522,7731.6248693019,12033.195737981288,-187500.02235174447,-187500.02235174447,-187500.02235174447,-187500.02235174447
talvez,3173.299512064399,-8664.676089844239,7842.64598401141,12061.00130808369,-187500.02235174447,-187500.02235174447,-187500.02235174447,-187500.02235174447
talvez,2922.7364567204067,-8696.214401270676,7483.72167154809,12084.448288017307,-187500.02235174447,-187500.02235174447,-187500.02235174447,-187500.02235174447
talvez,2835.028211477782,-8730.68079122076,7274.017605068399,12070.34433726601,-187500.02235174447,-187500.02235174447,-187500.02235174447,-187500.02235174447
talvez,3054.0976588842464,-8697.53315419354,7655.874807342864,12037.464921172254,-187500.02235174447,-187500.02235174447,-187500.02235174447,-187500.02235174447
talvez,3168.6727009621504,-8641.184406421711,7875.592455338533,12069.562026210073,-187500.02235174447,-187500.02235174447,-187500.02235174447,-187500.02235174447
talvez,2991.4457191760207,-8691.744052379616,7582.985768674108,12076.468715246763,-187500.02235174447,-187500.02235174447,-187500.02235174447,-187500.02235174447
talvez,2870.209857250435,-8705.49037521963,7364.251597434473,12131.990448473745,-187500.02235174447,-187500.02235174447,-187500.02235174447,-187500.02235174447
talvez,3050.7448972159505,-8694.113337291878,7629.9691355191635,12076.871046646958,-187500.02235174447,-187500.02235174447,-187500.02235174447,-187500.02235174447
talvez,3118.5377381488966,-8725.91986965178,7794.790899132598,11989.27456012661,-187500.02235174447,-187500.02235174447,-187500.02235174447,-187500.02235174447
talvez,2996.273695978367,-8707.926715365258,7684.462688501202,12065.941043608314,-187500.02235174447,-187500.02235174447,-187500.02235174447,-187500.02235174447
talvez,2905.86088965665,-8669.839342813415,7402.093100797308,12150.92237602739,-187500.02235174447,-187500.02235174447,-187500.02235174447,-187500.02235174447
talvez,3014.2668502648894,-8707.39027349833,7539.399866986259,12063.415296484864,-187500.02235174447,-187500.02235174447,-187500.02235174447,-187500.02235174447
talvez,3160.335500280321,-8723.260012061597,7942.312412537624,12028.077188501024,-187500.02235174447,-187500.02235174447,-187500.02235174447,-187500.02235174447
talvez,3025.152149814624,-8719.504918993107,7647.783475850043,12102.128517881456,-187500.02235174447,-187500.02235174447,-187500.02235174447,-187500.02235174447
talvez,2830.669621308997,-8748.003393173623,7191.182040117031,12062.655337173384,-187500.02235174447,-187500.02235174447,-187500.02235174447,-187500.02235174447
talvez,2972.3573294111884,-8707.367921753874,7319.59281201277,12043.186967752812,-187500.02235174447,-187500.02235174447,-187500.02235174447,-187500.02235174447
talvez,3055.84109495176,-8766.532989327072,7607.8409085084095,11923.471024450188,-187500.02235174447,-187500.02235174447,-187500.02235174447,-187500.02235174447
talvez,3025.308612025811,-8740.023820403077,7632.874862298354,11997.90233348636,-187500.02235174447,-187500.02235174447,-187500.02235174447,-187500.02235174447
talvez,2821.1030746821257,-8771.36096612942,7318.207003856541,12055.05574405858,-187500.02235174447,-187500.02235174447,-187500.02235174447,-187500.02235174447
talvez,2894.1709273065244,-8776.144239442854,7374.287530694906,12067.77388665365,-187500.02235174447,-187500.02235174447,-187500.02235174447,-187500.02235174447
talvez,3133.33459297831,-8763.582559058972,7749.640375332878,12022.779825065116,-187500.02235174447,-187500.02235174447,-187500.02235174447,-187500.02235174447
talvez,3083.8925342431708,-8735.039381389544,7662.0215370680735,12034.067456015046,-187500.02235174447,-187500.02235174447,-187500.02235174447,-187500.02235174447
talvez,2845.220606949402,-8758.419306089796,7313.490785776471,12041.734104363217,-187500.02235174447,-187500.02235174447,-187500.02235174447,-187500.02235174447
talvez,2816.2974496242346,-8799.479460654195,7225.469616111472,12025.2385169552,-187500.02235174447,-187500.02235174447,-187500.02235174447,-187500.02235174447
talvez,3084.2501621544557,-8762.621434047394,7632.092551242417,11984.692452513273,-187500.02235174447,-187500.02235174447,-187500.02235174447,-187500.02235174447
talvez,3109.8652613002378,-8734.301773822519,7768.237026719693,12000.338673631988,-187500.02235174447,-187500.02235174447,-187500.02235174447,-187500.02235174447
talvez,2929.3972765680883,-8724.91404115129,7498.317360677405,12075.217017557266,-187500.02235174447,-187500.02235174447,-187500.02235174447,-187500.02235174447
talvez,2860.442144923466,-8774.445506864251,7324.979582426498,12078.927407136847,-187500.02235174447,-187500.02235174447,-187500.02235174447,-187500.02235174447
talvez,3067.195781135056,-8775.272521409097,7547.044163589974,12009.346426647477,-187500.02235174447,-187500.02235174447,-187500.02235174447,-187500.02235174447
talvez,3118.5824416378073,-8759.626300290383,7714.659895260322,11981.674967011806,-187500.02235174447,-187500.02235174447,-187500.02235174447,-187500.02235174447
talvez,2943.3447651082,-8755.468875821696,7481.374738380282,12014.353217405465,-187500.02235174447,-187500.02235174447,-187500.02235174447,-187500.02235174447
talvez,2823.897042739039,-8784.481440124684,7230.09642721372,12045.533900920618,-187500.02235174447,-187500.02235174447,-187500.02235174447,-187500.02235174447
talvez,3007.4272164615654,-8784.772012802603,7505.402863669738,12010.620476081429,-187500.02235174447,-187500.02235174447,-187500.02235174447,-187500.02235174447
talvez,3146.298604762388,-8750.77500948608,7785.537276928101,12005.144298689878,-187500.02235174447,-187500.02235174447,-187500.02235174447,-187500.02235174447
talvez,3013.5515944423196,-8751.669079264293,7577.64370174929,12037.442569427798,-187500.02235174447,-187500.02235174447,-187500.02235174447,-187500.02235174447
talvez,2850.3615081741227,-8777.261826665619,7265.300424730829,12060.442514472308,-187500.02235174447,-187500.02235174447,-187500.02235174447,-187500.02235174447
talvez,3000.5205274248756,-8786.761318059125,7434.436075024138,12018.421234896332,-187500.02235174447,-187500.02235174447,-187500.02235174447,-187500.02235174447
talvez,3177.7028057220946,-8756.92173921129,7765.957148785252,11981.116173400424,-187500.02235174447,-187500.02235174447,-187500.02235174447,-187500.02235174447
talvez,3061.4513828100426,-8753.68073626527,7647.828179338954,12022.131624475913,-187500.02235174447,-187500.02235174447,-187500.02235174447,-187500.02235174447
talvez,2862.610264135631,-8779.78757378907,7294.223582055996,12050.227767256232,-187500.02235174447,-187500.02235174447,-187500.02235174447,-187500.02235174447
talvez,2959.706242049485,-8785.196695947254,7371.27004519344,12021.61753435344,-187500.02235174447,-187500.02235174447,-187500.02235174447,-187500.02235174447
talvez,3167.242189317011,-8761.30268112453,7746.91346250933,11971.817847707016,-187500.02235174447,-187500.02235174447,-187500.02235174447,-187500.02235174447
talvez,3068.469830569009,-8754.30658511002,7675.611397696901,11985.072432169012,-187500.02235174447,-187500.02235174447,-187500.02235174447,-187500.02235174447
talvez,2883.9114766015387,-8764.230759648175,7331.439236574082,12049.266642244655,-187500.02235174447,-187500.02235174447,-187500.02235174447,-187500.02235174447
talvez,2902.664590199541,-8806.006170035145,7271.648320156136,12008.050025469069,-187500.02235174447,-187500.02235174447,-187500.02235174447,-187500.02235174447
talvez,3137.3802587247205,-8783.363852901919,7685.110889090406,11957.780952189083,-187500.02235174447,-187500.02235174447,-187500.02235174447,-187500.02235174447
talvez,3103.8302902973046,-8748.293965851542,7759.184570215294,11985.363004846931,-187500.02235174447,-187500.02235174447,-187500.02235174447,-187500.02235174447
talvez,2894.7520726623625,-8767.963500972211,7420.510938228481,12032.636944369906,-187500.02235174447,-187500.02235174447,-187500.02235174447,-187500.02235174447
talvez,2864.7560316033405,-8793.668007095815,7259.779543850368,12023.919764032336,-187500.02235174447,-187500.02235174447,-187500.02235174447,-187500.02235174447
$SILENCE,3104.880822286704,-8767.628224805383,7637.0099350225855,11990.168629904823,-187500.02235174447,-187500.02235174447,-187500.02235174447,-187500.02235174447
$SILENCE,3111.496938645475,-8740.940241925746,7761.419744660824,11982.300815856555,-187500.02235174447,-187500.02235174447,-187500.02235174447,-187500.02235174447
$SILENCE,2927.542081778298,-8743.82361696048,7482.604084325324,12031.318191447042,-187500.02235174447,-187500.02235174447,-187500.02235174447,-187500.02235174447
$SILENCE,2843.454819137433,-8785.062585480522,7246.5473111328265,12021.751644820171,-187500.02235174447,-187500.02235174447,-187500.02235174447,-187500.02235174447
$SILENCE,3082.842002253771,-8772.299739396542,7563.964434142642,11984.781859491093,-187500.02235174447,-187500.02235174447,-187500.02235174447,-187500.02235174447
$SILENCE,3158.033270601424,-8745.87997745037,7791.840468864498,11972.51075178513,-187500.02235174447,-187500.02235174447,-187500.02235174447,-187500.02235174447
$SILENCE,2976.9394370245263,-8745.030611161066,7547.692364179178,12012.1850981933,-187500.02235174447,-187500.02235174447,-187500.02235174447,-187500.02235174447
$SILENCE,2846.472304638899,-8776.412460376318,7250.369459434683,12030.312362946554,-187500.02235174447,-187500.02235174447,-187500.02235174447,-187500.02235174447
$SILENCE,3019.4524549785206,-8790.06937623851,7477.5302383339695,11973.382469818887,-187500.02235174447,-187500.02235174447,-187500.02235174447,-187500.02235174447
$SILENCE,3164.9846631270248,-8731.194881343232,7797.540163700601,11988.425193837309,-187500.02235174447,-187500.02235174447,-187500.02235174447,-187500.02235174447
$SILENCE,3007.0695885502805,-8733.58651799995,7605.471623596147,12011.1345662039,-187500.02235174447,-187500.02235174447,-187500.02235174447,-187500.02235174447
$SILENCE,2802.640533762042,-8788.392995404363,7226.05076146731,12002.797365522072,-187500.02235174447,-187500.02235174447,-187500.02235174447,-187500.02235174447
$SILENCE,2991.6468848761183,-8770.153971928832,7432.133845345241,11995.1307171739,-187500.02235174447,-187500.02235174447,-187500.02235174447,-187500.02235174447
$SILENCE,3159.7320031800277,-8768.388184116862,7781.223390248227,11941.687696181261,-187500.02235174447,-187500.02235174447,-187500.02235174447,-187500.02235174447
$SILENCE,3038.786713932361,-8760.140390412855,7639.915661801775,11975.595292519964,-187500.02235174447,-187500.02235174447,-187500.02235174447,-187500.02235174447
$SILENCE,2849.601548862642,-8769.796344017548,7274.464639957505,12017.035426740102,-187500.02235174447,-187500.02235174447,-187500.02235174447,-187500.02235174447
$SILENCE,2931.2971748467894,-8791.723405328203,7329.204062128551,11983.306644357044,-187500.02235174447,-187500.02235174447,-187500.02235174447,-187500.02235174447
$SILENCE,3149.1596280526674,-8763.426096847785,7731.334296623982,11948.1697020733,-187500.02235174447,-187500.02235174447,-187500.02235174447,-187500.02235174447
$SILENCE,3081.6126563087296,-8749.724477496682,7711.865927203408,11972.08606864048,-187500.02235174447,-187500.02235174447,-187500.02235174447,-187500.02235174447
$SILENCE,2877.407118965044,-8755.155951399322,7358.261329920451,12020.09761573048,-187500.02235174447,-187500.02235174447,-187500.02235174447,-187500.02235174447
$SILENCE,2897.635447697097,-8778.580579588483,7284.232352284474,11998.796403264572,-187500.02235174447,-187500.02235174447,-187500.02235174447,-187500.02235174447
$SILENCE,3112.6815811016063,-8775.764259787114,7670.694013916733,11939.944260113747,-187500.02235174447,-187500.02235174447,-187500.02235174447,-187500.02235174447
$SILENCE,3096.4542146270533,-8748.271614107087,7738.755075783143,11966.31931857101,-187500.02235174447,-187500.02235174447,-187500.02235174447,-187500.02235174447
$SILENCE,2873.7190811299183,-8773.21616091921,7386.536286656415,12011.939229004292,-187500.02235174447,-187500.02235174447,-187500.02235174447,-187500.02235174447
$SILENCE,2853.8483803091503,-8782.939169757268,7246.457904155005,12021.61753435344,-187500.02235174447,-187500.02235174447,-187500.02235174447,-187500.02235174447
$SILENCE,3102.332723418799,-8763.493152081151,7614.926411500742,11965.872283681903,-187500.02235174447,-187500.02235174447,-187500.02235174447,-187500.02235174447
$SILENCE,3108.5465083773743,-8763.269634636597,7749.752134055154,11943.609946204419,-187500.02235174447,-187500.02235174447,-187500.02235174447,-187500.02235174447
$SILENCE,2899.512994231343,-8776.814791776515,7453.323299088872,11985.742984502673,-187500.02235174447,-187500.02235174447,-187500.02235174447,-187500.02235174447
$SILENCE,2825.7745892732846,-8785.040233736067,7240.221767451974,12015.80608079506,-187500.02235174447,-187500.02235174447,-187500.02235174447,-187500.02235174447
$SILENCE,3033.5564057298193,-8779.83227727798,7528.983954070086,11958.026821378091,-187500.02235174447,-187500.02235174447,-187500.02235174447,-187500.02235174447
$SILENCE,3121.555223650363,-8751.803189731025,7757.262320192137,11945.465140994209,-187500.02235174447,-187500.02235174447,-187500.02235174447,-187500.02235174447
$SILENCE,2937.890939461105,-8762.912006725313,7506.229878214584,11986.748813003162,-187500.02235174447,-187500.02235174447,-187500.02235174447,-187500.02235174447
$SILENCE,2773.9408938814277,-8809.716559614726,7190.243266849908,11992.76143226164,-187500.02235174447,-187500.02235174447,-187500.02235174447,-187500.02235174447
$SILENCE,2990.752815097906,-8795.59025711897,7456.609005523802,11962.765391202616,-187500.02235174447,-187500.02235174447,-187500.02235174447,-187500.02235174447
$SILENCE,3145.33747975081,-8759.849817734936,7777.602407646466,11942.157082814823,-187500.02235174447,-187500.02235174447,-187500.02235174447,-187500.02235174447
$SILENCE,2981.856820804694,-8757.704050267226,7587.545524542991,11974.74592623066,-187500.02235174447,-187500.02235174447,-187500.02235174447,-187500.02235174447
$SILENCE,2801.098263394626,-8782.872114523901,7248.357802433706,12007.04419696858,-187500.02235174447,-187500.02235174447,-187500.02235174447,-187500.02235174447
$SILENCE,2934.3593638371667,-8799.680626354293,7388.614998890758,11966.31931857101,-187500.02235174447,-187500.02235174447,-187500.02235174447,-187500.02235174447
$SILENCE,3115.14027299169,-8780.9722162452,7728.4062181003355,11929.818919875494,-187500.02235174447,-187500.02235174447,-187500.02235174447,-187500.02235174447
$SILENCE,3015.697361910029,-8767.427059105285,7626.884594784331,11958.675021967296,-187500.02235174447,-187500.02235174447,-187500.02235174447,-187500.02235174447
$SILENCE,2823.3606008721117,-8784.369681402408,7270.083698044265,11999.221086409223,-187500.02235174447,-187500.02235174447,-187500.02235174447,-187500.02235174447
$SILENCE,2897.47898548591,-8804.329789200996,7304.997122883454,11969.649728494851,-187500.02235174447,-187500.02235174447,-187500.02235174447,-187500.02235174447
$SILENCE,3104.299676930866,-8784.839068035968,7696.398520040336,11928.567222185997,-187500.02235174447,-187500.02235174447,-187500.02235174447,-187500.02235174447
$SILENCE,3035.6798214530736,-8763.873131736891,7682.048700100029,11961.84896967995,-187500.02235174447,-187500.02235174447,-187500.02235174447,-187500.02235174447
$SILENCE,2822.600641560631,-8782.715652312714,7322.811463214334,12004.049063211569,-187500.02235174447,-187500.02235174447,-187500.02235174447,-187500.02235174447
$SILENCE,2834.5141213553097,-8806.632018879893,7248.581319878259,11990.79447874957,-187500.02235174447,-187500.02235174447,-187500.02235174447,-187500.02235174447
$SILENCE,3071.5096678149307,-8788.616512848916,7635.691182099722,11937.910251368316,-187500.02235174447,-187500.02235174447,-187500.02235174447,-187500.02235174447
$SILENCE,3060.1326298871795,-8764.476628837185,7718.794967984554,11950.829559663482,-187500.02235174447,-187500.02235174447,-187500.02235174447,-187500.02235174447
$SILENCE,2857.223493721902,-8771.517428340607,7383.831725577322,11986.301778114055,-187500.02235174447,-187500.02235174447,-187500.02235174447,-187500.02235174447
$SILENCE,2819.4937490813436,-8800.529992643595,7216.28304914034,11984.42423157981,-187500.02235174447,-187500.02235174447,-187500.02235174447,-187500.02235174447
$SILENCE,3035.7468766864395,-8804.150975245355,7572.703966224667,11929.818919875494,-187500.02235174447,-187500.02235174447,-187500.02235174447,-187500.02235174447
$SILENCE,3058.2550833529335,-8761.906178224825,7755.697698080266,11951.65657420833,-187500.02235174447,-187500.02235174447,-187500.02235174447,-187500.02235174447
$SILENCE,2846.025269749793,-8768.321128883497,7448.227101353062,11986.927626958803,-187500.02235174447,-187500.02235174447,-187500.02235174447,-187500.02235174447
$SILENCE,2769.4258415014556,-8801.133489743888,7186.04113889231,11985.56417054703,-187500.02235174447,-187500.02235174447,-187500.02235174447,-187500.02235174447
$SILENCE,2993.2338587324452,-8796.193754219265,7495.188116453662,11940.83832989196,-187500.02235174447,-187500.02235174447,-187500.02235174447,-187500.02235174447
$SILENCE,3070.7720602479053,-8770.958634729222,7756.949395769763,11938.22317579069,-187500.02235174447,-187500.02235174447,-187500.02235174447,-187500.02235174447
$SILENCE,2896.0484738407704,-8776.010128976122,7514.902355063243,11982.211408878733,-187500.02235174447,-187500.02235174447,-187500.02235174447,-187500.02235174447
$SILENCE,2755.612463428076,-8798.965370531723,7206.627095535648,12000.405728865353,-187500.02235174447,-187500.02235174447,-187500.02235174447,-187500.02235174447
$SILENCE,2928.927889934527,-8804.620361878915,7418.745150416512,11939.988963602658,-187500.02235174447,-187500.02235174447,-187500.02235174447,-187500.02235174447
$SILENCE,3095.6942553155727,-8781.329844156486,7722.952392453241,11909.54588765453,-187500.02235174447,-187500.02235174447,-187500.02235174447,-187500.02235174447
$SILENCE,2963.6177973291633,-8781.419251134306,7553.727335182111,11941.419475247798,-187500.02235174447,-187500.02235174447,-187500.02235174447,-187500.02235174447
$SILENCE,2804.2722111072794,-8800.194716476764,7223.279145154852,11977.629301265395,-187500.02235174447,-187500.02235174447,-187500.02235174447,-187500.02235174447
$SILENCE,2924.1446166210912,-8811.527050915605,7351.578158328314,11954.048210865047,-187500.02235174447,-187500.02235174447,-187500.02235174447,-187500.02235174447
$SILENCE,3108.3229909328215,-8784.88377152488,7747.829884031998,11931.092969309446,-187500.02235174447,-187500.02235174447,-187500.02235174447,-187500.02235174447
$SILENCE,2992.697416865518,-8770.936282984769,7668.011804582096,11974.298891341556,-187500.02235174447,-187500.02235174447,-187500.02235174447,-187500.02235174447
$SILENCE,2789.251838833313,-8791.49988788365,7288.30036977534,12001.970350977224,-187500.02235174447,-187500.02235174447,-187500.02235174447,-187500.02235174447
$SILENCE,2861.5597321462315,-8818.254925996653,7296.279942545884,11965.291138326065,-187500.02235174447,-187500.02235174447,-187500.02235174447,-187500.02235174447
$SILENCE,3093.302618658855,-8789.041195993566,7700.980627653674,11932.50112921013,-187500.02235174447,-187500.02235174447,-187500.02235174447,-187500.02235174447
$SILENCE,3044.9557954020256,-8771.517428340607,7699.6171712419,11952.79651317555,-187500.02235174447,-187500.02235174447,-187500.02235174447,-187500.02235174447
$SILENCE,2814.6657722789973,-8791.209315205731,7324.6219545152135,11995.689510785283,-187500.02235174447,-187500.02235174447,-187500.02235174447,-187500.02235174447
$SILENCE,2834.5141213553097,-8808.733082858693,7247.419029166584,11995.376586362909,-187500.02235174447,-187500.02235174447,-187500.02235174447,-187500.02235174447
$SILENCE,3062.7701357329056,-8786.26957968111,7652.812618352487,11942.64882119284,-187500.02235174447,-187500.02235174447,-187500.02235174447,-187500.02235174447
$SILENCE,3034.3163650413,-8759.894521223847,7734.172968169805,11962.072487124502,-187500.02235174447,-187500.02235174447,-187500.02235174447,-187500.02235174447
$SILENCE,2808.5190425537876,-8769.394012617351,7391.341911714306,12006.150127190367,-187500.02235174447,-187500.02235174447,-187500.02235174447,-187500.02235174447
$SILENCE,2774.812611915185,-8802.899277555856,7198.736929742924,11992.381452605898,-187500.02235174447,-187500.02235174447,-187500.02235174447,-187500.02235174447
$SILENCE,3029.175463816579,-8795.947885030257,7561.125762596818,11942.69352468175,-187500.02235174447,-187500.02235174447,-187500.02235174447,-187500.02235174447
$SILENCE,3075.398871350154,-8769.103439939432,7750.445038133269,11952.617699219907,-187500.02235174447,-187500.02235174447,-187500.02235174447,-187500.02235174447
$SILENCE,2868.3770142051,-8772.9702917302,7466.220255639584,12000.405728865353,-187500.02235174447,-187500.02235174447,-187500.02235174447,-187500.02235174447
$SILENCE,2757.892341362517,-8795.724367585703,7205.017769934866,12022.71276983175,-187500.02235174447,-187500.02235174447,-187500.02235174447,-187500.02235174447
$SILENCE,2968.6692915760627,-8803.323960700507,7491.142450707252,11962.474818524697,-187500.02235174447,-187500.02235174447,-187500.02235174447,-187500.02235174447
$SILENCE,3071.3308538592883,-8775.093707453456,7758.134038225894,11934.356323999922,-187500.02235174447,-187500.02235174447,-187500.02235174447,-187500.02235174447
$SILENCE,2909.6159827251417,-8769.394012617351,7547.714715923634,11989.788650249082,-187500.02235174447,-187500.02235174447,-187500.02235174447,-187500.02235174447
$SILENCE,2759.54637045221,-8799.948847287757,7227.637735323637,12013.481499371708,-187500.02235174447,-187500.02235174447,-187500.02235174447,-187500.02235174447
$SILENCE,2939.6790790175296,-8806.229687479698,7428.334048787839,11967.74983021615,-187500.02235174447,-187500.02235174447,-187500.02235174447,-187500.02235174447
$SILENCE,3097.080063471802,-8776.434812120773,7753.507227123646,11943.609946204419,-187500.02235174447,-187500.02235174447,-187500.02235174447,-187500.02235174447
$SILENCE,2953.246587901901,-8774.557265586527,7589.26660886605,11977.629301265395,-187500.02235174447,-187500.02235174447,-187500.02235174447,-187500.02235174447
$SILENCE,2768.665882189975,-8801.155841488344,7242.479293641961,12007.37947313541,-187500.02235174447,-187500.02235174447,-187500.02235174447,-187500.02235174447
$SILENCE,2891.600476694164,-8809.26952472562,7369.325443425828,11992.806135750548,-187500.02235174447,-187500.02235174447,-187500.02235174447,-187500.02235174447
$SILENCE,3080.4727173415085,-8785.017881991611,7737.0339914600845,11949.868434651904,-187500.02235174447,-187500.02235174447,-187500.02235174447,-187500.02235174447
$SILENCE,2993.5244314103643,-8771.472724851696,7655.584234664945,11973.047193652057,-187500.02235174447,-187500.02235174447,-187500.02235174447,-187500.02235174447
$SILENCE,2797.477280792866,-8794.718539085216,7290.714358176513,12002.730310288705,-187500.02235174447,-187500.02235174447,-187500.02235174447,-187500.02235174447
$SILENCE,2860.71036585693,-8816.489138184683,7292.211925055019,11981.2279321227,-187500.02235174447,-187500.02235174447,-187500.02235174447,-187500.02235174447
$SILENCE,3066.8381532237713,-8790.471707638706,7682.182810566761,11941.665344436806,-187500.02235174447,-187500.02235174447,-187500.02235174447,-187500.02235174447
$SILENCE,2998.106539023702,-8781.486306367673,7690.341197292948,11961.60310049094,-187500.02235174447,-187500.02235174447,-187500.02235174447,-187500.02235174447
$SILENCE,2815.157510657014,-8799.658274609837,7347.823065259822,12005.144298689878,-187500.02235174447,-187500.02235174447,-187500.02235174447,-187500.02235174447
$SILENCE,2827.540377085254,-8818.813719608035,7254.169255992086,12003.825545767015,-187500.02235174447,-187500.02235174447,-187500.02235174447,-187500.02235174447
$SILENCE,3055.7740397183943,-8798.607742620437,7641.949670547208,11952.528292242087,-187500.02235174447,-187500.02235174447,-187500.02235174447,-187500.02235174447
$SILENCE,3067.240484623967,-8781.59806508995,7739.984421728185,11943.677001437783,-187500.02235174447,-187500.02235174447,-187500.02235174447,-187500.02235174447
$SILENCE,2853.915435542516,-8794.204448962742,7421.069731839863,11992.94024621728,-187500.02235174447,-187500.02235174447,-187500.02235174447,-187500.02235174447
$SILENCE,2795.890306936539,-8816.131510273399,7219.456996852994,12001.635074810396,-187500.02235174447,-187500.02235174447,-187500.02235174447,-187500.02235174447
$SILENCE,3028.9742981164814,-8807.079053768999,7565.573759743424,11955.322260298999,-187500.02235174447,-187500.02235174447,-187500.02235174447,-187500.02235174447
$SILENCE,3073.007234693436,-8782.581541845982,7756.412953902835,11943.83346364897,-187500.02235174447,-187500.02235174447,-187500.02235174447,-187500.02235174447
$SILENCE,2886.5489824472647,-8792.818640806514,7472.165819664696,11982.747850745662,-187500.02235174447,-187500.02235174447,-187500.02235174447,-187500.02235174447
$SILENCE,2785.4296905314554,-8818.701960885759,7200.525069299349,11994.191943906779,-187500.02235174447,-187500.02235174447,-187500.02235174447,-187500.02235174447
$SILENCE,2992.1609749985905,-8809.1801177478,7493.735253064067,11954.741114943161,-187500.02235174447,-187500.02235174447,-187500.02235174447,-187500.02235174447
$SILENCE,3096.0295314824025,-8777.954730743735,7769.265206964637,11938.022010090592,-187500.02235174447,-187500.02235174447,-187500.02235174447,-187500.02235174447
$SILENCE,2921.015372397348,-8782.045099979056,7547.044163589974,11979.149219888357,-187500.02235174447,-187500.02235174447,-187500.02235174447,-187500.02235174447
$SILENCE,2773.896190392517,-8812.46582418273,7234.231499937952,12007.647694068874,-187500.02235174447,-187500.02235174447,-187500.02235174447,-187500.02235174447
$SILENCE,2921.283593330812,-8820.26658299763,7405.199993276596,11952.818864920006,-187500.02235174447,-187500.02235174447,-187500.02235174447,-187500.02235174447
$SILENCE,3107.8089008103493,-8790.583466360982,7760.235102204693,11929.2154227752,-187500.02235174447,-187500.02235174447,-187500.02235174447,-187500.02235174447
$SILENCE,2987.757681340895,-8778.893504010857,7615.038170223019,11966.721649971207,-187500.02235174447,-187500.02235174447,-187500.02235174447,-187500.02235174447
$SILENCE,2789.3635975555894,-8804.508603156639,7253.096372258231,12001.2327434102,-187500.02235174447,-187500.02235174447,-187500.02235174447,-187500.02235174447
$SILENCE,2899.222421553424,-8818.567850419027,7350.572329827825,11973.024841907602,-187500.02235174447,-187500.02235174447,-187500.02235174447,-187500.02235174447
$SILENCE,3089.636932568185,-8793.511544884628,7717.878546461886,11937.351457756933,-187500.02235174447,-187500.02235174447,-187500.02235174447,-187500.02235174447
$SILENCE,3003.5827164152524,-8782.64859707935,7659.629900411356,11966.2746150821,-187500.02235174447,-187500.02235174447,-187500.02235174447,-187500.02235174447
$SILENCE,2807.155586142014,-8803.726292100704,7288.702701175535,12004.607856822951,-187500.02235174447,-187500.02235174447,-187500.02235174447,-187500.02235174447
$SILENCE,2850.5850256186754,-8822.613516165438,7267.267378242896,11978.724536743706,-187500.02235174447,-187500.02235174447,-187500.02235174447,-187500.02235174447
$SILENCE,3069.6991765140506,-8800.172364732309,7672.9962435956295,11940.03366709157,-187500.02235174447,-187500.02235174447,-187500.02235174447,-187500.02235174447
$SILENCE,3032.371763273688,-8780.301663911541,7704.847479444442,11946.538024728063,-187500.02235174447,-187500.02235174447,-187500.02235174447,-187500.02235174447
$SILENCE,2839.2079876909243,-8792.863344295423,7358.261329920451,11990.570961305018,-187500.02235174447,-187500.02235174447,-187500.02235174447,-187500.02235174447
$SILENCE,2834.402362633033,-8812.957562560745,7247.866064055689,11997.477650341709,-187500.02235174447,-187500.02235174447,-187500.02235174447,-187500.02235174447
$SILENCE,3068.7380515024724,-8798.339521686974,7642.03907752503,11944.012277604614,-187500.02235174447,-187500.02235174447,-187500.02235174447,-187500.02235174447
$SILENCE,3051.1919321050564,-8787.40951864833,7749.528616610601,11939.921908369293,-187500.02235174447,-187500.02235174447,-187500.02235174447,-187500.02235174447
$SILENCE,2870.545133417265,-8794.629132107393,7430.546871488914,11989.699243271261,-187500.02235174447,-187500.02235174447,-187500.02235174447,-187500.02235174447
$SILENCE,2810.642458277042,-8823.373475476918,7211.477424082449,11996.605932307952,-187500.02235174447,-187500.02235174447,-187500.02235174447,-187500.02235174447
$SILENCE,3024.9286323700708,-8812.510527671639,7554.7331636826,11945.196920060745,-187500.02235174447,-187500.02235174447,-187500.02235174447,-187500.02235174447
$SILENCE,3097.3482844052655,-8787.901257026346,7764.236064462193,11939.206652546723,-187500.02235174447,-187500.02235174447,-187500.02235174447,-187500.02235174447
$SILENCE,2914.511014760854,-8795.679664096793,7480.614779068802,11972.89073144087,-187500.02235174447,-187500.02235174447,-187500.02235174447,-187500.02235174447
$SILENCE,2802.9534581844164,-8819.774844619615,7199.832165221234,11986.681757769795,-187500.02235174447,-187500.02235174447,-187500.02235174447,-187500.02235174447
$SILENCE,2992.5186029098754,-8816.332675973497,7479.452488357126,11949.443751507253,-187500.02235174447,-187500.02235174447,-187500.02235174447,-187500.02235174447
$SILENCE,3112.2792497014107,-8786.26957968111,7782.564494915545,11937.440864734754,-187500.02235174447,-187500.02235174447,-187500.02235174447,-187500.02235174447
$SILENCE,2954.4312303580323,-8785.822544792003,7577.978977916119,11975.595292519964,-187500.02235174447,-187500.02235174447,-187500.02235174447,-187500.02235174447
$SILENCE,2800.092434894137,-8813.158728260843,7230.588165591737,11999.243438153677,-187500.02235174447,-187500.02235174447,-187500.02235174447,-187500.02235174447
$SILENCE,2951.793724512306,-8821.562984176038,7406.049359565897,11955.970460888204,-187500.02235174447,-187500.02235174447,-187500.02235174447,-187500.02235174447
$SILENCE,3115.363790436243,-8790.98579776118,7766.359480185447,11929.260126264111,-187500.02235174447,-187500.02235174447,-187500.02235174447,-187500.02235174447
$SILENCE,3004.789710615839,-8787.387166903874,7633.478359398647,11961.312527813021,-187500.02235174447,-187500.02235174447,-187500.02235174447,-187500.02235174447
$SILENCE,2825.551071828732,-8817.629077151905,7269.368442221695,11990.414499093831,-187500.02235174447,-187500.02235174447,-187500.02235174447,-187500.02235174447
$SILENCE,2906.687904201496,-8833.051780826067,7331.282774362895,11964.88880692587,-187500.02235174447,-187500.02235174447,-187500.02235174447,-187500.02235174447
$SILENCE,3104.5678978643296,-8801.245248466164,7717.967953439707,11930.377713486876,-187500.02235174447,-187500.02235174447,-187500.02235174447,-187500.02235174447
$SILENCE,3033.6458127076403,-8780.145201700354,7692.151688593828,11950.159007329823,-187500.02235174447,-187500.02235174447,-187500.02235174447,-187500.02235174447
$SILENCE,2832.5918713321535,-8805.514431657128,7309.378064796694,11987.017033936625,-187500.02235174447,-187500.02235174447,-187500.02235174447,-187500.02235174447
$SILENCE,2875.5295724307985,-8822.32294348752,7287.808631397323,11973.471876796708,-187500.02235174447,-187500.02235174447,-187500.02235174447,-187500.02235174447
$SILENCE,3100.209307695545,-8801.804042077547,7676.550170964024,11938.871376379893,-187500.02235174447,-187500.02235174447,-187500.02235174447,-187500.02235174447
$SILENCE,3076.628217295196,-8784.302626169041,7729.881433234386,11948.3708677734,-187500.02235174447,-187500.02235174447,-187500.02235174447,-187500.02235174447
$SILENCE,2874.836668352684,-8801.759338588636,7378.042623763397,11990.570961305018,-187500.02235174447,-187500.02235174447,-187500.02235174447,-187500.02235174447
$SILENCE,2843.901854026539,-8827.285030756597,7234.611479593692,11993.476688084209,-187500.02235174447,-187500.02235174447,-187500.02235174447,-187500.02235174447
$SILENCE,3066.1899526345674,-8811.281181726597,7620.782568548032,11941.486530481165,-187500.02235174447,-187500.02235174447,-187500.02235174447,-187500.02235174447
