WORD,Channel_1,Channel_2,Channel_3,Channel_4,Channel_5,Channel_6,Channel_7,Channel_8
não,927.1950634950475,-10384.709880913482,6094.337236206203,9864.383621738389,-187500.02235174447,-187500.02235174447,-187500.02235174447,-187500.02235174447
não,880.5246210723665,-10404.804099178804,6009.020627620295,9875.134810821392,-187500.02235174447,-187500.02235174447,-187500.02235174447,-187500.02235174447
não,920.2883744583577,-10398.97029387597,6048.471456583912,9848.670345386308,-187500.02235174447,-187500.02235174447,-187500.02235174447,-187500.02235174447
não,977.307674563846,-10382.072375067757,6140.381829784135,9830.498377144144,-187500.02235174447,-187500.02235174447,-187500.02235174447,-187500.02235174447
não,943.601243925243,-10381.781802389838,6114.476157960434,9860.382659480889,-187500.02235174447,-187500.02235174447,-187500.02235174447,-187500.02235174447
não,880.2340483944474,-10400.803136921304,6010.629953221078,9878.71108993424,-187500.02235174447,-187500.02235174447,-187500.02235174447,-187500.02235174447
não,903.859842283707,-10397.271561297364,6037.921433201008,9862.528426948598,-187500.02235174447,-187500.02235174447,-187500.02235174447,-187500.02235174447
não,964.5224767354104,-10380.95478784499,6130.614117457166,9838.969688292706,-187500.02235174447,-187500.02235174447,-187500.02235174447,-187500.02235174447
não,948.0715928163044,-10377.49026745442,6132.379905269135,9857.096953045959,-187500.02235174447,-187500.02235174447,-187500.02235174447,-187500.02235174447
não,877.5071355709,-10399.685549698539,6019.816520192208,9882.220313813725,-187500.02235174447,-187500.02235174447,-187500.02235174447,-187500.02235174447
não,900.3506184042238,-10402.904200900102,6023.14693011605,9863.735421149186,-187500.02235174447,-187500.02235174447,-187500.02235174447,-187500.02235174447
não,960.3427005222679,-10387.012110592379,6109.5587741802665,9836.08631325797,-187500.02235174447,-187500.02235174447,-187500.02235174447,-187500.02235174447
não,963.4495930015556,-10376.171514531556,6142.505245507389,9850.257319242635,-187500.02235174447,-187500.02235174447,-187500.02235174447,-187500.02235174447
não,888.6606560540982,-10395.170497318566,6034.14398838806,9882.399127769368,-187500.02235174447,-187500.02235174447,-187500.02235174447,-187500.02235174447
não,890.247629910425,-10402.457166010996,6015.23441257887,9868.652804929354,-187500.02235174447,-187500.02235174447,-187500.02235174447,-187500.02235174447
não,948.4292207275893,-10388.643787937617,6096.8182798407415,9842.300098216547,-187500.02235174447,-187500.02235174447,-187500.02235174447,-187500.02235174447
não,970.8703721607176,-10376.171514531556,6151.043611889317,9844.691734873264,-187500.02235174447,-187500.02235174447,-187500.02235174447,-187500.02235174447
não,896.506118357911,-10391.169535061066,6052.472418841412,9883.136735336391,-187500.02235174447,-187500.02235174447,-187500.02235174447,-187500.02235174447
não,882.8492024957184,-10403.977084633958,6009.33355204267,9874.486610232188,-187500.02235174447,-187500.02235174447,-187500.02235174447,-187500.02235174447
não,938.5273979338882,-10392.555343217295,6078.780422065309,9846.971612807705,-187500.02235174447,-187500.02235174447,-187500.02235174447,-187500.02235174447
não,980.5933809987762,-10375.143334286611,6157.436210803534,9842.85889182793,-187500.02235174447,-187500.02235174447,-187500.02235174447,-187500.02235174447
não,912.442912154545,-10385.939226858525,6078.087517987195,9879.314587034534,-187500.02235174447,-187500.02235174447,-187500.02235174447,-187500.02235174447
não,878.8482402382184,-10402.457166010996,6010.80876717672,9881.840334157985,-187500.02235174447,-187500.02235174447,-187500.02235174447,-187500.02235174447
não,929.6761071295866,-10395.639883952128,6065.101154458661,9851.732534376686,-187500.02235174447,-187500.02235174447,-187500.02235174447,-187500.02235174447
não,979.9675321540276,-10379.390165733119,6149.926024666551,9835.862795813418,-187500.02235174447,-187500.02235174447,-187500.02235174447,-187500.02235174447
não,927.2844704728687,-10384.016976835368,6094.270180972837,9867.848142128962,-187500.02235174447,-187500.02235174447,-187500.02235174447,-187500.02235174447
não,873.1932488910257,-10405.765224190382,5995.922505369485,9879.471049245722,-187500.02235174447,-187500.02235174447,-187500.02235174447,-187500.02235174447
não,917.472054656989,-10399.685549698539,6042.3470786031585,9849.899691331351,-187500.02235174447,-187500.02235174447,-187500.02235174447,-187500.02235174447
não,972.4573460170444,-10380.261883766876,6138.101951849694,9831.459502155722,-187500.02235174447,-187500.02235174447,-187500.02235174447,-187500.02235174447
não,939.242653756458,-10381.781802389838,6114.4314544715235,9858.795685624562,-187500.02235174447,-187500.02235174447,-187500.02235174447,-187500.02235174447
não,885.4196531080787,-10400.311398543286,6029.897156941553,9877.392337011379,-187500.02235174447,-187500.02235174447,-187500.02235174447,-187500.02235174447
não,909.6265923531762,-10402.2560003109,6045.096343171161,9854.325336733502,-187500.02235174447,-187500.02235174447,-187500.02235174447,-187500.02235174447
não,968.6128459707315,-10386.81094489228,6133.519844236355,9829.559603877022,-187500.02235174447,-187500.02235174447,-187500.02235174447,-187500.02235174447
não,955.9617586090278,-10381.088898311722,6143.466370518968,9849.94439482026,-187500.02235174447,-187500.02235174447,-187500.02235174447,-187500.02235174447
não,887.9006967426178,-10404.468823011974,6034.166340132516,9876.185342810792,-187500.02235174447,-187500.02235174447,-187500.02235174447,-187500.02235174447
não,904.9327260175618,-10410.436738781542,6033.00404942084,9853.900653588851,-187500.02235174447,-187500.02235174447,-187500.02235174447,-187500.02235174447
não,964.7012906910528,-10393.985854862434,6118.410064984569,9824.396350907846,-187500.02235174447,-187500.02235174447,-187500.02235174447,-187500.02235174447
não,972.3455872947678,-10382.430002979041,6156.6315480031435,9833.717028345709,-187500.02235174447,-187500.02235174447,-187500.02235174447,-187500.02235174447
não,895.992028235439,-10401.585447977239,6047.532683316789,9862.729592648697,-187500.02235174447,-187500.02235174447,-187500.02235174447,-187500.02235174447
não,899.7694730483859,-10410.906125415102,6025.873842939597,9848.223310497202,-187500.02235174447,-187500.02235174447,-187500.02235174447,-187500.02235174447
não,958.7110231770305,-10397.897410142114,6103.5685066662445,9819.166042705303,-187500.02235174447,-187500.02235174447,-187500.02235174447,-187500.02235174447
não,985.1084333787481,-10382.608816934684,6168.097992908716,9823.524632874089,-187500.02235174447,-187500.02235174447,-187500.02235174447,-187500.02235174447
não,915.9968395229388,-10399.126756087155,6071.471401628423,9855.129999533892,-187500.02235174447,-187500.02235174447,-187500.02235174447,-187500.02235174447
não,900.3953218931345,-10413.320113816275,6024.376276061092,9848.312717475024,-187500.02235174447,-187500.02235174447,-187500.02235174447,-187500.02235174447
não,951.4914097179663,-10401.831317166248,6089.665721615043,9820.238926439159,-187500.02235174447,-187500.02235174447,-187500.02235174447,-187500.02235174447
não,991.1657561261364,-10387.660311181584,6167.874475464163,9813.399292635833,-187500.02235174447,-187500.02235174447,-187500.02235174447,-187500.02235174447
não,928.4244094400894,-10397.71859618647,6092.035006527306,9849.318545975513,-187500.02235174447,-187500.02235174447,-187500.02235174447,-187500.02235174447
não,894.6509235681204,-10415.175308606065,6020.732941714877,9856.538159434576,-187500.02235174447,-187500.02235174447,-187500.02235174447,-187500.02235174447
não,940.5837584237765,-10407.508660257896,6075.762936563842,9830.587784121964,-187500.02235174447,-187500.02235174447,-187500.02235174447,-187500.02235174447
não,991.7692532264297,-10389.336692015731,6167.986234186439,9813.689865313752,-187500.02235174447,-187500.02235174447,-187500.02235174447,-187500.02235174447
não,945.9928805819608,-10394.321131029265,6122.008695841872,9843.797665095051,-187500.02235174447,-187500.02235174447,-187500.02235174447,-187500.02235174447
não,893.8239090232742,-10412.358988804697,6027.7290377293875,9850.100857031448,-187500.02235174447,-187500.02235174447,-187500.02235174447,-187500.02235174447
não,934.437028698567,-10409.408558536597,6062.195427679471,9826.206842208725,-187500.02235174447,-187500.02235174447,-187500.02235174447,-187500.02235174447
não,988.4835467914995,-10390.476630982952,6154.128152624149,9810.158289689814,-187500.02235174447,-187500.02235174447,-187500.02235174447,-187500.02235174447
não,959.6274446996981,-10388.599084448706,6139.8453879172075,9837.025086525093,-187500.02235174447,-187500.02235174447,-187500.02235174447,-187500.02235174447
não,896.4167113800897,-10410.548497503818,6035.015706421817,9856.381697223389,-187500.02235174447,-187500.02235174447,-187500.02235174447,-187500.02235174447
não,920.8471680697404,-10411.934305660046,6045.789247249276,9830.096045743949,-187500.02235174447,-187500.02235174447,-187500.02235174447,-187500.02235174447
não,985.3990060566672,-10399.082052598245,6129.496530234401,9807.967818733194,-187500.02235174447,-187500.02235174447,-187500.02235174447,-187500.02235174447
não,977.3747297972119,-10391.638921694628,6140.873568162152,9828.263202698614,-187500.02235174447,-187500.02235174447,-187500.02235174447,-187500.02235174447
não,909.2913161863466,-10407.910991658091,6049.834912995686,9854.28063324459,-187500.02235174447,-187500.02235174447,-187500.02235174447,-187500.02235174447
não,914.1639964776035,-10411.531974259851,6044.649308282055,9842.680077872286,-187500.02235174447,-187500.02235174447,-187500.02235174447,-187500.02235174447
não,970.3786337827008,-10396.936285130536,6121.204033041481,9817.020275237594,-187500.02235174447,-187500.02235174447,-187500.02235174447,-187500.02235174447
não,972.4796977614997,-10389.783726904838,6155.960995669484,9826.028028253082,-187500.02235174447,-187500.02235174447,-187500.02235174447,-187500.02235174447
não,890.6723130550758,-10407.240439324432,6052.874750241608,9858.259243757635,-187500.02235174447,-187500.02235174447,-187500.02235174447,-187500.02235174447
não,902.2952201718355,-10414.951791161513,6027.840796451664,9853.163046021826,-187500.02235174447,-187500.02235174447,-187500.02235174447,-187500.02235174447
não,975.1172036072259,-10401.697206699517,6098.807585097264,9831.23598471117,-187500.02235174447,-187500.02235174447,-187500.02235174447,-187500.02235174447
não,986.5165932794325,-10387.593255948217,6160.833675960741,9826.072731741993,-187500.02235174447,-187500.02235174447,-187500.02235174447,-187500.02235174447
não,893.8015572788188,-10394.76816591837,6069.3479859051695,9865.434153727789,-187500.02235174447,-187500.02235174447,-187500.02235174447,-187500.02235174447
não,882.1339466731486,-10411.286105070843,6011.926354399486,9860.784990881086,-187500.02235174447,-187500.02235174447,-187500.02235174447,-187500.02235174447
não,947.7139649050195,-10402.859497411191,6071.471401628423,9839.595537137453,-187500.02235174447,-187500.02235174447,-187500.02235174447,-187500.02235174447
não,986.628352001709,-10388.062642581779,6149.367231055168,9828.486720143166,-187500.02235174447,-187500.02235174447,-187500.02235174447,-187500.02235174447
não,916.9356127900617,-10395.237552551933,6086.514125646845,9872.631415442398,-187500.02235174447,-187500.02235174447,-187500.02235174447,-187500.02235174447
não,856.6976614830091,-10405.988741634936,6009.802938676231,9882.890866147383,-187500.02235174447,-187500.02235174447,-187500.02235174447,-187500.02235174447
não,913.3146301883019,-10400.758433432393,6048.046773439261,9857.812208868529,-187500.02235174447,-187500.02235174447,-187500.02235174447,-187500.02235174447
não,957.2581597874356,-10379.85955236668,6131.64229770211,9848.37977270839,-187500.02235174447,-187500.02235174447,-187500.02235174447,-187500.02235174447
não,894.0250747233719,-10380.977139589446,6098.6958263749875,9885.796592926574,-187500.02235174447,-187500.02235174447,-187500.02235174447,-187500.02235174447
não,860.6762719960537,-10399.886715398636,6006.897211897041,9904.035616402105,-187500.02235174447,-187500.02235174447,-187500.02235174447,-187500.02235174447
não,893.667446812087,-10399.171459576066,6031.5735377757,9873.57018870952,-187500.02235174447,-187500.02235174447,-187500.02235174447,-187500.02235174447
não,951.7372789069748,-10384.307549513287,6119.102969062683,9847.66451688582,-187500.02235174447,-187500.02235174447,-187500.02235174447,-187500.02235174447
não,927.083304772771,-10377.95965408798,6114.632620171621,9876.67708118881,-187500.02235174447,-187500.02235174447,-187500.02235174447,-187500.02235174447
não,841.3867165311237,-10400.132584587644,6010.898174154541,9898.045348888081,-187500.02235174447,-187500.02235174447,-187500.02235174447,-187500.02235174447
não,885.8219845082742,-10405.988741634936,6018.676581224988,9877.057060844549,-187500.02235174447,-187500.02235174447,-187500.02235174447,-187500.02235174447
não,936.8286653552849,-10386.162744303077,6097.310018218758,9854.325336733502,-187500.02235174447,-187500.02235174447,-187500.02235174447,-187500.02235174447
não,936.6945548885531,-10376.998529076402,6129.205957556482,9875.626549199409,-187500.02235174447,-187500.02235174447,-187500.02235174447,-187500.02235174447
não,860.7433272294197,-10403.641808467128,6020.464720781412,9895.29608432008,-187500.02235174447,-187500.02235174447,-187500.02235174447,-187500.02235174447
não,857.4799725389448,-10406.569886990774,5999.185860059961,9883.740232436685,-187500.02235174447,-187500.02235174447,-187500.02235174447,-187500.02235174447
não,920.5789471362767,-10390.029596093846,6082.691977344987,9859.108610046937,-187500.02235174447,-187500.02235174447,-187500.02235174447,-187500.02235174447
não,921.7412378479527,-10375.880941853637,6135.084466348228,9862.036688570583,-187500.02235174447,-187500.02235174447,-187500.02235174447,-187500.02235174447
não,859.0892981397269,-10393.53881997333,6039.798979735253,9899.654674488864,-187500.02235174447,-187500.02235174447,-187500.02235174447,-187500.02235174447
não,872.0756616682604,-10407.262791068888,6005.3102380407145,9889.663444717342,-187500.02235174447,-187500.02235174447,-187500.02235174447,-187500.02235174447
não,922.3000314593353,-10394.96933161847,6071.337291161692,9862.349612992957,-187500.02235174447,-187500.02235174447,-187500.02235174447,-187500.02235174447
não,925.7869035943633,-10376.842066865214,6135.4420942595125,9863.355441493446,-187500.02235174447,-187500.02235174447,-187500.02235174447,-187500.02235174447
não,871.6286267791542,-10388.24145653742,6048.896139728563,9905.466128047245,-187500.02235174447,-187500.02235174447,-187500.02235174447,-187500.02235174447
não,848.7851439458304,-10405.497003256918,5988.948761099429,9892.90444766336,-187500.02235174447,-187500.02235174447,-187500.02235174447,-187500.02235174447
não,913.5828511217655,-10397.53978223083,6048.784381006287,9859.399182724856,-187500.02235174447,-187500.02235174447,-187500.02235174447,-187500.02235174447
não,961.7732121674076,-10378.496095954908,6131.105855835182,9845.116418017915,-187500.02235174447,-187500.02235174447,-187500.02235174447,-187500.02235174447
não,880.1669931610816,-10380.48540121143,6072.253712684359,9880.208656812747,-187500.02235174447,-187500.02235174447,-187500.02235174447,-187500.02235174447
não,835.9775943729395,-10398.277389797853,5996.6154094476,9899.453508788767,-187500.02235174447,-187500.02235174447,-187500.02235174447,-187500.02235174447
não,875.3837198476458,-10393.114136828677,6037.9437849454625,9873.614892198431,-187500.02235174447,-187500.02235174447,-187500.02235174447,-187500.02235174447
não,935.9122438326174,-10379.613683177673,6128.02131510035,9853.878301844396,-187500.02235174447,-187500.02235174447,-187500.02235174447,-187500.02235174447
não,904.6868568285533,-10383.480534968441,6094.717215861942,9886.824773171518,-187500.02235174447,-187500.02235174447,-187500.02235174447,-187500.02235174447
não,845.5664927442662,-10400.132584587644,5997.6212379480885,9898.425328543823,-187500.02235174447,-187500.02235174447,-187500.02235174447,-187500.02235174447
não,883.0056647069055,-10398.635017709139,6030.925337186496,9869.524522963111,-187500.02235174447,-187500.02235174447,-187500.02235174447,-187500.02235174447
não,956.408793498134,-10383.480534968441,6124.422684243046,9849.743229120164,-187500.02235174447,-187500.02235174447,-187500.02235174447,-187500.02235174447
não,925.2057582385253,-10377.087936054222,6118.365361495657,9870.552703208054,-187500.02235174447,-187500.02235174447,-187500.02235174447,-187500.02235174447
não,855.4236120490566,-10398.120927586668,6010.741711943354,9888.232933072202,-187500.02235174447,-187500.02235174447,-187500.02235174447,-187500.02235174447
não,871.4051093346011,-10400.53491598784,6019.704761469932,9869.524522963111,-187500.02235174447,-187500.02235174447,-187500.02235174447,-187500.02235174447
não,939.8461508567514,-10388.800250148804,6097.287666474303,9839.550833648544,-187500.02235174447,-187500.02235174447,-187500.02235174447,-187500.02235174447
não,946.9093021046284,-10379.948959344501,6128.714219178465,9857.655746657341,-187500.02235174447,-187500.02235174447,-187500.02235174447,-187500.02235174447
não,866.5994842767101,-10397.204506064,6026.902023184541,9889.059947617048,-187500.02235174447,-187500.02235174447,-187500.02235174447,-187500.02235174447
não,880.5246210723665,-10406.167555590577,6010.026456120784,9871.089145074982,-187500.02235174447,-187500.02235174447,-187500.02235174447,-187500.02235174447
não,933.9899938094609,-10391.34834901671,6083.563695378744,9842.165987749815,-187500.02235174447,-187500.02235174447,-187500.02235174447,-187500.02235174447
não,951.5808166957876,-10376.931473843035,6139.3760012836465,9853.543025677565,-187500.02235174447,-187500.02235174447,-187500.02235174447,-187500.02235174447
não,878.4459088380229,-10396.511601985885,6044.67166002651,9883.583770225498,-187500.02235174447,-187500.02235174447,-187500.02235174447,-187500.02235174447
não,866.2642081098805,-10407.173384091066,6001.6669036944995,9872.094973575471,-187500.02235174447,-187500.02235174447,-187500.02235174447,-187500.02235174447
não,915.2815837003689,-10392.734157172938,6064.520009102823,9849.09502853096,-187500.02235174447,-187500.02235174447,-187500.02235174447,-187500.02235174447
não,949.7256219059971,-10376.707956398483,6137.364344282669,9844.512920917621,-187500.02235174447,-187500.02235174447,-187500.02235174447,-187500.02235174447
não,885.9560949750061,-10389.58256120474,6061.815448023731,9882.332072536,-187500.02235174447,-187500.02235174447,-187500.02235174447,-187500.02235174447
não,863.7384609864308,-10406.994570135425,6000.459909493913,9878.979310867704,-187500.02235174447,-187500.02235174447,-187500.02235174447,-187500.02235174447
não,911.0794557427712,-10396.444546752518,6062.195427679471,9853.900653588851,-187500.02235174447,-187500.02235174447,-187500.02235174447,-187500.02235174447
não,962.9355028790835,-10380.86538086717,6143.064039118772,9843.618851139408,-187500.02235174447,-187500.02235174447,-187500.02235174447,-187500.02235174447
não,912.6440778546427,-10387.14622105911,6087.139974491593,9873.614892198431,-187500.02235174447,-187500.02235174447,-187500.02235174447,-187500.02235174447
não,863.4702400529671,-10404.312360800786,6002.985656617362,9885.438965015288,-187500.02235174447,-187500.02235174447,-187500.02235174447,-187500.02235174447
não,892.3486938892239,-10397.29391304182,6038.904909957041,9857.633394912888,-187500.02235174447,-187500.02235174447,-187500.02235174447,-187500.02235174447
não,953.9277498635948,-10381.044194822813,6127.417818000057,9840.08727551547,-187500.02235174447,-187500.02235174447,-187500.02235174447,-187500.02235174447
não,912.3982086656343,-10383.43583147953,6091.722082104931,9872.542008464576,-187500.02235174447,-187500.02235174447,-187500.02235174447,-187500.02235174447
não,863.2467226084141,-10405.049968367812,5994.38023500207,9883.583770225498,-187500.02235174447,-187500.02235174447,-187500.02235174447,-187500.02235174447
não,895.0979584572266,-10402.971256133469,6033.138159887571,9868.04930782906,-187500.02235174447,-187500.02235174447,-187500.02235174447,-187500.02235174447
não,923.7752465933856,-10382.38529949013,6113.82795737123,9844.535272662077,-187500.02235174447,-187500.02235174447,-187500.02235174447,-187500.02235174447
não,909.7383510754528,-10371.924683085046,6101.266276987348,9852.09016228797,-187500.02235174447,-187500.02235174447,-187500.02235174447,-187500.02235174447
não,859.1116498841823,-10405.094671856723,5995.475470480379,9873.212560798236,-187500.02235174447,-187500.02235174447,-187500.02235174447,-187500.02235174447
não,894.1368334456484,-10413.275410327366,6018.944802158452,9874.017223598627,-187500.02235174447,-187500.02235174447,-187500.02235174447,-187500.02235174447
não,954.7324126639859,-10391.996549605912,6097.511183918856,9843.060057528026,-187500.02235174447,-187500.02235174447,-187500.02235174447,-187500.02235174447
não,960.5215144779104,-10380.48540121143,6124.556794709778,9849.787932609073,-187500.02235174447,-187500.02235174447,-187500.02235174447,-187500.02235174447
não,871.3604058456905,-10393.695282184515,6020.3976655480465,9889.775203439618,-187500.02235174447,-187500.02235174447,-187500.02235174447,-187500.02235174447
não,850.8638561801739,-10393.941151373525,5999.632894949066,9883.628473714409,-187500.02235174447,-187500.02235174447,-187500.02235174447,-187500.02235174447
não,889.1970979210256,-10376.95382558749,6072.700747573465,9854.437095455778,-187500.02235174447,-187500.02235174447,-187500.02235174447,-187500.02235174447
não,928.6926303735531,-10368.884845839126,6137.096123349205,9869.166895051825,-187500.02235174447,-187500.02235174447,-187500.02235174447,-187500.02235174447
não,861.9503214300063,-10390.297817027309,6035.865072711119,9896.90540992086,-187500.02235174447,-187500.02235174447,-187500.02235174447,-187500.02235174447
não,863.9843301754393,-10408.849764925215,5981.773851129276,9870.19507529677,-187500.02235174447,-187500.02235174447,-187500.02235174447,-187500.02235174447
não,921.9647552925057,-10397.517430486374,6052.807695008242,9844.80349359554,-187500.02235174447,-187500.02235174447,-187500.02235174447,-187500.02235174447
não,951.7149271625194,-10381.535933200828,6132.156387824582,9845.18347325128,-187500.02235174447,-187500.02235174447,-187500.02235174447,-187500.02235174447
não,883.1397751736373,-10393.605875206695,6061.279006156803,9887.249456316169,-187500.02235174447,-187500.02235174447,-187500.02235174447,-187500.02235174447
não,845.4770857664449,-10410.34733180372,5994.022607090785,9888.47880226121,-187500.02235174447,-187500.02235174447,-187500.02235174447,-187500.02235174447
não,887.4313101090563,-10401.831317166248,6045.453971082446,9854.48179894469,-187500.02235174447,-187500.02235174447,-187500.02235174447,-187500.02235174447
não,928.2232437399917,-10383.502886712897,6125.607326699177,9844.222348239702,-187500.02235174447,-187500.02235174447,-187500.02235174447,-187500.02235174447
não,871.829792479252,-10387.593255948217,6074.2206661964265,9878.129944578403,-187500.02235174447,-187500.02235174447,-187500.02235174447,-187500.02235174447
não,810.2060330159704,-10401.518392743874,5983.003197074318,9881.99679636917,-187500.02235174447,-187500.02235174447,-187500.02235174447,-187500.02235174447
não,852.02614689185,-10395.729290929949,6021.4481975374465,9860.606176925443,-187500.02235174447,-187500.02235174447,-187500.02235174447,-187500.02235174447
não,909.6489440976316,-10379.233703521932,6112.509204448367,9846.099894773948,-187500.02235174447,-187500.02235174447,-187500.02235174447,-187500.02235174447
não,875.4284233365564,-10379.680738411038,6092.34793094968,9868.4292874848,-187500.02235174447,-187500.02235174447,-187500.02235174447,-187500.02235174447
não,815.8386726187077,-10399.86436365418,6000.146985071538,9892.39035754089,-187500.02235174447,-187500.02235174447,-187500.02235174447,-187500.02235174447
não,839.7773909303417,-10397.472726997463,6015.86026142362,9871.446772986266,-187500.02235174447,-187500.02235174447,-187500.02235174447,-187500.02235174447
não,900.0823974707602,-10379.501924455397,6097.667646130043,9848.692697130764,-187500.02235174447,-187500.02235174447,-187500.02235174447,-187500.02235174447
não,895.2097171795032,-10376.506790698384,6106.474233445434,9870.70916541924,-187500.02235174447,-187500.02235174447,-187500.02235174447,-187500.02235174447
não,818.4314749755234,-10396.466898496974,5994.3355315131585,9885.729537693207,-187500.02235174447,-187500.02235174447,-187500.02235174447,-187500.02235174447
não,824.0194110893502,-10400.1549363321,5991.4521564784245,9866.66349967283,-187500.02235174447,-187500.02235174447,-187500.02235174447,-187500.02235174447
não,875.0707954252715,-10383.77110764636,6070.15264870556,9841.875415071896,-187500.02235174447,-187500.02235174447,-187500.02235174447,-187500.02235174447
não,888.2136211649921,-10375.545665686806,6115.861966116663,9863.578958937998,-187500.02235174447,-187500.02235174447,-187500.02235174447,-187500.02235174447
não,818.9455650979954,-10390.677796683049,6011.367560788102,9898.224162843724,-187500.02235174447,-187500.02235174447,-187500.02235174447,-187500.02235174447
não,812.3741522281352,-10395.036386851834,5980.052766806218,9881.99679636917,-187500.02235174447,-187500.02235174447,-187500.02235174447,-187500.02235174447
não,868.0523476663051,-10381.24536052291,6056.808657265742,9857.85691235744,-187500.02235174447,-187500.02235174447,-187500.02235174447,-187500.02235174447
não,890.8958304996289,-10366.962595815969,6115.8396143722075,9862.23785427068,-187500.02235174447,-187500.02235174447,-187500.02235174447,-187500.02235174447
não,821.3372017547133,-10385.894523369614,6018.788339947265,9893.798517441573,-187500.02235174447,-187500.02235174447,-187500.02235174447,-187500.02235174447
não,802.0476462897833,-10396.891581641625,5969.145115512028,9885.81894467103,-187500.02235174447,-187500.02235174447,-187500.02235174447,-187500.02235174447
não,855.1106876266823,-10381.982968089935,6032.825235465198,9862.416668226322,-187500.02235174447,-187500.02235174447,-187500.02235174447,-187500.02235174447
não,899.9482870040283,-10367.0967062827,6115.8396143722075,9861.254377514646,-187500.02235174447,-187500.02235174447,-187500.02235174447,-187500.02235174447
não,837.0281263623389,-10380.083069811233,6046.5715583052115,9892.949151152272,-187500.02235174447,-187500.02235174447,-187500.02235174447,-187500.02235174447
não,795.1856607420041,-10398.120927586668,5969.390984701036,9897.19598259878,-187500.02235174447,-187500.02235174447,-187500.02235174447,-187500.02235174447
não,835.0164693613613,-10388.308511770787,6014.362694545114,9870.262130530135,-187500.02235174447,-187500.02235174447,-187500.02235174447,-187500.02235174447
não,885.8890397416401,-10370.740040628916,6103.613210155155,9858.23689201318,-187500.02235174447,-187500.02235174447,-187500.02235174447,-187500.02235174447
não,843.0407456208164,-10375.120982542156,6059.870846256119,9890.982197640205,-187500.02235174447,-187500.02235174447,-187500.02235174447,-187500.02235174447
não,791.0058845288617,-10393.069433339768,5969.279225978759,9899.587619255499,-187500.02235174447,-187500.02235174447,-187500.02235174447,-187500.02235174447
não,824.1311698116267,-10387.190924548022,6005.7796246742755,9880.745098679674,-187500.02235174447,-187500.02235174447,-187500.02235174447,-187500.02235174447
não,877.2612663818916,-10369.197770261499,6096.572410651733,9865.85883687244,-187500.02235174447,-187500.02235174447,-187500.02235174447,-187500.02235174447
não,847.1087631116824,-10368.393107461108,6081.484983144401,9892.591523240986,-187500.02235174447,-187500.02235174447,-187500.02235174447,-187500.02235174447
não,782.2887041912919,-10390.119003071666,5973.973092314374,9906.315494336546,-187500.02235174447,-187500.02235174447,-187500.02235174447,-187500.02235174447
não,803.0758265347274,-10389.783726904838,5981.975016829374,9881.125078335415,-187500.02235174447,-187500.02235174447,-187500.02235174447,-187500.02235174447
não,870.3545773452017,-10374.361023230675,6072.656044084554,9861.544950192565,-187500.02235174447,-187500.02235174447,-187500.02235174447,-187500.02235174447
não,864.6772342535537,-10367.119058027156,6094.136070506104,9883.293197547579,-187500.02235174447,-187500.02235174447,-187500.02235174447,-187500.02235174447
não,789.4859659059008,-10386.274503025354,5985.484240708857,9906.76252922565,-187500.02235174447,-187500.02235174447,-187500.02235174447,-187500.02235174447
não,794.5151084083449,-10389.068471082268,5972.587284158145,9887.607084227453,-187500.02235174447,-187500.02235174447,-187500.02235174447,-187500.02235174447
não,852.540237014322,-10377.423212221052,6051.131314174094,9860.583825180987,-187500.02235174447,-187500.02235174447,-187500.02235174447,-187500.02235174447
não,874.5790570472548,-10373.936340086024,6096.415948440546,9867.356403750946,-187500.02235174447,-187500.02235174447,-187500.02235174447,-187500.02235174447
não,818.5879371867105,-10393.337654273231,6000.973999616385,9904.236782102202,-187500.02235174447,-187500.02235174447,-187500.02235174447,-187500.02235174447
não,822.3877337441128,-10403.44064276703,5977.884647594053,9897.575962254521,-187500.02235174447,-187500.02235174447,-187500.02235174447,-187500.02235174447
não,870.6451500231207,-10388.24145653742,6043.7552385038425,9868.161066551336,-187500.02235174447,-187500.02235174447,-187500.02235174447,-187500.02235174447
não,897.0202084803831,-10370.829447606737,6105.043721800294,9867.937549106784,-187500.02235174447,-187500.02235174447,-187500.02235174447,-187500.02235174447
não,836.4246292620456,-10384.978101846946,6021.090569626162,9905.689645491797,-187500.02235174447,-187500.02235174447,-187500.02235174447,-187500.02235174447
não,816.3751144856352,-10401.317227043775,5971.46969693538,9901.062834389548,-187500.02235174447,-187500.02235174447,-187500.02235174447,-187500.02235174447
não,862.4197080635677,-10387.280331525842,6029.025438907795,9874.643072443376,-187500.02235174447,-187500.02235174447,-187500.02235174447,-187500.02235174447
não,897.8472230252294,-10364.973290559446,6107.010675312362,9867.356403750946,-187500.02235174447,-187500.02235174447,-187500.02235174447,-187500.02235174447
não,830.4343617480233,-10373.57871217474,6039.396648335058,9904.616761757941,-187500.02235174447,-187500.02235174447,-187500.02235174447,-187500.02235174447
não,794.3362944527024,-10393.851744395703,5970.329757968158,9913.512756051154,-187500.02235174447,-187500.02235174447,-187500.02235174447,-187500.02235174447
não,832.8259984047412,-10386.900351870103,6013.267459066804,9885.81894467103,-187500.02235174447,-187500.02235174447,-187500.02235174447,-187500.02235174447
não,883.9891414629391,-10371.567055173762,6099.165213008549,9868.317528762524,-187500.02235174447,-187500.02235174447,-187500.02235174447,-187500.02235174447
não,843.4877805099226,-10374.808058119781,6062.955386990951,9904.348540824478,-187500.02235174447,-187500.02235174447,-187500.02235174447,-187500.02235174447
não,796.0350270313057,-10394.76816591837,5969.905074823508,9920.508852065666,-187500.02235174447,-187500.02235174447,-187500.02235174447,-187500.02235174447
não,825.0475913342943,-10392.644750195117,5996.95068561443,9892.613874985442,-187500.02235174447,-187500.02235174447,-187500.02235174447,-187500.02235174447
não,876.6130657926877,-10374.361023230675,6087.519954147334,9867.825790384506,-187500.02235174447,-187500.02235174447,-187500.02235174447,-187500.02235174447
$SILENCE,852.0037951473946,-10370.896502840103,6073.728927818409,9890.736328451196,-187500.02235174447,-187500.02235174447,-187500.02235174447,-187500.02235174447
$SILENCE,792.123471751627,-10394.365834518176,5966.865237577586,9914.429177573822,-187500.02235174447,-187500.02235174447,-187500.02235174447,-187500.02235174447
$SILENCE,814.184643529015,-10392.085956583735,5982.265589507293,9894.066738375037,-187500.02235174447,-187500.02235174447,-187500.02235174447,-187500.02235174447
$SILENCE,866.7782982323525,-10372.48347669643,6069.5267998608115,9869.837447385484,-187500.02235174447,-187500.02235174447,-187500.02235174447,-187500.02235174447
$SILENCE,862.4644115524783,-10366.426153949042,6088.503430903367,9886.936531893794,-187500.02235174447,-187500.02235174447,-187500.02235174447,-187500.02235174447
$SILENCE,797.1973177429817,-10388.57673270425,5983.584342430156,9915.09972990748,-187500.02235174447,-187500.02235174447,-187500.02235174447,-187500.02235174447
$SILENCE,810.0942742936938,-10397.450375253007,5976.521191182279,9898.648845988375,-187500.02235174447,-187500.02235174447,-187500.02235174447,-187500.02235174447
$SILENCE,867.3594435881905,-10382.161782045578,6057.76978227732,9876.654729444354,-187500.02235174447,-187500.02235174447,-187500.02235174447,-187500.02235174447
$SILENCE,879.1611646605927,-10369.398935961597,6104.775500866831,9888.903485405861,-187500.02235174447,-187500.02235174447,-187500.02235174447,-187500.02235174447
$SILENCE,808.4849486929118,-10385.000453591401,6001.979828116873,9920.397093343388,-187500.02235174447,-187500.02235174447,-187500.02235174447,-187500.02235174447
$SILENCE,798.7172363659425,-10394.142317073622,5967.424031188969,9907.880116448418,-187500.02235174447,-187500.02235174447,-187500.02235174447,-187500.02235174447
$SILENCE,847.8687224231628,-10382.027671578846,6036.602680278144,9874.352499765457,-187500.02235174447,-187500.02235174447,-187500.02235174447,-187500.02235174447
$SILENCE,874.3331878582463,-10366.806133604781,6104.954314822473,9874.441906743277,-187500.02235174447,-187500.02235174447,-187500.02235174447,-187500.02235174447
$SILENCE,819.9513935984843,-10384.218142535467,6020.576479503689,9908.304799593068,-187500.02235174447,-187500.02235174447,-187500.02235174447,-187500.02235174447
$SILENCE,803.2993439792805,-10401.808965421793,5964.250083476315,9907.366026325944,-187500.02235174447,-187500.02235174447,-187500.02235174447,-187500.02235174447
$SILENCE,851.087373624727,-10391.527162972352,6023.19163360496,9883.628473714409,-187500.02235174447,-187500.02235174447,-187500.02235174447,-187500.02235174447
$SILENCE,896.8860980136512,-10374.830409864237,6105.222535755937,9882.28736904709,-187500.02235174447,-187500.02235174447,-187500.02235174447,-187500.02235174447
$SILENCE,838.3245275407467,-10379.323110499754,6041.475360569401,9912.81985197304,-187500.02235174447,-187500.02235174447,-187500.02235174447,-187500.02235174447
$SILENCE,792.4587479184567,-10396.779822919349,5961.6349293750445,9911.165822883348,-187500.02235174447,-187500.02235174447,-187500.02235174447,-187500.02235174447
$SILENCE,834.5694344722551,-10393.270599039864,6008.506537497823,9887.137697593893,-187500.02235174447,-187500.02235174447,-187500.02235174447,-187500.02235174447
$SILENCE,878.5129640713888,-10374.025747063846,6095.633637384611,9878.375813767412,-187500.02235174447,-187500.02235174447,-187500.02235174447,-187500.02235174447
$SILENCE,837.4081060180791,-10373.936340086024,6057.38980262158,9908.215392615246,-187500.02235174447,-187500.02235174447,-187500.02235174447,-187500.02235174447
$SILENCE,794.9397915529956,-10397.830354908749,5960.494990407824,9918.38543634241,-187500.02235174447,-187500.02235174447,-187500.02235174447,-187500.02235174447
$SILENCE,835.6870216950205,-10397.450375253007,5992.480336723368,9895.966636653739,-187500.02235174447,-187500.02235174447,-187500.02235174447,-187500.02235174447
$SILENCE,882.0445396953273,-10376.596197676206,6080.590913366189,9872.296139275568,-187500.02235174447,-187500.02235174447,-187500.02235174447,-187500.02235174447
$SILENCE,861.4585830519895,-10371.343537729208,6072.387823151091,9890.892790662383,-187500.02235174447,-187500.02235174447,-187500.02235174447,-187500.02235174447
$SILENCE,798.4937189213895,-10394.701110685004,5963.333661953648,9909.422386815833,-187500.02235174447,-187500.02235174447,-187500.02235174447,-187500.02235174447
$SILENCE,819.7055244094759,-10398.567962475772,5975.649473148522,9887.71884294973,-187500.02235174447,-187500.02235174447,-187500.02235174447,-187500.02235174447
$SILENCE,876.6577692815983,-10379.904255855592,6065.43643062549,9868.541046207076,-187500.02235174447,-187500.02235174447,-187500.02235174447,-187500.02235174447
$SILENCE,876.0319204368498,-10367.566092916262,6094.828974584219,9889.931665650805,-187500.02235174447,-187500.02235174447,-187500.02235174447,-187500.02235174447
$SILENCE,802.7405503678979,-10389.962540860479,5986.266551764793,9917.938401453304,-187500.02235174447,-187500.02235174447,-187500.02235174447,-187500.02235174447
$SILENCE,811.994172572395,-10394.76816591837,5972.18495275795,9907.030750159116,-187500.02235174447,-187500.02235174447,-187500.02235174447,-187500.02235174447
$SILENCE,865.8842284541403,-10380.641863422617,6051.533645574289,9880.633339957398,-187500.02235174447,-187500.02235174447,-187500.02235174447,-187500.02235174447
$SILENCE,878.2447431379251,-10370.449467950997,6099.20991649746,9881.460354502244,-187500.02235174447,-187500.02235174447,-187500.02235174447,-187500.02235174447
$SILENCE,807.9708585704396,-10389.426098993552,5996.481298980868,9919.01128518716,-187500.02235174447,-187500.02235174447,-187500.02235174447,-187500.02235174447
$SILENCE,804.4169312020459,-10401.496040999418,5958.908016551497,9911.679913005819,-187500.02235174447,-187500.02235174447,-187500.02235174447,-187500.02235174447
$SILENCE,853.2554928368918,-10388.554380959795,6031.618241264611,9883.583770225498,-187500.02235174447,-187500.02235174447,-187500.02235174447,-187500.02235174447
$SILENCE,892.1251764446708,-10372.215255762965,6107.837689857208,9880.275712046112,-187500.02235174447,-187500.02235174447,-187500.02235174447,-187500.02235174447
$SILENCE,827.5509867132887,-10387.43679373703,6022.923412671496,9914.026846173627,-187500.02235174447,-187500.02235174447,-187500.02235174447,-187500.02235174447
$SILENCE,795.7221026089314,-10402.926552644558,5962.506647408802,9911.523450794632,-187500.02235174447,-187500.02235174447,-187500.02235174447,-187500.02235174447
$SILENCE,841.6102339756768,-10394.611703707184,6022.141101615561,9884.746060937174,-187500.02235174447,-187500.02235174447,-187500.02235174447,-187500.02235174447
$SILENCE,891.8122520222965,-10375.947997087002,6107.6812276460205,9876.922950377817,-187500.02235174447,-187500.02235174447,-187500.02235174447,-187500.02235174447
$SILENCE,842.6384142206209,-10384.464011724474,6048.650270539555,9911.143471138892,-187500.02235174447,-187500.02235174447,-187500.02235174447,-187500.02235174447
$SILENCE,798.6054776436661,-10402.72538694446,5965.255911976804,9915.792633985595,-187500.02235174447,-187500.02235174447,-187500.02235174447,-187500.02235174447
$SILENCE,838.8833211521294,-10397.226857808455,6005.533755485268,9887.450622016266,-187500.02235174447,-187500.02235174447,-187500.02235174447,-187500.02235174447
$SILENCE,891.2311066664585,-10378.786668632827,6093.39846293908,9871.893807875373,-187500.02235174447,-187500.02235174447,-187500.02235174447,-187500.02235174447
$SILENCE,858.9998911619057,-10382.877037868147,6070.934959761496,9912.953962439771,-187500.02235174447,-187500.02235174447,-187500.02235174447,-187500.02235174447
$SILENCE,806.6297539031212,-10405.899334657113,5976.968226071385,9929.538956825609,-187500.02235174447,-187500.02235174447,-187500.02235174447,-187500.02235174447
$SILENCE,840.1573705860819,-10406.972218390969,6002.449214750435,9897.419500043334,-187500.02235174447,-187500.02235174447,-187500.02235174447,-187500.02235174447
$SILENCE,894.3827026346568,-10388.889657126625,6090.090404759694,9871.223255541714,-187500.02235174447,-187500.02235174447,-187500.02235174447,-187500.02235174447
$SILENCE,880.0105309498944,-10381.58063668974,6091.543268149289,9896.547782009577,-187500.02235174447,-187500.02235174447,-187500.02235174447,-187500.02235174447
$SILENCE,805.2662974913476,-10402.971256133469,5980.253932506315,9916.463186319255,-187500.02235174447,-187500.02235174447,-187500.02235174447,-187500.02235174447
$SILENCE,822.1642162995597,-10408.000398635913,5984.5901709306445,9899.878191933418,-187500.02235174447,-187500.02235174447,-187500.02235174447,-187500.02235174447
$SILENCE,889.89000199914,-10392.331825772742,6072.879561529107,9876.364156766434,-187500.02235174447,-187500.02235174447,-187500.02235174447,-187500.02235174447
$SILENCE,896.0143799798942,-10380.083069811233,6107.278896245825,9888.635264472397,-187500.02235174447,-187500.02235174447,-187500.02235174447,-187500.02235174447
$SILENCE,818.9455650979954,-10400.601971221206,5995.408415247013,9915.122081651936,-187500.02235174447,-187500.02235174447,-187500.02235174447,-187500.02235174447
$SILENCE,815.9727830854396,-10412.873078927169,5965.479429421357,9900.124061122426,-187500.02235174447,-187500.02235174447,-187500.02235174447,-187500.02235174447
$SILENCE,883.5644583182882,-10398.67972119805,6062.15072419056,9873.19020905378,-187500.02235174447,-187500.02235174447,-187500.02235174447,-187500.02235174447
$SILENCE,903.278696927869,-10383.972273346457,6105.960143322962,9883.695528947776,-187500.02235174447,-187500.02235174447,-187500.02235174447,-187500.02235174447
$SILENCE,841.9455101425065,-10397.740947930926,6019.4588922809235,9910.629381016419,-187500.02235174447,-187500.02235174447,-187500.02235174447,-187500.02235174447
$SILENCE,824.9805361009284,-10409.63207598115,5978.264627249793,9902.850973945973,-187500.02235174447,-187500.02235174447,-187500.02235174447,-187500.02235174447
$SILENCE,877.440080337534,-10398.72442468696,6045.431619337991,9876.319453277523,-187500.02235174447,-187500.02235174447,-187500.02235174447,-187500.02235174447
$SILENCE,912.0182290098941,-10384.1510873021,6117.471291717446,9870.262130530135,-187500.02235174447,-187500.02235174447,-187500.02235174447,-187500.02235174447
$SILENCE,845.700603210998,-10394.611703707184,6035.999183177851,9905.466128047245,-187500.02235174447,-187500.02235174447,-187500.02235174447,-187500.02235174447
$SILENCE,816.9786115859284,-10411.531974259851,5971.894380080031,9906.918991436838,-187500.02235174447,-187500.02235174447,-187500.02235174447,-187500.02235174447
$SILENCE,864.5207720423666,-10401.160764832588,6028.310183085226,9881.10272659096,-187500.02235174447,-187500.02235174447,-187500.02235174447,-187500.02235174447
$SILENCE,906.9667347629946,-10382.251189023398,6114.476157960434,9870.105668318947,-187500.02235174447,-187500.02235174447,-187500.02235174447,-187500.02235174447
$SILENCE,849.3886410461237,-10389.493154226919,6059.423811367013,9904.147375124381,-187500.02235174447,-187500.02235174447,-187500.02235174447,-187500.02235174447
$SILENCE,806.8532713476743,-10407.910991658091,5972.22965624686,9912.350465339478,-187500.02235174447,-187500.02235174447,-187500.02235174447,-187500.02235174447
$SILENCE,846.6393764781209,-10403.15007008911,6013.088645111161,9888.881133661405,-187500.02235174447,-187500.02235174447,-187500.02235174447,-187500.02235174447
$SILENCE,907.1679004630925,-10386.72153791446,6105.088425289206,9870.463296230233,-187500.02235174447,-187500.02235174447,-187500.02235174447,-187500.02235174447
$SILENCE,878.6470745381206,-10385.849819880703,6081.552038377767,9900.280523333613,-187500.02235174447,-187500.02235174447,-187500.02235174447,-187500.02235174447
$SILENCE,815.9727830854396,-10406.793404435326,5979.046938305729,9915.81498573005,-187500.02235174447,-187500.02235174447,-187500.02235174447,-187500.02235174447
$SILENCE,843.5324839988332,-10407.15103234661,5998.5600112152115,9891.116308106937,-187500.02235174447,-187500.02235174447,-187500.02235174447,-187500.02235174447
$SILENCE,900.7753015488746,-10388.24145653742,6087.96698903644,9867.043479328571,-187500.02235174447,-187500.02235174447,-187500.02235174447,-187500.02235174447
$SILENCE,887.6771792980647,-10383.86051462418,6097.39942519658,9890.088127861993,-187500.02235174447,-187500.02235174447,-187500.02235174447,-187500.02235174447
$SILENCE,818.6102889311659,-10405.407596279098,5987.965284343396,9913.311590351057,-187500.02235174447,-187500.02235174447,-187500.02235174447,-187500.02235174447
$SILENCE,834.6811931945316,-10409.654427725605,5989.440499477447,9895.229029086713,-187500.02235174447,-187500.02235174447,-187500.02235174447,-187500.02235174447
$SILENCE,891.8569555112072,-10396.623360708161,6072.723099317921,9869.792743896574,-187500.02235174447,-187500.02235174447,-187500.02235174447,-187500.02235174447
$SILENCE,896.0590834688048,-10383.033500079335,6109.44701545799,9886.847124915974,-187500.02235174447,-187500.02235174447,-187500.02235174447,-187500.02235174447
$SILENCE,823.9747076004396,-10400.91489564358,6005.6008107186335,9924.465110834255,-187500.02235174447,-187500.02235174447,-187500.02235174447,-187500.02235174447
$SILENCE,827.3721727576462,-10409.520317258874,5981.572685429178,9907.991875170694,-187500.02235174447,-187500.02235174447,-187500.02235174447,-187500.02235174447
$SILENCE,885.2184874079809,-10395.706939185493,6057.613320066133,9877.884075389395,-187500.02235174447,-187500.02235174447,-187500.02235174447,-187500.02235174447
$SILENCE,910.408903409112,-10381.58063668974,6117.046608572795,9877.392337011379,-187500.02235174447,-187500.02235174447,-187500.02235174447,-187500.02235174447
$SILENCE,838.0339548628277,-10396.601008963706,6019.347133558647,9912.573982784032,-187500.02235174447,-187500.02235174447,-187500.02235174447,-187500.02235174447
$SILENCE,822.410085488568,-10411.48727077094,5977.527019682768,9909.556497282565,-187500.02235174447,-187500.02235174447,-187500.02235174447,-187500.02235174447
$SILENCE,874.9366849585397,-10398.43385200904,6045.565729804723,9881.750927180163,-187500.02235174447,-187500.02235174447,-187500.02235174447,-187500.02235174447
$SILENCE,913.9851825219611,-10379.636034922129,6121.673419675043,9876.185342810792,-187500.02235174447,-187500.02235174447,-187500.02235174447,-187500.02235174447
$SILENCE,852.6296439921432,-10390.029596093846,6045.00693619334,9913.691570006797,-187500.02235174447,-187500.02235174447,-187500.02235174447,-187500.02235174447
$SILENCE,811.9494690834844,-10410.414387037086,5964.920635809975,9920.620610787942,-187500.02235174447,-187500.02235174447,-187500.02235174447,-187500.02235174447
$SILENCE,867.828830221752,-10399.931418887547,6029.517177285812,9885.640130715386,-187500.02235174447,-187500.02235174447,-187500.02235174447,-187500.02235174447
$SILENCE,922.3223832037907,-10380.440697722519,6124.668553432054,9872.296139275568,-187500.02235174447,-187500.02235174447,-187500.02235174447,-187500.02235174447
$SILENCE,866.0853941542381,-10386.274503025354,6066.911645759541,9907.276619348124,-187500.02235174447,-187500.02235174447,-187500.02235174447,-187500.02235174447
$SILENCE,814.6763819070318,-10407.642770724628,5976.498839437823,9920.330038110023,-187500.02235174447,-187500.02235174447,-187500.02235174447,-187500.02235174447
$SILENCE,850.7744492023527,-10403.373587533664,6015.256764323326,9900.213468100246,-187500.02235174447,-187500.02235174447,-187500.02235174447,-187500.02235174447
$SILENCE,910.922993531584,-10382.541761701317,6109.625829413632,9883.136735336391,-187500.02235174447,-187500.02235174447,-187500.02235174447,-187500.02235174447
$SILENCE,885.9784467194613,-10384.329901257743,6091.878544316119,9904.460299546756,-187500.02235174447,-187500.02235174447,-187500.02235174447,-187500.02235174447
$SILENCE,824.6229081896435,-10407.531012002351,5986.221848275883,9919.458320076266,-187500.02235174447,-187500.02235174447,-187500.02235174447,-187500.02235174447
$SILENCE,846.8405421782187,-10406.43577652404,6000.571668216189,9891.406880784856,-187500.02235174447,-187500.02235174447,-187500.02235174447,-187500.02235174447
$SILENCE,906.2514789404248,-10390.588389705228,6087.139974491593,9870.463296230233,-187500.02235174447,-187500.02235174447,-187500.02235174447,-187500.02235174447
$SILENCE,899.2553829259138,-10385.089860569222,6099.768710108842,9894.62553198642,-187500.02235174447,-187500.02235174447,-187500.02235174447,-187500.02235174447
$SILENCE,825.2040535454814,-10407.218087579977,5990.580438444667,9914.38447408491,-187500.02235174447,-187500.02235174447,-187500.02235174447,-187500.02235174447
$SILENCE,841.2749578088473,-10413.58833474974,5989.552258199723,9893.463241274743,-187500.02235174447,-187500.02235174447,-187500.02235174447,-187500.02235174447
$SILENCE,899.5012521149221,-10395.103442085201,6074.801811552265,9870.776220652608,-187500.02235174447,-187500.02235174447,-187500.02235174447,-187500.02235174447
$SILENCE,905.2456504399361,-10380.440697722519,6117.2477742728925,9883.561418481042,-187500.02235174447,-187500.02235174447,-187500.02235174447,-187500.02235174447
$SILENCE,834.0106408608724,-10401.183116577044,6012.842775922153,9914.317418851546,-187500.02235174447,-187500.02235174447,-187500.02235174447,-187500.02235174447
$SILENCE,830.1661408145596,-10410.257924825899,5983.249066263326,9897.86653493244,-187500.02235174447,-187500.02235174447,-187500.02235174447,-187500.02235174447
$SILENCE,888.9512287320172,-10399.171459576066,6054.10409618665,9869.077488074005,-187500.02235174447,-187500.02235174447,-187500.02235174447,-187500.02235174447
$SILENCE,919.5284151468773,-10385.268674524865,6118.901803362585,9875.76065966614,-187500.02235174447,-187500.02235174447,-187500.02235174447,-187500.02235174447
$SILENCE,852.3614230586795,-10398.0538723533,6032.66877325401,9915.591468285498,-187500.02235174447,-187500.02235174447,-187500.02235174447,-187500.02235174447
$SILENCE,835.1058763391825,-10413.431872538553,5977.392909216036,9902.068662890037,-187500.02235174447,-187500.02235174447,-187500.02235174447,-187500.02235174447
$SILENCE,878.9376472160396,-10403.083014855745,6031.484130797879,9865.702374661252,-187500.02235174447,-187500.02235174447,-187500.02235174447,-187500.02235174447
$SILENCE,922.9258803040839,-10385.536895458328,6113.82795737123,9863.556607193543,-187500.02235174447,-187500.02235174447,-187500.02235174447,-187500.02235174447
$SILENCE,863.4255365640565,-10390.186058305033,6048.516160072823,9904.750872224675,-187500.02235174447,-187500.02235174447,-187500.02235174447,-187500.02235174447
$SILENCE,826.8580826351741,-10407.016921879878,5975.761231870799,9907.366026325944,-187500.02235174447,-187500.02235174447,-187500.02235174447,-187500.02235174447
$SILENCE,872.8356209797408,-10401.697206699517,6025.6726772394995,9881.505057991155,-187500.02235174447,-187500.02235174447,-187500.02235174447,-187500.02235174447
$SILENCE,923.730543104475,-10385.268674524865,6116.35370449468,9867.065831073027,-187500.02235174447,-187500.02235174447,-187500.02235174447,-187500.02235174447
$SILENCE,878.7141297714866,-10389.560209460284,6072.209009195449,9898.447680288278,-187500.02235174447,-187500.02235174447,-187500.02235174447,-187500.02235174447
$SILENCE,828.1097803246714,-10410.503794014907,5978.398737716525,9911.523450794632,-187500.02235174447,-187500.02235174447,-187500.02235174447,-187500.02235174447
$SILENCE,860.6762719960537,-10405.72052070147,6010.294677054248,9884.611950470442,-187500.02235174447,-187500.02235174447,-187500.02235174447,-187500.02235174447
$SILENCE,919.8636913137069,-10386.967407103468,6103.166175266048,9862.19315078177,-187500.02235174447,-187500.02235174447,-187500.02235174447,-187500.02235174447
$SILENCE,898.6071823367098,-10383.14525880161,6092.526744905323,9886.422441771323,-187500.02235174447,-187500.02235174447,-187500.02235174447,-187500.02235174447
$SILENCE,830.9708036149507,-10405.117023601179,5987.4064907320135,9906.494308292187,-187500.02235174447,-187500.02235174447,-187500.02235174447,-187500.02235174447
$SILENCE,858.2622835948806,-10408.11215735819,5998.783528659765,9883.449659758766,-187500.02235174447,-187500.02235174447,-187500.02235174447,-187500.02235174447
$SILENCE,923.1717494930923,-10393.024729850857,6087.363491936147,9857.700450146252,-187500.02235174447,-187500.02235174447,-187500.02235174447,-187500.02235174447
$SILENCE,920.7577610919192,-10387.14622105911,6107.457710201467,9875.291273032579,-187500.02235174447,-187500.02235174447,-187500.02235174447,-187500.02235174447
$SILENCE,846.4158590335678,-10406.703997457505,5999.767005415798,9906.136680380903,-187500.02235174447,-187500.02235174447,-187500.02235174447,-187500.02235174447
$SILENCE,855.4012603046012,-10412.582506249251,5992.815612890197,9891.518639507132,-187500.02235174447,-187500.02235174447,-187500.02235174447,-187500.02235174447
$SILENCE,914.3875139221566,-10398.612665964683,6073.416003396035,9860.315604247524,-187500.02235174447,-187500.02235174447,-187500.02235174447,-187500.02235174447
$SILENCE,929.0726100292934,-10386.676834425549,6115.97372483894,9867.155238050847,-187500.02235174447,-187500.02235174447,-187500.02235174447,-187500.02235174447
$SILENCE,853.9707486594616,-10404.20060207851,6013.245107322348,9900.548744267076,-187500.02235174447,-187500.02235174447,-187500.02235174447,-187500.02235174447
$SILENCE,846.4829142669338,-10413.923610916569,5984.903095353019,9890.468107517732,-187500.02235174447,-187500.02235174447,-187500.02235174447,-187500.02235174447
$SILENCE,902.0269992383718,-10402.479517755452,6054.81935200922,9859.645051913863,-187500.02235174447,-187500.02235174447,-187500.02235174447,-187500.02235174447
$SILENCE,936.8957205886509,-10388.733194915438,6120.846405130196,9858.929796091294,-187500.02235174447,-187500.02235174447,-187500.02235174447,-187500.02235174447
$SILENCE,869.1922866335258,-10402.457166010996,6031.238261608871,9896.503078520665,-187500.02235174447,-187500.02235174447,-187500.02235174447,-187500.02235174447
$SILENCE,847.086411367227,-10417.008151651402,5977.795240616231,9895.139622108893,-187500.02235174447,-187500.02235174447,-187500.02235174447,-187500.02235174447
$SILENCE,892.4828043559557,-10402.971256133469,6039.016668679317,9867.401107239855,-187500.02235174447,-187500.02235174447,-187500.02235174447,-187500.02235174447
$SILENCE,933.7664763649078,-10385.760412902882,6120.488777218911,9859.779162380597,-187500.02235174447,-187500.02235174447,-187500.02235174447,-187500.02235174447
$SILENCE,873.4614698244894,-10394.589351962728,6055.288738642781,9895.67606397582,-187500.02235174447,-187500.02235174447,-187500.02235174447,-187500.02235174447
$SILENCE,832.3566117711797,-10414.415349294586,5975.761231870799,9899.319398322034,-187500.02235174447,-187500.02235174447,-187500.02235174447,-187500.02235174447
$SILENCE,875.5401820588329,-10409.565020747785,6021.537604515267,9870.418592741322,-187500.02235174447,-187500.02235174447,-187500.02235174447,-187500.02235174447
$SILENCE,928.9161478181062,-10390.253113538398,6111.011637569862,9854.638261155875,-187500.02235174447,-187500.02235174447,-187500.02235174447,-187500.02235174447
$SILENCE,886.9172199865842,-10390.029596093846,6077.551076120267,9887.472973760721,-187500.02235174447,-187500.02235174447,-187500.02235174447,-187500.02235174447
$SILENCE,834.2118065609702,-10411.979009148958,5983.405528474514,9899.788784955595,-187500.02235174447,-187500.02235174447,-187500.02235174447,-187500.02235174447
$SILENCE,875.6072372921989,-10412.671913227072,6016.597868990644,9879.091069589982,-187500.02235174447,-187500.02235174447,-187500.02235174447,-187500.02235174447
$SILENCE,933.922938576095,-10394.43288975154,6106.809509612264,9854.23592975568,-187500.02235174447,-187500.02235174447,-187500.02235174447,-187500.02235174447
$SILENCE,909.5595371198103,-10390.811907149782,6099.567544408745,9876.699432933263,-187500.02235174447,-187500.02235174447,-187500.02235174447,-187500.02235174447
$SILENCE,841.1184955976601,-10410.34733180372,5989.686368666455,9901.845145445484,-187500.02235174447,-187500.02235174447,-187500.02235174447,-187500.02235174447
$SILENCE,865.7054144984978,-10411.464919026484,5998.045921092739,9880.4321742573,-187500.02235174447,-187500.02235174447,-187500.02235174447,-187500.02235174447
$SILENCE,926.4351041835671,-10396.019863607868,6084.033082012306,9849.877339586896,-187500.02235174447,-187500.02235174447,-187500.02235174447,-187500.02235174447
$SILENCE,928.245595484447,-10388.822601893258,6109.424663713535,9864.897711860862,-187500.02235174447,-187500.02235174447,-187500.02235174447,-187500.02235174447
$SILENCE,851.8473329362075,-10408.514488758385,5998.8505838931305,9895.76547095364,-187500.02235174447,-187500.02235174447,-187500.02235174447,-187500.02235174447
$SILENCE,856.250626593903,-10412.96248590499,5986.981807587363,9881.303892291056,-187500.02235174447,-187500.02235174447,-187500.02235174447,-187500.02235174447
$SILENCE,914.3651621777013,-10397.450375253007,6067.448087626468,9857.029897812594,-187500.02235174447,-187500.02235174447,-187500.02235174447,-187500.02235174447
$SILENCE,929.4749414294889,-10384.48636346893,6117.4936434619,9866.328223506001,-187500.02235174447,-187500.02235174447,-187500.02235174447,-187500.02235174447
$SILENCE,858.2846353393359,-10403.462994511485,6018.296601569248,9906.628418758919,-187500.02235174447,-187500.02235174447,-187500.02235174447,-187500.02235174447
$SILENCE,849.12042011266,-10413.878907427657,5983.003197074318,9896.72659596522,-187500.02235174447,-187500.02235174447,-187500.02235174447,-187500.02235174447
$SILENCE,898.7189410589864,-10400.19963982101,6052.33830837468,9867.311700262035,-187500.02235174447,-187500.02235174447,-187500.02235174447,-187500.02235174447
$SILENCE,922.568252392799,-10384.1510873021,6114.386750982613,9863.690717660274,-187500.02235174447,-187500.02235174447,-187500.02235174447,-187500.02235174447
$SILENCE,860.3186440847688,-10399.529087487352,6031.327668586692,9898.984122155205,-187500.02235174447,-187500.02235174447,-187500.02235174447,-187500.02235174447
$SILENCE,834.122399583149,-10411.710788215494,5971.447345190924,9896.860706431951,-187500.02235174447,-187500.02235174447,-187500.02235174447,-187500.02235174447
$SILENCE,882.1786501620592,-10401.607799721694,6028.109017385128,9868.697508418263,-187500.02235174447,-187500.02235174447,-187500.02235174447,-187500.02235174447
$SILENCE,924.892833816151,-10384.016976835368,6109.469367202445,9859.980328080694,-187500.02235174447,-187500.02235174447,-187500.02235174447,-187500.02235174447
$SILENCE,870.1757633895593,-10392.465936239474,6048.985546706384,9896.19015409829,-187500.02235174447,-187500.02235174447,-187500.02235174447,-187500.02235174447
$SILENCE,829.6073472031769,-10411.531974259851,5969.7933161012315,9903.923857679827,-187500.02235174447,-187500.02235174447,-187500.02235174447,-187500.02235174447
$SILENCE,870.5780947897548,-10405.63111372365,6015.659095723521,9878.152296322858,-187500.02235174447,-187500.02235174447,-187500.02235174447,-187500.02235174447
$SILENCE,919.5060634024219,-10388.107346070688,6105.043721800294,9858.482761202189,-187500.02235174447,-187500.02235174447,-187500.02235174447,-187500.02235174447
$SILENCE,881.3069321283022,-10390.253113538398,6073.013671995839,9888.724671450218,-187500.02235174447,-187500.02235174447,-187500.02235174447,-187500.02235174447
$SILENCE,827.0816000797272,-10411.91195391559,5975.582417915156,9903.163898368348,-187500.02235174447,-187500.02235174447,-187500.02235174447,-187500.02235174447
$SILENCE,859.1787051175481,-10409.25209632541,6000.772833916287,9875.894770132873,-187500.02235174447,-187500.02235174447,-187500.02235174447,-187500.02235174447
$SILENCE,913.9181272885952,-10390.610741449684,6092.34793094968,9855.80055186755,-187500.02235174447,-187500.02235174447,-187500.02235174447,-187500.02235174447
$SILENCE,894.5838683347546,-10385.983930347435,6091.319750704736,9880.834505657496,-187500.02235174447,-187500.02235174447,-187500.02235174447,-187500.02235174447
$SILENCE,824.444094234001,-10405.54170674583,5982.80203137422,9908.215392615246,-187500.02235174447,-187500.02235174447,-187500.02235174447,-187500.02235174447
$SILENCE,838.8162659187634,-10405.787575934837,5987.607656432111,9888.612912727942,-187500.02235174447,-187500.02235174447,-187500.02235174447,-187500.02235174447
$SILENCE,905.5809266067656,-10393.24824729541,6079.026291254318,9861.90257810385,-187500.02235174447,-187500.02235174447,-187500.02235174447,-187500.02235174447
$SILENCE,908.3972464081344,-10385.827468136247,6106.340122978702,9872.966691609226,-187500.02235174447,-187500.02235174447,-187500.02235174447,-187500.02235174447
$SILENCE,833.2953850383026,-10404.312360800786,5994.42493849098,9901.800441956573,-187500.02235174447,-187500.02235174447,-187500.02235174447,-187500.02235174447
$SILENCE,832.4683704934563,-10410.548497503818,5976.364728971092,9889.52933425061,-187500.02235174447,-187500.02235174447,-187500.02235174447,-187500.02235174447
$SILENCE,889.2418014099362,-10396.1539740746,6058.038003210784,9864.13775254938,-187500.02235174447,-187500.02235174447,-187500.02235174447,-187500.02235174447
$SILENCE,908.3525429192238,-10381.62534017865,6111.056341058772,9865.881188616895,-187500.02235174447,-187500.02235174447,-187500.02235174447,-187500.02235174447
$SILENCE,838.8386176632188,-10400.19963982101,6013.066293366706,9902.76156696815,-187500.02235174447,-187500.02235174447,-187500.02235174447,-187500.02235174447
$SILENCE,830.7249344259423,-10411.040235881834,5976.744708626832,9899.788784955595,-187500.02235174447,-187500.02235174447,-187500.02235174447,-187500.02235174447
$SILENCE,880.8375454947408,-10398.590314220228,6046.415096094024,9872.117325319925,-187500.02235174447,-187500.02235174447,-187500.02235174447,-187500.02235174447
$SILENCE,914.5439761333438,-10382.027671578846,6115.861966116663,9868.518694462622,-187500.02235174447,-187500.02235174447,-187500.02235174447,-187500.02235174447
$SILENCE,841.6772892090428,-10395.461069996485,6028.086665640672,9900.749909967173,-187500.02235174447,-187500.02235174447,-187500.02235174447,-187500.02235174447
$SILENCE,810.027219060328,-10412.873078927169,5962.528999153256,9894.983159897705,-187500.02235174447,-187500.02235174447,-187500.02235174447,-187500.02235174447
$SILENCE,864.7442894869197,-10404.49117475643,6022.029342893284,9867.401107239855,-187500.02235174447,-187500.02235174447,-187500.02235174447,-187500.02235174447
$SILENCE,911.504138887422,-10383.994625090912,6109.894050347096,9858.929796091294,-187500.02235174447,-187500.02235174447,-187500.02235174447,-187500.02235174447
$SILENCE,858.8881324396292,-10391.48245948344,6053.612357808633,9893.753813952662,-187500.02235174447,-187500.02235174447,-187500.02235174447,-187500.02235174447
$SILENCE,811.6141929166547,-10410.615552737183,5966.306443966204,9902.023959401127,-187500.02235174447,-187500.02235174447,-187500.02235174447,-187500.02235174447
$SILENCE,854.4401352930231,-10405.519355001374,6007.210136319415,9876.408860255344,-187500.02235174447,-187500.02235174447,-187500.02235174447,-187500.02235174447
$SILENCE,907.1679004630925,-10389.984892604934,6096.952390307473,9859.399182724856,-187500.02235174447,-187500.02235174447,-187500.02235174447,-187500.02235174447
$SILENCE,869.7287285004531,-10392.421232750563,6069.77266904982,9887.271808060625,-187500.02235174447,-187500.02235174447,-187500.02235174447,-187500.02235174447
$SILENCE,810.4519022049788,-10411.800195193315,5968.362804456092,9907.164860625848,-187500.02235174447,-187500.02235174447,-187500.02235174447,-187500.02235174447
$SILENCE,842.1243240981489,-10408.91682015858,5994.916676868997,9885.014281870637,-187500.02235174447,-187500.02235174447,-187500.02235174447,-187500.02235174447
$SILENCE,911.4817871429667,-10390.364872260676,6091.4762129159235,9865.05417407205,-187500.02235174447,-187500.02235174447,-187500.02235174447,-187500.02235174447
$SILENCE,897.8248712807741,-10386.00628209189,6097.533535663311,9885.036633615093,-187500.02235174447,-187500.02235174447,-187500.02235174447,-187500.02235174447
$SILENCE,825.5840332012217,-10408.514488758385,5985.484240708857,9906.315494336546,-187500.02235174447,-187500.02235174447,-187500.02235174447,-187500.02235174447
$SILENCE,836.8493124066964,-10412.247230082421,5984.210191274905,9886.869476660428,-187500.02235174447,-187500.02235174447,-187500.02235174447,-187500.02235174447
$SILENCE,895.5896968352433,-10396.511601985885,6069.973834749918,9860.829694369995,-187500.02235174447,-187500.02235174447,-187500.02235174447,-187500.02235174447
não,902.697551572031,-10385.469840224963,6103.166175266048,9873.391374753879,-187500.02235174447,-187500.02235174447,-187500.02235174447,-187500.02235174447
não,825.7404954124088,-10405.54170674583,5994.737862913355,9902.24747684568,-187500.02235174447,-187500.02235174447,-187500.02235174447,-187500.02235174447
não,827.0368965908166,-10413.25305858291,5974.978920814863,9889.842258672985,-187500.02235174447,-187500.02235174447,-187500.02235174447,-187500.02235174447
não,880.2340483944474,-10402.77009043337,6049.678450784499,9861.790819381575,-187500.02235174447,-187500.02235174447,-187500.02235174447,-187500.02235174447
não,908.1290254746707,-10387.325035014754,6110.117567791649,9866.976424095204,-187500.02235174447,-187500.02235174447,-187500.02235174447,-187500.02235174447
não,835.3964490171014,-10399.86436365418,6012.932182899975,9899.118232621937,-187500.02235174447,-187500.02235174447,-187500.02235174447,-187500.02235174447
não,811.7259516389313,-10412.806023693804,5964.920635809975,9892.569171496532,-187500.02235174447,-187500.02235174447,-187500.02235174447,-187500.02235174447
não,860.3856993181348,-10402.211296821988,6030.411247064024,9864.942415349773,-187500.02235174447,-187500.02235174447,-187500.02235174447,-187500.02235174447
não,910.4983103869332,-10384.53106695784,6110.586954425211,9863.221331026714,-187500.02235174447,-187500.02235174447,-187500.02235174447,-187500.02235174447
não,848.9863096459281,-10396.399843263609,6036.155645389038,9897.844183187985,-187500.02235174447,-187500.02235174447,-187500.02235174447,-187500.02235174447
não,813.7376086399089,-10415.264715583888,5966.976996299863,9899.900543677872,-187500.02235174447,-187500.02235174447,-187500.02235174447,-187500.02235174447
não,858.2622835948806,-10409.25209632541,6018.296601569248,9872.407897997844,-187500.02235174447,-187500.02235174447,-187500.02235174447,-187500.02235174447
não,908.8442812972405,-10390.00724434939,6106.183660767515,9855.755848378642,-187500.02235174447,-187500.02235174447,-187500.02235174447,-187500.02235174447
não,873.4614698244894,-10393.024729850857,6062.396593379569,9891.496287762677,-187500.02235174447,-187500.02235174447,-187500.02235174447,-187500.02235174447
não,826.4333994905234,-10412.358988804697,5975.984749315352,9906.136680380903,-187500.02235174447,-187500.02235174447,-187500.02235174447,-187500.02235174447
não,857.5023242834002,-10408.022750380367,6009.400607276036,9881.214485313236,-187500.02235174447,-187500.02235174447,-187500.02235174447,-187500.02235174447
não,917.0473715123381,-10392.823564150758,6099.20991649746,9856.694621645764,-187500.02235174447,-187500.02235174447,-187500.02235174447,-187500.02235174447
não,891.6781415555647,-10392.48828798393,6079.495677887879,9883.24849405867,-187500.02235174447,-187500.02235174447,-187500.02235174447,-187500.02235174447
não,822.477140721934,-10412.940134160535,5976.454135948913,9903.67798849082,-187500.02235174447,-187500.02235174447,-187500.02235174447,-187500.02235174447
não,859.022242906361,-10412.873078927169,5994.983732102362,9881.929741135806,-187500.02235174447,-187500.02235174447,-187500.02235174447,-187500.02235174447
não,916.2874122008577,-10395.371663018665,6080.255637199359,9857.879264101895,-187500.02235174447,-187500.02235174447,-187500.02235174447,-187500.02235174447
não,904.7092085730087,-10389.58256120474,6094.896029817585,9874.464258487733,-187500.02235174447,-187500.02235174447,-187500.02235174447,-187500.02235174447
não,842.280786309336,-10410.503794014907,5999.409377504513,9907.231915859213,-187500.02235174447,-187500.02235174447,-187500.02235174447,-187500.02235174447
não,857.4576207944896,-10414.102424872211,5991.228639033871,9891.272770318124,-187500.02235174447,-187500.02235174447,-187500.02235174447,-187500.02235174447
não,895.924973002073,-10397.383320019642,6051.354831618647,9859.421534469311,-187500.02235174447,-187500.02235174447,-187500.02235174447,-187500.02235174447
não,915.862729056207,-10386.162744303077,6101.8697740876405,9865.434153727789,-187500.02235174447,-187500.02235174447,-187500.02235174447,-187500.02235174447
não,861.6821004965426,-10403.82062242277,6029.025438907795,9895.206677342258,-187500.02235174447,-187500.02235174447,-187500.02235174447,-187500.02235174447
não,853.3672515591684,-10413.409520794097,5992.435633234458,9886.62360747142,-187500.02235174447,-187500.02235174447,-187500.02235174447,-187500.02235174447
não,897.2437259249361,-10405.497003256918,6029.226604607893,9865.702374661252,-187500.02235174447,-187500.02235174447,-187500.02235174447,-187500.02235174447
não,934.1017525317375,-10393.807040906793,6094.828974584219,9865.23298802769,-187500.02235174447,-187500.02235174447,-187500.02235174447,-187500.02235174447
não,891.2311066664585,-10402.859497411191,6062.508352101845,9892.4350610298,-187500.02235174447,-187500.02235174447,-187500.02235174447,-187500.02235174447
não,851.154428858093,-10416.315247573286,5998.515307726301,9890.155183095358,-187500.02235174447,-187500.02235174447,-187500.02235174447,-187500.02235174447
não,879.7199582719754,-10410.414387037086,6000.124633327083,9874.508961976644,-187500.02235174447,-187500.02235174447,-187500.02235174447,-187500.02235174447
não,933.118275775704,-10396.466898496974,6069.571503349723,9866.395278739366,-187500.02235174447,-187500.02235174447,-187500.02235174447,-187500.02235174447
não,910.9453452760393,-10397.271561297364,6088.972817536929,9890.065776117537,-187500.02235174447,-187500.02235174447,-187500.02235174447,-187500.02235174447
não,858.5081527838889,-10408.514488758385,6023.213985349415,9899.29704657758,-187500.02235174447,-187500.02235174447,-187500.02235174447,-187500.02235174447
não,865.7724697318638,-10410.0567591258,5997.554182714723,9887.562380738544,-187500.02235174447,-187500.02235174447,-187500.02235174447,-187500.02235174447
não,913.247574954936,-10399.618494465172,6049.521988573312,9868.094011317971,-187500.02235174447,-187500.02235174447,-187500.02235174447,-187500.02235174447
não,928.3573542067236,-10394.72346242946,6120.555832452278,9881.393299268879,-187500.02235174447,-187500.02235174447,-187500.02235174447,-187500.02235174447
não,878.3788536046569,-10408.022750380367,6058.932072988996,9902.560401268054,-187500.02235174447,-187500.02235174447,-187500.02235174447,-187500.02235174447
não,850.7744492023527,-10418.528070274362,5965.926464310463,9897.95594191026,-187500.02235174447,-187500.02235174447,-187500.02235174447,-187500.02235174447
não,911.7053045875198,-10406.838107924237,6028.734866229876,9871.62558694191,-187500.02235174447,-187500.02235174447,-187500.02235174447,-187500.02235174447
não,952.6984039185529,-10392.376529261654,6126.143768566105,9880.968616124228,-187500.02235174447,-187500.02235174447,-187500.02235174447,-187500.02235174447
não,900.5741358487769,-10405.899334657113,6071.605512095155,9901.129889622915,-187500.02235174447,-187500.02235174447,-187500.02235174447,-187500.02235174447
não,876.2777896258581,-10411.241401581932,6007.299543297237,9900.235819844702,-187500.02235174447,-187500.02235174447,-187500.02235174447,-187500.02235174447
não,808.8425766041967,-10423.691323243538,5825.244584708761,9917.021979930638,-187500.02235174447,-187500.02235174447,-187500.02235174447,-187500.02235174447
não,847.1087631116824,-10430.977991935968,5869.97042536383,9891.630398229408,-187500.02235174447,-187500.02235174447,-187500.02235174447,-187500.02235174447
não,988.3047328358571,-10399.618494465172,6199.6586560796095,9855.577034422999,-187500.02235174447,-187500.02235174447,-187500.02235174447,-187500.02235174447
não,967.696424448064,-10386.34155825872,6209.716941084497,9868.183418295792,-187500.02235174447,-187500.02235174447,-187500.02235174447,-187500.02235174447
não,838.3915827741126,-10410.414387037086,5926.74385628031,9900.280523333613,-187500.02235174447,-187500.02235174447,-187500.02235174447,-187500.02235174447
não,829.7861611588194,-10428.452244812519,5853.58659667809,9898.984122155205,-187500.02235174447,-187500.02235174447,-187500.02235174447,-187500.02235174447
não,965.2153808135249,-10403.261828811388,6167.293330108325,9864.294214760568,-187500.02235174447,-187500.02235174447,-187500.02235174447,-187500.02235174447
não,979.3193315648236,-10387.05681408129,6245.211511279525,9869.837447385484,-187500.02235174447,-187500.02235174447,-187500.02235174447,-187500.02235174447
não,864.5207720423666,-10403.373587533664,5984.210191274905,9902.403939056867,-187500.02235174447,-187500.02235174447,-187500.02235174447,-187500.02235174447
não,811.1671580275486,-10426.977029678468,5826.1610062314285,9898.67119773283,-187500.02235174447,-187500.02235174447,-187500.02235174447,-187500.02235174447
não,940.4943514459553,-10411.263753326388,6105.11077703366,9859.689755402775,-187500.02235174447,-187500.02235174447,-187500.02235174447,-187500.02235174447
não,1001.6487242756754,-10389.62726469365,6263.495238243966,9860.650880414352,-187500.02235174447,-187500.02235174447,-187500.02235174447,-187500.02235174447
não,893.2427636674362,-10400.467860754474,6034.993354677362,9893.53029650811,-187500.02235174447,-187500.02235174447,-187500.02235174447,-187500.02235174447
não,802.4946811788894,-10427.893451201136,5809.620715334501,9898.827659944018,-187500.02235174447,-187500.02235174447,-187500.02235174447,-187500.02235174447
não,927.2174152395029,-10415.756453961903,6048.136180417083,9865.344746749968,-187500.02235174447,-187500.02235174447,-187500.02235174447,-187500.02235174447
não,1009.7847592574071,-10385.648654180606,6274.604055238254,9861.969633337216,-187500.02235174447,-187500.02235174447,-187500.02235174447,-187500.02235174447
não,900.0153422373942,-10391.013072849879,6091.342102449192,9888.590560983486,-187500.02235174447,-187500.02235174447,-187500.02235174447,-187500.02235174447
não,785.283837948303,-10422.77490172087,5820.6401253509675,9902.560401268054,-187500.02235174447,-187500.02235174447,-187500.02235174447,-187500.02235174447
não,881.3292838727575,-10424.45128255502,5988.658188421511,9878.24170330068,-187500.02235174447,-187500.02235174447,-187500.02235174447,-187500.02235174447
não,997.2230788735246,-10390.968369360968,6259.226055053003,9858.102781546448,-187500.02235174447,-187500.02235174447,-187500.02235174447,-187500.02235174447
não,919.4613599135113,-10392.756508917393,6130.301193034791,9875.313624777034,-187500.02235174447,-187500.02235174447,-187500.02235174447,-187500.02235174447
não,789.7541868393645,-10425.926497689068,5825.624564364501,9896.145450609381,-187500.02235174447,-187500.02235174447,-187500.02235174447,-187500.02235174447
não,862.7549842303973,-10430.39684658013,5913.3328096071255,9875.24656954367,-187500.02235174447,-187500.02235174447,-187500.02235174447,-187500.02235174447
não,1011.2152709025469,-10396.1539740746,6244.898586857151,9853.364211721922,-187500.02235174447,-187500.02235174447,-187500.02235174447,-187500.02235174447
não,950.306767261835,-10390.364872260676,6189.734481541453,9874.464258487733,-187500.02235174447,-187500.02235174447,-187500.02235174447,-187500.02235174447
não,797.1302625096158,-10421.456148798008,5865.902407872964,9897.553610510065,-187500.02235174447,-187500.02235174447,-187500.02235174447,-187500.02235174447
não,822.2759750218362,-10432.743779747938,5859.487457214291,9893.86557267494,-187500.02235174447,-187500.02235174447,-187500.02235174447,-187500.02235174447
não,980.8616019322399,-10400.065529354279,6206.297124182835,9865.300043261057,-187500.02235174447,-187500.02235174447,-187500.02235174447,-187500.02235174447
não,965.3941947691674,-10384.553418702295,6233.923880329595,9873.346671264968,-187500.02235174447,-187500.02235174447,-187500.02235174447,-187500.02235174447
não,826.7239721684423,-10403.641808467128,5925.514510335268,9909.109462393459,-187500.02235174447,-187500.02235174447,-187500.02235174447,-187500.02235174447
não,809.8484051046855,-10430.173329135578,5818.0026195052415,9905.376721069422,-187500.02235174447,-187500.02235174447,-187500.02235174447,-187500.02235174447
não,957.5040289764439,-10406.659293968594,6149.322527566258,9859.108610046937,-187500.02235174447,-187500.02235174447,-187500.02235174447,-187500.02235174447
não,981.3309885658012,-10382.80998263478,6275.274607571913,9859.28742400258,-187500.02235174447,-187500.02235174447,-187500.02235174447,-187500.02235174447
não,841.476123508945,-10397.495078741918,5990.178107044471,9897.53125876561,-187500.02235174447,-187500.02235174447,-187500.02235174447,-187500.02235174447
não,763.0662039597278,-10425.34535233323,5769.924017181876,9900.459337289256,-187500.02235174447,-187500.02235174447,-187500.02235174447,-187500.02235174447
não,914.4322174110672,-10413.610686494194,6071.046718483773,9858.549816435554,-187500.02235174447,-187500.02235174447,-187500.02235174447,-187500.02235174447
não,981.822726943818,-10383.86051462418,6288.573895522821,9860.829694369995,-187500.02235174447,-187500.02235174447,-187500.02235174447,-187500.02235174447
não,860.0057196623945,-10393.762337417882,6056.696898543465,9896.547782009577,-187500.02235174447,-187500.02235174447,-187500.02235174447,-187500.02235174447
não,749.2528258863481,-10429.212204123998,5763.218493845284,9910.763491483152,-187500.02235174447,-187500.02235174447,-187500.02235174447,-187500.02235174447
não,865.8842284541403,-10424.317172088287,5982.131479040561,9863.08722055998,-187500.02235174447,-187500.02235174447,-187500.02235174447,-187500.02235174447
não,988.3494363247677,-10389.739023415927,6299.481546817011,9845.474045929199,-187500.02235174447,-187500.02235174447,-187500.02235174447,-187500.02235174447
não,911.1241592316818,-10392.935322873036,6149.5907484997215,9872.005566597649,-187500.02235174447,-187500.02235174447,-187500.02235174447,-187500.02235174447
não,766.7542417948534,-10425.948849433524,5777.635369018957,9893.843220930485,-187500.02235174447,-187500.02235174447,-187500.02235174447,-187500.02235174447
não,849.7462689574086,-10433.660201270604,5887.047158127685,9859.823865869506,-187500.02235174447,-187500.02235174447,-187500.02235174447,-187500.02235174447
não,1011.1482156691809,-10398.567962475772,6280.169639607625,9832.130054489382,-187500.02235174447,-187500.02235174447,-187500.02235174447,-187500.02235174447
não,947.3116335048239,-10389.895485627114,6208.331132928269,9854.414743711322,-187500.02235174447,-187500.02235174447,-187500.02235174447,-187500.02235174447
não,781.3722826686243,-10421.478500542462,5812.794663047155,9891.317473807034,-187500.02235174447,-187500.02235174447,-187500.02235174447,-187500.02235174447
não,830.2778995368361,-10435.738913504949,5828.574994632601,9873.436078242788,-187500.02235174447,-187500.02235174447,-187500.02235174447,-187500.02235174447
não,999.949991697072,-10398.545610731318,6248.139589803171,9831.168929477803,-187500.02235174447,-187500.02235174447,-187500.02235174447,-187500.02235174447
não,971.4291657721003,-10380.932436100537,6268.904360402151,9848.491531430665,-187500.02235174447,-187500.02235174447,-187500.02235174447,-187500.02235174447
não,799.186622999504,-10408.805061436304,5881.660387713956,9895.474898275721,-187500.02235174447,-187500.02235174447,-187500.02235174447,-187500.02235174447
não,777.1030994776606,-10435.895375716136,5767.845304947532,9885.57307548202,-187500.02235174447,-187500.02235174447,-187500.02235174447,-187500.02235174447
não,961.9967296119606,-10408.335674802742,6186.60523731771,9835.147539990849,-187500.02235174447,-187500.02235174447,-187500.02235174447,-187500.02235174447
não,981.9791891550052,-10384.218142535467,6305.337703864301,9839.595537137453,-187500.02235174447,-187500.02235174447,-187500.02235174447,-187500.02235174447
não,815.63750691861,-10406.301666057308,5939.864330275575,9875.023052099115,-187500.02235174447,-187500.02235174447,-187500.02235174447,-187500.02235174447
não,764.9437504939737,-10435.135416404655,5731.9484033523095,9882.130906835902,-187500.02235174447,-187500.02235174447,-187500.02235174447,-187500.02235174447
não,946.0375840708714,-10411.442567282029,6119.684114418521,9838.5226534036,-187500.02235174447,-187500.02235174447,-187500.02235174447,-187500.02235174447
não,1005.1579481551586,-10380.127773300144,6333.478550133533,9837.315659203012,-187500.02235174447,-187500.02235174447,-187500.02235174447,-187500.02235174447
não,848.8745509236517,-10396.221029307966,6020.643534737055,9873.413726498333,-187500.02235174447,-187500.02235174447,-187500.02235174447,-187500.02235174447
não,740.9156252045185,-10434.710733260004,5713.351751965493,9886.578903982509,-187500.02235174447,-187500.02235174447,-187500.02235174447,-187500.02235174447
não,901.535260860355,-10422.104349387211,6035.507444799834,9839.103798759437,-187500.02235174447,-187500.02235174447,-187500.02235174447,-187500.02235174447
não,1009.6506487906753,-10382.407651234586,6348.0518875183925,9831.481853900177,-187500.02235174447,-187500.02235174447,-187500.02235174447,-187500.02235174447
não,884.7267490299641,-10390.253113538398,6101.556849665267,9869.278653774101,-187500.02235174447,-187500.02235174447,-187500.02235174447,-187500.02235174447
não,742.9496339499515,-10431.805006480814,5723.588850926024,9885.10368884846,-187500.02235174447,-187500.02235174447,-187500.02235174447,-187500.02235174447
não,863.827867964252,-10421.187927864543,5945.675783833955,9840.981345293683,-187500.02235174447,-187500.02235174447,-187500.02235174447,-187500.02235174447
não,1008.7118755235524,-10380.172476789056,6327.667096575153,9819.23309793867,-187500.02235174447,-187500.02235174447,-187500.02235174447,-187500.02235174447
não,919.3943046801454,-10386.788593147827,6169.8414289762295,9854.124171033403,-187500.02235174447,-187500.02235174447,-187500.02235174447,-187500.02235174447
não,769.8611342741411,-10430.866233213692,5765.274854335172,9895.072566875526,-187500.02235174447,-187500.02235174447,-187500.02235174447,-187500.02235174447
não,842.7948764318081,-10442.667954286093,5868.428154996414,9856.292290245568,-187500.02235174447,-187500.02235174447,-187500.02235174447,-187500.02235174447
não,1009.3153726238457,-10393.96350311798,6312.490262089999,9819.635429338865,-187500.02235174447,-187500.02235174447,-187500.02235174447,-187500.02235174447
não,950.2620637729244,-10388.599084448706,6247.7372584029745,9850.011450053627,-187500.02235174447,-187500.02235174447,-187500.02235174447,-187500.02235174447
não,772.8115645422417,-10425.501814544417,5806.647933321945,9880.879209146406,-187500.02235174447,-187500.02235174447,-187500.02235174447,-187500.02235174447
não,807.5908789146995,-10441.30449787432,5811.028875235185,9863.109572304436,-187500.02235174447,-187500.02235174447,-187500.02235174447,-187500.02235174447
não,982.6720932331197,-10400.065529354279,6238.371877476201,9819.076635727482,-187500.02235174447,-187500.02235174447,-187500.02235174447,-187500.02235174447
não,972.1667733391254,-10387.168572803566,6281.398985552667,9830.274859699592,-187500.02235174447,-187500.02235174447,-187500.02235174447,-187500.02235174447
não,794.8503845751744,-10421.925535431568,5866.572960206623,9883.3826045254,-187500.02235174447,-187500.02235174447,-187500.02235174447,-187500.02235174447
não,773.2138959424373,-10432.25204136992,5731.0096300851865,9891.161011595847,-187500.02235174447,-187500.02235174447,-187500.02235174447,-187500.02235174447
não,968.6799012040975,-10402.144241588621,6182.894847738129,9822.295286929046,-187500.02235174447,-187500.02235174447,-187500.02235174447,-187500.02235174447
não,988.2376776024912,-10396.019863607868,6315.127767935725,9823.904612529828,-187500.02235174447,-187500.02235174447,-187500.02235174447,-187500.02235174447
não,815.928079596529,-10411.643732982127,5937.986783741329,9872.162028808836,-187500.02235174447,-187500.02235174447,-187500.02235174447,-187500.02235174447
não,750.6609857870324,-10440.768056007393,5705.103958261485,9876.632377699898,-187500.02235174447,-187500.02235174447,-187500.02235174447,-187500.02235174447
não,937.7227351334972,-10443.83024499777,6120.667591174554,9805.799699521029,-187500.02235174447,-187500.02235174447,-187500.02235174447,-187500.02235174447
não,1001.0228754309268,-10400.870192154669,6346.867245062262,9809.219516422692,-187500.02235174447,-187500.02235174447,-187500.02235174447,-187500.02235174447
não,849.7686207018639,-10402.367759033175,6010.0041043763285,9879.783973668096,-187500.02235174447,-187500.02235174447,-187500.02235174447,-187500.02235174447
não,730.1420843770605,-10430.01686692439,5675.443193369293,9880.499229490666,-187500.02235174447,-187500.02235174447,-187500.02235174447,-187500.02235174447
não,888.7724147763747,-10415.667046984083,6003.075063595184,9835.952202791239,-187500.02235174447,-187500.02235174447,-187500.02235174447,-187500.02235174447
não,1007.9742679565273,-10381.111250056178,6331.668058832653,9830.274859699592,-187500.02235174447,-187500.02235174447,-187500.02235174447,-187500.02235174447
não,879.6081995496988,-10396.48925024143,6094.717215861942,9854.437095455778,-187500.02235174447,-187500.02235174447,-187500.02235174447,-187500.02235174447
não,731.0808576441834,-10435.135416404655,5707.853222829488,9889.082299361504,-187500.02235174447,-187500.02235174447,-187500.02235174447,-187500.02235174447
não,853.411955048079,-10441.550367063328,5921.111216677573,9847.575109907999,-187500.02235174447,-187500.02235174447,-187500.02235174447,-187500.02235174447
não,1001.760482997952,-10416.605820251205,6314.8818987467175,9820.641257839354,-187500.02235174447,-187500.02235174447,-187500.02235174447,-187500.02235174447
não,911.2359179539583,-10397.673892697561,6165.12521089616,9857.812208868529,-187500.02235174447,-187500.02235174447,-187500.02235174447,-187500.02235174447
não,738.8369129701749,-10437.39294259464,5738.497464477714,9880.901560890861,-187500.02235174447,-187500.02235174447,-187500.02235174447,-187500.02235174447
não,814.184643529015,-10438.868157728692,5840.287308727183,9853.967708822216,-187500.02235174447,-187500.02235174447,-187500.02235174447,-187500.02235174447
não,996.1501951396699,-10387.1015175702,6285.779927465907,9817.243792682148,-187500.02235174447,-187500.02235174447,-187500.02235174447,-187500.02235174447
não,935.5993194102431,-10383.43583147953,6226.883080826174,9839.573185393,-187500.02235174447,-187500.02235174447,-187500.02235174447,-187500.02235174447
não,753.834933499686,-10421.322038331276,5792.208706403817,9881.728575435707,-187500.02235174447,-187500.02235174447,-187500.02235174447,-187500.02235174447
não,782.1769454690153,-10441.662125785604,5770.728679982267,9863.28838626008,-187500.02235174447,-187500.02235174447,-187500.02235174447,-187500.02235174447
não,974.8489826737622,-10408.067453869278,6232.403961706635,9817.735531060163,-187500.02235174447,-187500.02235174447,-187500.02235174447,-187500.02235174447
não,957.146401065159,-10390.521334471863,6279.588494251788,9840.444903426756,-187500.02235174447,-187500.02235174447,-187500.02235174447,-187500.02235174447
não,773.1915441979819,-10417.321076073775,5864.069564827629,9884.343729536979,-187500.02235174447,-187500.02235174447,-187500.02235174447,-187500.02235174447
não,746.6823752739878,-10446.959489221512,5714.134063021429,9872.452601486755,-187500.02235174447,-187500.02235174447,-187500.02235174447,-187500.02235174447
não,950.0385463283714,-10418.461015040995,6160.7442689829195,9823.770502063097,-187500.02235174447,-187500.02235174447,-187500.02235174447,-187500.02235174447
não,980.436918787589,-10391.884790883636,6314.144291179692,9829.827824810485,-187500.02235174447,-187500.02235174447,-187500.02235174447,-187500.02235174447
não,805.8250911027302,-10409.833241681248,5943.306498921693,9874.19603755427,-187500.02235174447,-187500.02235174447,-187500.02235174447,-187500.02235174447
não,724.2412238408594,-10443.53967231985,5682.88632427291,9881.639168457887,-187500.02235174447,-187500.02235174447,-187500.02235174447,-187500.02235174447
não,910.1406824756483,-10423.423102310075,6074.846515041175,9828.576127120987,-187500.02235174447,-187500.02235174447,-187500.02235174447,-187500.02235174447
não,991.568087526332,-10391.14718331661,6330.237547187513,9822.719970073696,-187500.02235174447,-187500.02235174447,-187500.02235174447,-187500.02235174447
não,842.7501729428975,-10406.525183501863,6021.269383581804,9865.076525816505,-187500.02235174447,-187500.02235174447,-187500.02235174447,-187500.02235174447
não,719.4132470385131,-10445.841901998747,5677.365443392449,9881.594464968975,-187500.02235174447,-187500.02235174447,-187500.02235174447,-187500.02235174447
não,884.570286818777,-10436.409465838608,5995.006083846818,9840.824883082496,-187500.02235174447,-187500.02235174447,-187500.02235174447,-187500.02235174447
não,1004.6438580326866,-10396.936285130536,6336.183111212625,9827.23502245367,-187500.02235174447,-187500.02235174447,-187500.02235174447,-187500.02235174447
não,875.9872169479391,-10400.82548866576,6101.266276987348,9858.66157515783,-187500.02235174447,-187500.02235174447,-187500.02235174447,-187500.02235174447
não,723.995354651851,-10436.54357630534,5696.878516301932,9882.466183002733,-187500.02235174447,-187500.02235174447,-187500.02235174447,-187500.02235174447
não,849.6568619795873,-10438.242308883942,5902.715730990855,9840.75782784913,-187500.02235174447,-187500.02235174447,-187500.02235174447,-187500.02235174447
não,1007.3260673673234,-10400.467860754474,6314.501919090977,9817.579068848976,-187500.02235174447,-187500.02235174447,-187500.02235174447,-187500.02235174447
não,914.7451418334415,-10395.617532207672,6172.858914477696,9850.503188431643,-187500.02235174447,-187500.02235174447,-187500.02235174447,-187500.02235174447
não,734.9477094349515,-10429.703942502016,5737.648098188412,9887.316511549534,-187500.02235174447,-187500.02235174447,-187500.02235174447,-187500.02235174447
não,802.4946811788894,-10441.572718807784,5819.299020683649,9858.482761202189,-187500.02235174447,-187500.02235174447,-187500.02235174447,-187500.02235174447
não,991.4339770596001,-10402.0548346108,6279.141459362681,9826.698580586743,-187500.02235174447,-187500.02235174447,-187500.02235174447,-187500.02235174447
não,944.0482788143491,-10389.001415848901,6243.37866823419,9849.966746564716,-187500.02235174447,-187500.02235174447,-187500.02235174447,-187500.02235174447
não,762.0156719703284,-10421.836128453748,5806.513822855213,9885.595427226475,-187500.02235174447,-187500.02235174447,-187500.02235174447,-187500.02235174447
não,772.319826164225,-10445.64073629865,5753.85311291851,9869.099839818458,-187500.02235174447,-187500.02235174447,-187500.02235174447,-187500.02235174447
não,970.4903925049773,-10412.269581826877,6216.198946976537,9825.312772430512,-187500.02235174447,-187500.02235174447,-187500.02235174447,-187500.02235174447
não,965.1036220912483,-10393.136488573133,6284.7740989654185,9840.04257202656,-187500.02235174447,-187500.02235174447,-187500.02235174447,-187500.02235174447
não,786.8708118046299,-10414.996494650424,5878.7546609347655,9882.734403936196,-187500.02235174447,-187500.02235174447,-187500.02235174447,-187500.02235174447
não,750.2810061312922,-10441.30449787432,5710.5801356530355,9878.554627723053,-187500.02235174447,-187500.02235174447,-187500.02235174447,-187500.02235174447
não,945.2105695260251,-10413.051892882811,6151.35653631169,9835.23694696867,-187500.02235174447,-187500.02235174447,-187500.02235174447,-187500.02235174447
não,982.0462443883711,-10384.374604746652,6321.3415528943015,9840.199034237747,-187500.02235174447,-187500.02235174447,-187500.02235174447,-187500.02235174447
não,813.0000010728838,-10405.228782323455,5958.215112473383,9877.079412589004,-187500.02235174447,-187500.02235174447,-187500.02235174447,-187500.02235174447
não,726.0517151417394,-10439.426951340074,5682.104013216975,9883.181438825302,-187500.02235174447,-187500.02235174447,-187500.02235174447,-187500.02235174447
não,912.5770226212768,-10420.472672041973,6065.279968414303,9840.4225516823,-187500.02235174447,-187500.02235174447,-187500.02235174447,-187500.02235174447
não,998.1842038851028,-10385.38043324714,6336.563090868365,9835.102836501937,-187500.02235174447,-187500.02235174447,-187500.02235174447,-187500.02235174447
não,854.8871701821292,-10400.624322965661,6043.889348970574,9872.85493288695,-187500.02235174447,-187500.02235174447,-187500.02235174447,-187500.02235174447
não,723.481264529379,-10438.331715861765,5687.624894097436,9893.843220930485,-187500.02235174447,-187500.02235174447,-187500.02235174447,-187500.02235174447
não,869.1699348890704,-10428.295782601332,5975.47065919288,9847.955089563739,-187500.02235174447,-187500.02235174447,-187500.02235174447,-187500.02235174447
não,998.3183143518346,-10390.186058305033,6332.4950733774995,9830.408970166323,-187500.02235174447,-187500.02235174447,-187500.02235174447,-187500.02235174447
não,880.6140280501877,-10392.756508917393,6117.761864395365,9865.635319427887,-187500.02235174447,-187500.02235174447,-187500.02235174447,-187500.02235174447
não,728.6445174985549,-10429.994515179935,5709.440196685815,9897.218334343235,-187500.02235174447,-187500.02235174447,-187500.02235174447,-187500.02235174447
não,838.3245275407467,-10432.900241959125,5886.980102894318,9857.968671079716,-187500.02235174447,-187500.02235174447,-187500.02235174447,-187500.02235174447
não,1000.598192286276,-10396.042215352323,6307.751692265474,9828.218499209703,-187500.02235174447,-187500.02235174447,-187500.02235174447,-187500.02235174447
não,917.4944064014443,-10389.023767593357,6191.0308827198605,9861.433191470289,-187500.02235174447,-187500.02235174447,-187500.02235174447,-187500.02235174447
não,740.6921077599654,-10424.719503488483,5756.781191442155,9891.630398229408,-187500.02235174447,-187500.02235174447,-187500.02235174447,-187500.02235174447
não,797.1526142540711,-10437.616460039195,5810.581840346079,9867.870493873417,-187500.02235174447,-187500.02235174447,-187500.02235174447,-187500.02235174447
não,982.113299621737,-10398.0538723533,6266.177447578603,9835.549871391044,-187500.02235174447,-187500.02235174447,-187500.02235174447,-187500.02235174447
não,945.56819743731,-10386.408613492085,6249.346584003757,9855.420572211811,-187500.02235174447,-187500.02235174447,-187500.02235174447,-187500.02235174447
não,768.9894162403842,-10418.30455282981,5821.645953851456,9892.747985452173,-187500.02235174447,-187500.02235174447,-187500.02235174447,-187500.02235174447
não,773.8620965316411,-10439.44930308453,5748.667508204879,9872.206732297747,-187500.02235174447,-187500.02235174447,-187500.02235174447,-187500.02235174447
não,970.177468082603,-10403.239477066933,6205.067778237793,9828.084388742971,-187500.02235174447,-187500.02235174447,-187500.02235174447,-187500.02235174447
não,967.0258721144047,-10383.212314034978,6291.4349188131,9845.89872907385,-187500.02235174447,-187500.02235174447,-187500.02235174447,-187500.02235174447
não,789.7318350949091,-10411.263753326388,5893.171536108439,9886.511848749144,-187500.02235174447,-187500.02235174447,-187500.02235174447,-187500.02235174447
não,748.157590408038,-10439.382247851163,5703.695798360801,9887.987063883194,-187500.02235174447,-187500.02235174447,-187500.02235174447,-187500.02235174447
não,948.339813749768,-10410.794366692826,6133.765713425364,9836.242775469158,-187500.02235174447,-187500.02235174447,-187500.02235174447,-187500.02235174447
não,992.305695093357,-10382.854686123692,6323.308506406368,9836.75686559163,-187500.02235174447,-187500.02235174447,-187500.02235174447,-187500.02235174447
não,826.5228064683446,-10403.15007008911,5977.035281304751,9878.509924234144,-187500.02235174447,-187500.02235174447,-187500.02235174447,-187500.02235174447
não,728.6892209874655,-10435.671858271582,5686.127327218929,9892.144488351882,-187500.02235174447,-187500.02235174447,-187500.02235174447,-187500.02235174447
$SILENCE,909.0901504862488,-10417.67870398506,6049.38787810658,9845.719915118209,-187500.02235174447,-187500.02235174447,-187500.02235174447,-187500.02235174447
$SILENCE,1003.6603812766531,-10383.905218113092,6334.774951311941,9832.666496356309,-187500.02235174447,-187500.02235174447,-187500.02235174447,-187500.02235174447
$SILENCE,865.1689726315705,-10399.417328765074,6059.133238689094,9873.86076138744,-187500.02235174447,-187500.02235174447,-187500.02235174447,-187500.02235174447
$SILENCE,728.4210000540019,-10434.598974537728,5691.871725543943,9893.53029650811,-187500.02235174447,-187500.02235174447,-187500.02235174447,-187500.02235174447
$SILENCE,875.249609380914,-10425.702980244516,5964.093621265129,9854.057115800038,-187500.02235174447,-187500.02235174447,-187500.02235174447,-187500.02235174447
$SILENCE,1009.2706691349351,-10386.229799536444,6332.338611166312,9834.991077779661,-187500.02235174447,-187500.02235174447,-187500.02235174447,-187500.02235174447
$SILENCE,897.6237055806763,-10391.14718331661,6134.995059370406,9867.356403750946,-187500.02235174447,-187500.02235174447,-187500.02235174447,-187500.02235174447
$SILENCE,736.3558693356358,-10429.189852379544,5719.900813090899,9893.999683141672,-187500.02235174447,-187500.02235174447,-187500.02235174447,-187500.02235174447
$SILENCE,831.8425216487076,-10431.246212869431,5874.574884721624,9860.941453092271,-187500.02235174447,-187500.02235174447,-187500.02235174447,-187500.02235174447
$SILENCE,998.5194800519324,-10389.806078649293,6300.688541017597,9834.007601023628,-187500.02235174447,-187500.02235174447,-187500.02235174447,-187500.02235174447
$SILENCE,927.2844704728687,-10386.72153791446,6199.70335956852,9858.706278646741,-187500.02235174447,-187500.02235174447,-187500.02235174447,-187500.02235174447
$SILENCE,751.6668142875212,-10424.138358132644,5770.371052070982,9893.95497965276,-187500.02235174447,-187500.02235174447,-187500.02235174447,-187500.02235174447
$SILENCE,805.7133323804537,-10438.465826328496,5805.999732732741,9868.76456365163,-187500.02235174447,-187500.02235174447,-187500.02235174447,-187500.02235174447
$SILENCE,990.5399072813877,-10396.735119430437,6261.975319621006,9836.08631325797,-187500.02235174447,-187500.02235174447,-187500.02235174447,-187500.02235174447
$SILENCE,951.4020027401451,-10384.374604746652,6260.5895114647765,9862.90840660434,-187500.02235174447,-187500.02235174447,-187500.02235174447,-187500.02235174447
$SILENCE,770.3305209077026,-10417.008151651402,5836.174587747406,9902.29218033459,-187500.02235174447,-187500.02235174447,-187500.02235174447,-187500.02235174447
$SILENCE,768.7882505402864,-10440.92451821858,5739.771513911666,9883.807287670052,-187500.02235174447,-187500.02235174447,-187500.02235174447,-187500.02235174447
$SILENCE,969.1269360932037,-10404.312360800786,6197.244667678437,9840.646069126853,-187500.02235174447,-187500.02235174447,-187500.02235174447,-187500.02235174447
$SILENCE,982.3368170662901,-10381.826505878747,6303.996599196983,9850.212615753724,-187500.02235174447,-187500.02235174447,-187500.02235174447,-187500.02235174447
$SILENCE,810.1166260381492,-10410.01205563689,5912.997533440296,9891.116308106937,-187500.02235174447,-187500.02235174447,-187500.02235174447,-187500.02235174447
$SILENCE,758.8640760021301,-10440.790407751849,5707.22737398474,9894.938456408794,-187500.02235174447,-187500.02235174447,-187500.02235174447,-187500.02235174447
$SILENCE,947.3116335048239,-10411.017884137378,6125.4061609990795,9849.273842486602,-187500.02235174447,-187500.02235174447,-187500.02235174447,-187500.02235174447
$SILENCE,998.8100527298513,-10379.993662833413,6329.119959964748,9847.731572119186,-187500.02235174447,-187500.02235174447,-187500.02235174447,-187500.02235174447
$SILENCE,840.2467775639032,-10400.981950876947,5993.240296034849,9888.568209239033,-187500.02235174447,-187500.02235174447,-187500.02235174447,-187500.02235174447
$SILENCE,742.189674638471,-10436.901204216625,5688.049577242086,9903.47682279072,-187500.02235174447,-187500.02235174447,-187500.02235174447,-187500.02235174447
$SILENCE,909.7830545643634,-10418.997456907924,6038.14495064556,9863.71306940473,-187500.02235174447,-187500.02235174447,-187500.02235174447,-187500.02235174447
$SILENCE,1008.2871923789016,-10381.535933200828,6339.759390325474,9851.598423909954,-187500.02235174447,-187500.02235174447,-187500.02235174447,-187500.02235174447
$SILENCE,879.7423100164307,-10393.71763392897,6077.260503442348,9886.5342004936,-187500.02235174447,-187500.02235174447,-187500.02235174447,-187500.02235174447
$SILENCE,739.1721891370046,-10430.620364024684,5697.191440724307,9905.756700725164,-187500.02235174447,-187500.02235174447,-187500.02235174447,-187500.02235174447
$SILENCE,869.4158040780788,-10422.819605209781,5946.994536756818,9864.204807782748,-187500.02235174447,-187500.02235174447,-187500.02235174447,-187500.02235174447
$SILENCE,1005.5155760664435,-10382.474706467952,6330.01402974296,9850.749057620653,-187500.02235174447,-187500.02235174447,-187500.02235174447,-187500.02235174447
$SILENCE,899.2330311814584,-10385.447488480508,6145.589786242222,9879.493400990177,-187500.02235174447,-187500.02235174447,-187500.02235174447,-187500.02235174447
$SILENCE,741.4967705603565,-10425.948849433524,5729.556766695591,9910.025883916127,-187500.02235174447,-187500.02235174447,-187500.02235174447,-187500.02235174447
$SILENCE,825.7404954124088,-10431.045047169335,5863.846047383076,9876.4312119998,-187500.02235174447,-187500.02235174447,-187500.02235174447,-187500.02235174447
$SILENCE,990.4728520480219,-10390.141354816122,6297.358131093756,9845.764618607118,-187500.02235174447,-187500.02235174447,-187500.02235174447,-187500.02235174447
$SILENCE,931.3748397081899,-10385.268674524865,6214.969601031495,9873.503133476155,-187500.02235174447,-187500.02235174447,-187500.02235174447,-187500.02235174447
$SILENCE,756.964177723429,-10418.751587718914,5781.14459289844,9911.612857772454,-187500.02235174447,-187500.02235174447,-187500.02235174447,-187500.02235174447
$SILENCE,798.3372567102024,-10433.771959992882,5795.919095983398,9893.664406974842,-187500.02235174447,-187500.02235174447,-187500.02235174447,-187500.02235174447
$SILENCE,980.6827879765974,-10392.465936239474,6254.442781739567,9852.783066366084,-187500.02235174447,-187500.02235174447,-187500.02235174447,-187500.02235174447
$SILENCE,954.7771161528965,-10377.780840132338,6269.261988313436,9870.150371807858,-187500.02235174447,-187500.02235174447,-187500.02235174447,-187500.02235174447
$SILENCE,780.6570268460545,-10413.275410327366,5849.719744887322,9910.159994382859,-187500.02235174447,-187500.02235174447,-187500.02235174447,-187500.02235174447
$SILENCE,769.995244740873,-10438.421122839585,5738.497464477714,9902.180421612313,-187500.02235174447,-187500.02235174447,-187500.02235174447,-187500.02235174447
$SILENCE,962.8907993901729,-10401.987779377436,6192.036711220349,9854.012412311127,-187500.02235174447,-187500.02235174447,-187500.02235174447,-187500.02235174447
$SILENCE,976.9500466525611,-10377.154991287589,6311.417378356145,9860.650880414352,-187500.02235174447,-187500.02235174447,-187500.02235174447,-187500.02235174447
$SILENCE,808.283782992814,-10404.424119523062,5924.575737068145,9904.303837335568,-187500.02235174447,-187500.02235174447,-187500.02235174447,-187500.02235174447
$SILENCE,746.1459334070604,-10438.64464028414,5699.046635514097,9909.265924604646,-187500.02235174447,-187500.02235174447,-187500.02235174447,-187500.02235174447
$SILENCE,925.9433658055503,-10411.800195193315,6110.072864302739,9858.19218852427,-187500.02235174447,-187500.02235174447,-187500.02235174447,-187500.02235174447
$SILENCE,992.2386398599912,-10379.680738411038,6337.412457157667,9856.269938501113,-187500.02235174447,-187500.02235174447,-187500.02235174447,-187500.02235174447
$SILENCE,840.894978153107,-10398.791479920326,6005.958438629918,9894.983159897705,-187500.02235174447,-187500.02235174447,-187500.02235174447,-187500.02235174447
$SILENCE,733.6960117454544,-10435.984782693957,5686.149678963385,9913.110424650959,-187500.02235174447,-187500.02235174447,-187500.02235174447,-187500.02235174447
$SILENCE,895.924973002073,-10418.72923597446,6030.835930208676,9867.803438640052,-187500.02235174447,-187500.02235174447,-187500.02235174447,-187500.02235174447
$SILENCE,996.5078230509548,-10378.786668632827,6347.515445651466,9854.727668133697,-187500.02235174447,-187500.02235174447,-187500.02235174447,-187500.02235174447
$SILENCE,877.2836181263469,-10390.275465282853,6090.448032670979,9893.10561336346,-187500.02235174447,-187500.02235174447,-187500.02235174447,-187500.02235174447
$SILENCE,743.061392672228,-10429.703942502016,5700.991237281709,9914.764453740652,-187500.02235174447,-187500.02235174447,-187500.02235174447,-187500.02235174447
$SILENCE,869.0358244223386,-10424.272468599376,5941.630118087544,9871.223255541714,-187500.02235174447,-187500.02235174447,-187500.02235174447,-187500.02235174447
$SILENCE,1009.3600761127564,-10381.58063668974,6340.385239170223,9849.832636097985,-187500.02235174447,-187500.02235174447,-187500.02235174447,-187500.02235174447
$SILENCE,911.7276563319751,-10384.754584402393,6169.528504553856,9880.320415535023,-187500.02235174447,-187500.02235174447,-187500.02235174447,-187500.02235174447
$SILENCE,746.5482648072559,-10426.708808745005,5736.128179565451,9913.602163028976,-187500.02235174447,-187500.02235174447,-187500.02235174447,-187500.02235174447
$SILENCE,823.795893644797,-10435.493044315941,5856.782896135199,9882.577941725009,-187500.02235174447,-187500.02235174447,-187500.02235174447,-187500.02235174447
$SILENCE,991.7021979930638,-10392.689453684026,6305.069482930838,9848.37977270839,-187500.02235174447,-187500.02235174447,-187500.02235174447,-187500.02235174447
$SILENCE,940.0249648123938,-10386.118040814166,6232.873348340196,9869.435115985289,-187500.02235174447,-187500.02235174447,-187500.02235174447,-187500.02235174447
$SILENCE,769.3246924072138,-10421.389093564641,5791.046415692141,9908.81888971554,-187500.02235174447,-187500.02235174447,-187500.02235174447,-187500.02235174447
$SILENCE,798.3596084546576,-10438.309364117309,5783.357415599516,9888.076470861015,-187500.02235174447,-187500.02235174447,-187500.02235174447,-187500.02235174447
$SILENCE,988.5729537693207,-10397.24920955291,6260.410697509134,9848.156255263837,-187500.02235174447,-187500.02235174447,-187500.02235174447,-187500.02235174447
$SILENCE,966.2659128029243,-10379.278407010843,6292.328988591313,9866.708203161741,-187500.02235174447,-187500.02235174447,-187500.02235174447,-187500.02235174447
$SILENCE,793.3975211855795,-10413.610686494194,5864.047213083174,9913.691570006797,-187500.02235174447,-187500.02235174447,-187500.02235174447,-187500.02235174447
$SILENCE,774.5550006097557,-10441.460960085507,5727.3662957389715,9901.24164834519,-187500.02235174447,-187500.02235174447,-187500.02235174447,-187500.02235174447
$SILENCE,969.7527849379522,-10406.614590479683,6190.449737364022,9853.408915210834,-187500.02235174447,-187500.02235174447,-187500.02235174447,-187500.02235174447
$SILENCE,992.082177648804,-10382.027671578846,6328.382352397723,9858.058078057538,-187500.02235174447,-187500.02235174447,-187500.02235174447,-187500.02235174447
$SILENCE,824.1088180671715,-10408.179212591554,5940.400772142502,9901.085186134003,-187500.02235174447,-187500.02235174447,-187500.02235174447,-187500.02235174447
$SILENCE,753.6337677995882,-10442.82441649728,5692.050539499586,9905.376721069422,-187500.02235174447,-187500.02235174447,-187500.02235174447,-187500.02235174447
$SILENCE,939.5555781788324,-10417.768110962881,6107.7929863682975,9858.303947246546,-187500.02235174447,-187500.02235174447,-187500.02235174447,-187500.02235174447
$SILENCE,1009.3153726238457,-10383.636997179628,6351.091724764315,9856.00171756765,-187500.02235174447,-187500.02235174447,-187500.02235174447,-187500.02235174447
$SILENCE,859.6704434955649,-10401.764261932882,6024.7339039723765,9898.425328543823,-187500.02235174447,-187500.02235174447,-187500.02235174447,-187500.02235174447
$SILENCE,743.3966688390576,-10439.404599595618,5681.321702161039,9912.082244406014,-187500.02235174447,-187500.02235174447,-187500.02235174447,-187500.02235174447
$SILENCE,899.0765689702713,-10423.02077090988,6014.943839900951,9862.461371715233,-187500.02235174447,-187500.02235174447,-187500.02235174447,-187500.02235174447
$SILENCE,1009.5165383239435,-10383.078203568246,6351.181131742136,9846.390467451867,-187500.02235174447,-187500.02235174447,-187500.02235174447,-187500.02235174447
$SILENCE,888.7947665208301,-10393.270599039864,6104.663742144554,9886.422441771323,-187500.02235174447,-187500.02235174447,-187500.02235174447,-187500.02235174447
$SILENCE,746.7494305073536,-10436.185948394055,5700.611257625968,9913.848032217984,-187500.02235174447,-187500.02235174447,-187500.02235174447,-187500.02235174447
$SILENCE,867.3147400992799,-10433.660201270604,5925.872138246553,9871.513828219633,-187500.02235174447,-187500.02235174447,-187500.02235174447,-187500.02235174447
$SILENCE,1016.2891168939016,-10389.157878060088,6338.977079269538,9849.966746564716,-187500.02235174447,-187500.02235174447,-187500.02235174447,-187500.02235174447
$SILENCE,923.1493977486369,-10388.777898404349,6180.682025037054,9882.868514402928,-187500.02235174447,-187500.02235174447,-187500.02235174447,-187500.02235174447
$SILENCE,755.1760381670044,-10428.094616901233,5740.7549906677,9916.172613641336,-187500.02235174447,-187500.02235174447,-187500.02235174447,-187500.02235174447
$SILENCE,833.1389228271155,-10436.87885247217,5842.276613983705,9880.566284724031,-187500.02235174447,-187500.02235174447,-187500.02235174447,-187500.02235174447
$SILENCE,1014.0539424483708,-10394.72346242946,6304.242468385991,9843.32827846149,-187500.02235174447,-187500.02235174447,-187500.02235174447,-187500.02235174447
$SILENCE,957.3922702541674,-10386.118040814166,6247.401982236145,9867.021127584116,-187500.02235174447,-187500.02235174447,-187500.02235174447,-187500.02235174447
$SILENCE,779.5170878788338,-10422.216108109487,5800.903534996932,9904.48265129121,-187500.02235174447,-187500.02235174447,-187500.02235174447,-187500.02235174447
$SILENCE,799.6560096330654,-10440.991573451945,5770.616921259991,9885.148392337369,-187500.02235174447,-187500.02235174447,-187500.02235174447,-187500.02235174447
$SILENCE,990.1822793701028,-10400.311398543286,6248.6760316700975,9842.434208683278,-187500.02235174447,-187500.02235174447,-187500.02235174447,-187500.02235174447
$SILENCE,981.7109682215415,-10383.704052412993,6302.454328829566,9863.467200215722,-187500.02235174447,-187500.02235174447,-187500.02235174447,-187500.02235174447
$SILENCE,805.0874835357051,-10415.175308606065,5875.692471944389,9902.918029179338,-187500.02235174447,-187500.02235174447,-187500.02235174447,-187500.02235174447
$SILENCE,772.252770930859,-10443.53967231985,5716.436292700326,9893.507944763654,-187500.02235174447,-187500.02235174447,-187500.02235174447,-187500.02235174447
$SILENCE,970.4903925049773,-10410.749663203915,6173.283597622347,9846.815150596518,-187500.02235174447,-187500.02235174447,-187500.02235174447,-187500.02235174447
$SILENCE,1000.4417300750888,-10383.592293690717,6330.662230332164,9853.4759704442,-187500.02235174447,-187500.02235174447,-187500.02235174447,-187500.02235174447
$SILENCE,824.511149467367,-10406.0557968683,5948.983842013341,9895.430194786812,-187500.02235174447,-187500.02235174447,-187500.02235174447,-187500.02235174447
$SILENCE,745.7659537513201,-10439.985744951457,5685.054443485074,9906.29314259209,-187500.02235174447,-187500.02235174447,-187500.02235174447,-187500.02235174447
$SILENCE,928.8043890958297,-10415.331770817253,6092.437337927501,9859.734458891686,-187500.02235174447,-187500.02235174447,-187500.02235174447,-187500.02235174447
$SILENCE,1007.7954540008849,-10380.798325633803,6353.751582354496,9853.587729166476,-187500.02235174447,-187500.02235174447,-187500.02235174447,-187500.02235174447
$SILENCE,863.5819987752436,-10397.092747341723,6042.414133836524,9895.452546531265,-187500.02235174447,-187500.02235174447,-187500.02235174447,-187500.02235174447
$SILENCE,739.1721891370046,-10436.096541416233,5683.668635328846,9911.434043816811,-187500.02235174447,-187500.02235174447,-187500.02235174447,-187500.02235174447
$SILENCE,890.0017607214166,-10423.780730221359,5995.631932691566,9862.416668226322,-187500.02235174447,-187500.02235174447,-187500.02235174447,-187500.02235174447
$SILENCE,1016.8032070163736,-10381.848857623203,6350.801152086396,9843.507092417132,-187500.02235174447,-187500.02235174447,-187500.02235174447,-187500.02235174447
$SILENCE,897.8248712807741,-10388.397918748607,6119.527652207334,9880.722746935218,-187500.02235174447,-187500.02235174447,-187500.02235174447,-187500.02235174447
$SILENCE,743.6648897725213,-10429.458073313008,5706.489766417714,9909.332979838013,-187500.02235174447,-187500.02235174447,-187500.02235174447,-187500.02235174447
$SILENCE,859.379870817646,-10428.184023879056,5908.616591527056,9870.843275885973,-187500.02235174447,-187500.02235174447,-187500.02235174447,-187500.02235174447
$SILENCE,1014.72449478203,-10385.872171625158,6328.985849498016,9842.23304298318,-187500.02235174447,-187500.02235174447,-187500.02235174447,-187500.02235174447
$SILENCE,926.8374355837626,-10386.542723958817,6190.963827486495,9872.340842764479,-187500.02235174447,-187500.02235174447,-187500.02235174447,-187500.02235174447
$SILENCE,756.1818666674932,-10423.668971499083,5751.528531495158,9911.81402347255,-187500.02235174447,-187500.02235174447,-187500.02235174447,-187500.02235174447
$SILENCE,820.5325389543223,-10433.615497781695,5827.323296943105,9883.606121969953,-187500.02235174447,-187500.02235174447,-187500.02235174447,-187500.02235174447
$SILENCE,1003.9062504656614,-10391.795383905815,6291.479622302011,9845.719915118209,-187500.02235174447,-187500.02235174447,-187500.02235174447,-187500.02235174447
$SILENCE,953.4807149744887,-10381.066546567268,6252.252310782947,9864.718897905219,-187500.02235174447,-187500.02235174447,-187500.02235174447,-187500.02235174447
$SILENCE,769.0788232182055,-10415.91291617309,5810.447729879347,9905.354369324967,-187500.02235174447,-187500.02235174447,-187500.02235174447,-187500.02235174447
$SILENCE,777.930114022507,-10437.147073405633,5754.2554443187055,9888.76937493913,-187500.02235174447,-187500.02235174447,-187500.02235174447,-187500.02235174447
$SILENCE,976.6594739746421,-10398.903238642602,6226.011362792417,9844.647031384353,-187500.02235174447,-187500.02235174447,-187500.02235174447,-187500.02235174447
$SILENCE,975.2960175628684,-10379.278407010843,6295.726453748519,9861.209674025737,-187500.02235174447,-187500.02235174447,-187500.02235174447,-187500.02235174447
$SILENCE,799.1195677661381,-10408.961523647491,5885.884867416009,9904.862630946951,-187500.02235174447,-187500.02235174447,-187500.02235174447,-187500.02235174447
$SILENCE,755.6007213116552,-10437.035314683357,5711.116577519962,9901.599276256477,-187500.02235174447,-187500.02235174447,-187500.02235174447,-187500.02235174447
$SILENCE,947.5575026938324,-10406.01109337939,6157.637376503632,9852.067810543514,-187500.02235174447,-187500.02235174447,-187500.02235174447,-187500.02235174447
$SILENCE,987.3436078242789,-10379.926607600048,6329.008201242471,9852.80541811054,-187500.02235174447,-187500.02235174447,-187500.02235174447,-187500.02235174447
$SILENCE,825.1369983121156,-10404.021788122867,5962.730164853355,9895.653712231364,-187500.02235174447,-187500.02235174447,-187500.02235174447,-187500.02235174447
$SILENCE,735.4394478129683,-10438.287012372853,5681.478164372225,9903.47682279072,-187500.02235174447,-187500.02235174447,-187500.02235174447,-187500.02235174447
$SILENCE,912.6887813435533,-10415.667046984083,6065.525837603312,9856.605214667943,-187500.02235174447,-187500.02235174447,-187500.02235174447,-187500.02235174447
$SILENCE,998.1395003961921,-10378.786668632827,6340.318183936856,9850.614947153921,-187500.02235174447,-187500.02235174447,-187500.02235174447,-187500.02235174447
$SILENCE,859.1563533730929,-10393.807040906793,6047.264462383326,9890.870438917927,-187500.02235174447,-187500.02235174447,-187500.02235174447,-187500.02235174447
$SILENCE,729.3374215766695,-10431.514433802895,5684.965036507254,9906.918991436838,-187500.02235174447,-187500.02235174447,-187500.02235174447,-187500.02235174447
$SILENCE,875.1154989141821,-10420.606782508705,5975.627121404067,9861.209674025737,-187500.02235174447,-187500.02235174447,-187500.02235174447,-187500.02235174447
$SILENCE,1002.7663114984407,-10379.971311088957,6337.971250769049,9844.691734873264,-187500.02235174447,-187500.02235174447,-187500.02235174447,-187500.02235174447
$SILENCE,894.2038886790143,-10386.073337325257,6127.708390677976,9879.381642267901,-187500.02235174447,-187500.02235174447,-187500.02235174447,-187500.02235174447
$SILENCE,740.4909420598677,-10425.97120117798,5718.962039823776,9911.277581605624,-187500.02235174447,-187500.02235174447,-187500.02235174447,-187500.02235174447
$SILENCE,844.4265537770456,-10426.865270956192,5895.853745443076,9876.207694555247,-187500.02235174447,-187500.02235174447,-187500.02235174447,-187500.02235174447
$SILENCE,1005.6496865331753,-10385.38043324714,6317.698218548086,9845.764618607118,-187500.02235174447,-187500.02235174447,-187500.02235174447,-187500.02235174447
$SILENCE,924.0658192713046,-10383.704052412993,6197.691702567542,9872.832581142495,-187500.02235174447,-187500.02235174447,-187500.02235174447,-187500.02235174447
$SILENCE,752.5608840657335,-10419.533898774851,5765.6995374798225,9909.444738560289,-187500.02235174447,-187500.02235174447,-187500.02235174447,-187500.02235174447
$SILENCE,805.5345184248113,-10430.910936702603,5814.873375281498,9882.063851602537,-187500.02235174447,-187500.02235174447,-187500.02235174447,-187500.02235174447
$SILENCE,986.3824828127007,-10390.074299582757,6272.52534300391,9843.104761016937,-187500.02235174447,-187500.02235174447,-187500.02235174447,-187500.02235174447
$SILENCE,953.0783835742932,-10378.920779099559,6256.543845718365,9864.584787438487,-187500.02235174447,-187500.02235174447,-187500.02235174447,-187500.02235174447
$SILENCE,780.6570268460545,-10413.208355093999,5826.920965542909,9901.711034978753,-187500.02235174447,-187500.02235174447,-187500.02235174447,-187500.02235174447
$SILENCE,778.3100936782472,-10435.44834082703,5747.885197148943,9887.025938871615,-187500.02235174447,-187500.02235174447,-187500.02235174447,-187500.02235174447
$SILENCE,967.5623139813322,-10398.366796775676,6211.952115530028,9845.742266862664,-187500.02235174447,-187500.02235174447,-187500.02235174447,-187500.02235174447
$SILENCE,975.8771629187064,-10378.71961339946,6302.655494529664,9858.795685624562,-187500.02235174447,-187500.02235174447,-187500.02235174447,-187500.02235174447
$SILENCE,807.412064959057,-10406.905163157602,5904.235649613816,9898.648845988375,-187500.02235174447,-187500.02235174447,-187500.02235174447,-187500.02235174447
$SILENCE,756.8300672566971,-10435.135416404655,5709.864879830466,9896.838354687496,-187500.02235174447,-187500.02235174447,-187500.02235174447,-187500.02235174447
$SILENCE,945.0541073148379,-10405.117023601179,6139.957146639485,9852.447790199256,-187500.02235174447,-187500.02235174447,-187500.02235174447,-187500.02235174447
$SILENCE,991.501032292966,-10376.730308142938,6331.86922453275,9852.71601113272,-187500.02235174447,-187500.02235174447,-187500.02235174447,-187500.02235174447
$SILENCE,829.3838297586238,-10398.523258986863,5983.964322085896,9892.189191840791,-187500.02235174447,-187500.02235174447,-187500.02235174447,-187500.02235174447
$SILENCE,728.9797936653846,-10435.381285593663,5685.814402796555,9902.783918712606,-187500.02235174447,-187500.02235174447,-187500.02235174447,-187500.02235174447
$SILENCE,900.1941561930366,-10415.711750472994,6049.2761193843035,9855.688793145275,-187500.02235174447,-187500.02235174447,-187500.02235174447,-187500.02235174447
$SILENCE,998.9218114521279,-10378.563151188273,6344.073277005348,9852.671307643808,-187500.02235174447,-187500.02235174447,-187500.02235174447,-187500.02235174447
$SILENCE,863.8055162197968,-10391.34834901671,6064.564712591733,9886.198924326769,-187500.02235174447,-187500.02235174447,-187500.02235174447,-187500.02235174447
