WORD,Channel_1,Channel_2,Channel_3,Channel_4,Channel_5,Channel_6,Channel_7,Channel_8
$SILENCE,824.9805361009284,-10505.252838760953,6476.3285489474,9431.475035128002,-187500.02235174447,-187500.02235174447,-187500.02235174447,-187500.02235174447
$SILENCE,734.1206948901051,-10498.882591591191,6330.304602420879,9461.7840006094,-187500.02235174447,-187500.02235174447,-187500.02235174447,-187500.02235174447
$SILENCE,546.0531170431516,-10534.84654841978,5861.476762470814,9503.894687163198,-187500.02235174447,-187500.02235174447,-187500.02235174447,-187500.02235174447
$SILENCE,612.3930945865029,-10549.106961382266,5937.316231407671,9477.273759516926,-187500.02235174447,-187500.02235174447,-187500.02235174447,-187500.02235174447
$SILENCE,811.345971983191,-10509.0302835739,6438.6211560512975,9440.907471288141,-187500.02235174447,-187500.02235174447,-187500.02235174447,-187500.02235174447
$SILENCE,760.4957533473676,-10495.529829922894,6401.561963744398,9459.995861052974,-187500.02235174447,-187500.02235174447,-187500.02235174447,-187500.02235174447
$SILENCE,568.360158009548,-10527.492824493984,5928.062609203173,9496.384501026214,-187500.02235174447,-187500.02235174447,-187500.02235174447,-187500.02235174447
$SILENCE,582.1064808495619,-10551.744467227993,5864.11426831654,9480.626521185222,-187500.02235174447,-187500.02235174447,-187500.02235174447,-187500.02235174447
$SILENCE,791.6764368625209,-10516.65222843316,6372.124716296758,9437.644116597667,-187500.02235174447,-187500.02235174447,-187500.02235174447,-187500.02235174447
$SILENCE,788.9718757834287,-10496.043920045367,6447.830074766884,9451.6810121156,-187500.02235174447,-187500.02235174447,-187500.02235174447,-187500.02235174447
$SILENCE,603.228879359827,-10524.050655847866,6004.125595584584,9490.751861423476,-187500.02235174447,-187500.02235174447,-187500.02235174447,-187500.02235174447
$SILENCE,565.230913785805,-10556.527740541427,5811.051226979641,9485.476849732024,-187500.02235174447,-187500.02235174447,-187500.02235174447,-187500.02235174447
$SILENCE,782.1769454690153,-10529.571536728328,6293.5806862808095,9437.733523575489,-187500.02235174447,-187500.02235174447,-187500.02235174447,-187500.02235174447
$SILENCE,824.7570186563753,-10498.927295080102,6481.6482641277635,9439.834587554287,-187500.02235174447,-187500.02235174447,-187500.02235174447,-187500.02235174447
$SILENCE,647.6641473369774,-10518.663885434138,6088.637541370099,9480.69357641859,-187500.02235174447,-187500.02235174447,-187500.02235174447,-187500.02235174447
$SILENCE,548.1094775330398,-10554.113752140254,5784.586761544557,9496.049224859384,-187500.02235174447,-187500.02235174447,-187500.02235174447,-187500.02235174447
$SILENCE,739.3733548371023,-10532.589022229795,6205.157185215615,9454.318517961327,-187500.02235174447,-187500.02235174447,-187500.02235174447,-187500.02235174447
$SILENCE,828.0650768357608,-10494.009911299934,6501.563668437442,9448.149436491662,-187500.02235174447,-187500.02235174447,-187500.02235174447,-187500.02235174447
$SILENCE,667.1325167575499,-10507.845641117769,6179.117402925182,9487.846134644287,-187500.02235174447,-187500.02235174447,-187500.02235174447,-187500.02235174447
$SILENCE,524.3495731770483,-10546.491807280994,5786.151383656429,9511.851908189286,-187500.02235174447,-187500.02235174447,-187500.02235174447,-187500.02235174447
$SILENCE,680.2753424972705,-10536.65703972066,6103.5685066662445,9467.282529745404,-187500.02235174447,-187500.02235174447,-187500.02235174447,-187500.02235174447
$SILENCE,812.3965039725905,-10495.015739800423,6492.399453210766,9446.450703913059,-187500.02235174447,-187500.02235174447,-187500.02235174447,-187500.02235174447
$SILENCE,691.0712350691838,-10499.486088691485,6258.153171319148,9482.30290201937,-187500.02235174447,-187500.02235174447,-187500.02235174447,-187500.02235174447
$SILENCE,521.1756254643948,-10539.89804266668,5805.865622266009,9506.800413942387,-187500.02235174447,-187500.02235174447,-187500.02235174447,-187500.02235174447
$SILENCE,638.1423041990166,-10544.234281091009,6002.516269983801,9468.422468712624,-187500.02235174447,-187500.02235174447,-187500.02235174447,-187500.02235174447
$SILENCE,815.3692859851463,-10498.994350313467,6465.286787186478,9441.734485832989,-187500.02235174447,-187500.02235174447,-187500.02235174447,-187500.02235174447
$SILENCE,729.5832907656778,-10495.619236900717,6330.550471609888,9471.417602469635,-187500.02235174447,-187500.02235174447,-187500.02235174447,-187500.02235174447
$SILENCE,542.588596652579,-10535.070065864333,5854.2795007562045,9507.158041853672,-187500.02235174447,-187500.02235174447,-187500.02235174447,-187500.02235174447
$SILENCE,602.4018648149806,-10550.291603838397,5914.137472407517,9483.040509586395,-187500.02235174447,-187500.02235174447,-187500.02235174447,-187500.02235174447
$SILENCE,801.7123701229538,-10508.113862051232,6416.4929290405435,9445.087247501284,-187500.02235174447,-187500.02235174447,-187500.02235174447,-187500.02235174447
$SILENCE,757.7911922682754,-10492.311178721331,6392.285989795446,9465.986128566996,-187500.02235174447,-187500.02235174447,-187500.02235174447,-187500.02235174447
$SILENCE,565.0520998301625,-10524.900022137168,5922.228803900338,9506.934524409118,-187500.02235174447,-187500.02235174447,-187500.02235174447,-187500.02235174447
$SILENCE,564.359195752048,-10551.967984672545,5840.242605238272,9492.271780046438,-187500.02235174447,-187500.02235174447,-187500.02235174447,-187500.02235174447
$SILENCE,777.7960035557752,-10515.780510399403,6347.917777051661,9446.383648679692,-187500.02235174447,-187500.02235174447,-187500.02235174447,-187500.02235174447
$SILENCE,782.5792768692108,-10490.433632187085,6440.252833396535,9460.979337809007,-187500.02235174447,-187500.02235174447,-187500.02235174447,-187500.02235174447
$SILENCE,597.3280188236259,-10517.300429022363,6012.57455498869,9503.626466229733,-187500.02235174447,-187500.02235174447,-187500.02235174447,-187500.02235174447
$SILENCE,546.813076354632,-10546.22358634753,5822.741189329767,9500.251352816982,-187500.02235174447,-187500.02235174447,-187500.02235174447,-187500.02235174447
$SILENCE,738.2334158698817,-10521.055522090855,6255.00157535095,9457.24659648497,-187500.02235174447,-187500.02235174447,-187500.02235174447,-187500.02235174447
$SILENCE,801.9358875675068,-10488.824306586303,6488.443194442177,9460.174675008617,-187500.02235174447,-187500.02235174447,-187500.02235174447,-187500.02235174447
$SILENCE,614.4271033319359,-10511.26545801943,6070.823201039219,9507.73918720951,-187500.02235174447,-187500.02235174447,-187500.02235174447,-187500.02235174447
$SILENCE,516.1464829619507,-10548.99520265999,5756.3118048085935,9517.059864647374,-187500.02235174447,-187500.02235174447,-187500.02235174447,-187500.02235174447
$SILENCE,711.5230812457897,-10527.828100660814,6168.589731286733,9466.433163456102,-187500.02235174447,-187500.02235174447,-187500.02235174447,-187500.02235174447
$SILENCE,810.3848469716129,-10490.858315331736,6480.128345504802,9453.737372605488,-187500.02235174447,-187500.02235174447,-187500.02235174447,-187500.02235174447
$SILENCE,657.163638730483,-10502.74944338196,6171.070774921272,9494.26108530296,-187500.02235174447,-187500.02235174447,-187500.02235174447,-187500.02235174447
$SILENCE,513.5983840940457,-10541.999106645479,5770.2816450931605,9517.663361747665,-187500.02235174447,-187500.02235174447,-187500.02235174447,-187500.02235174447
$SILENCE,669.837077836642,-10535.94178389809,6075.047680741272,9474.59155018229,-187500.02235174447,-187500.02235174447,-187500.02235174447,-187500.02235174447
$SILENCE,811.4353789610122,-10493.138193266177,6475.076851257903,9452.530378404901,-187500.02235174447,-187500.02235174447,-187500.02235174447,-187500.02235174447
$SILENCE,692.3899879920468,-10498.41320495763,6255.873293384707,9486.393271254692,-187500.02235174447,-187500.02235174447,-187500.02235174447,-187500.02235174447
$SILENCE,517.7781603071882,-10538.400475788174,5805.373883887993,9519.987943171018,-187500.02235174447,-187500.02235174447,-187500.02235174447,-187500.02235174447
$SILENCE,632.420257618458,-10542.580252001317,5985.394833731036,9484.82864914282,-187500.02235174447,-187500.02235174447,-187500.02235174447,-187500.02235174447
$SILENCE,812.575317928233,-10499.17316426911,6451.965147491115,9453.133875505195,-187500.02235174447,-187500.02235174447,-187500.02235174447,-187500.02235174447
$SILENCE,721.9166424175075,-10495.283960733886,6325.878957018728,9472.646948414678,-187500.02235174447,-187500.02235174447,-187500.02235174447,-187500.02235174447
$SILENCE,534.8995965599534,-10533.661905963649,5852.625471666512,9516.501071035991,-187500.02235174447,-187500.02235174447,-187500.02235174447,-187500.02235174447
$SILENCE,594.7352164668104,-10548.32465032633,5898.424196055436,9494.797527169887,-187500.02235174447,-187500.02235174447,-187500.02235174447,-187500.02235174447
$SILENCE,797.9796287989175,-10506.12455679471,6402.634847478253,9453.402096438658,-187500.02235174447,-187500.02235174447,-187500.02235174447,-187500.02235174447
$SILENCE,754.3937271110686,-10491.439460687574,6388.709710682597,9472.132858292205,-187500.02235174447,-187500.02235174447,-187500.02235174447,-187500.02235174447
$SILENCE,558.3689282380258,-10524.765911670436,5919.323077121148,9513.55064076789,-187500.02235174447,-187500.02235174447,-187500.02235174447,-187500.02235174447
$SILENCE,557.2513410152603,-10549.688106738104,5827.2785934541935,9503.872335418742,-187500.02235174447,-187500.02235174447,-187500.02235174447,-187500.02235174447
$SILENCE,773.7726895538199,-10512.450100475562,6333.389143155711,9454.810256339342,-187500.02235174447,-187500.02235174447,-187500.02235174447,-187500.02235174447
$SILENCE,785.4626519039455,-10489.159582753133,6439.22465315159,9468.489523945991,-187500.02235174447,-187500.02235174447,-187500.02235174447,-187500.02235174447
$SILENCE,596.7692252122432,-10515.959324355046,6005.734921185365,9512.50010877849,-187500.02235174447,-187500.02235174447,-187500.02235174447,-187500.02235174447
$SILENCE,531.6138901250232,-10547.832911948313,5779.401156830926,9511.06959713335,-187500.02235174447,-187500.02235174447,-187500.02235174447,-187500.02235174447
$SILENCE,735.5512065352448,-10520.072045334822,6248.117238058715,9461.091096531283,-187500.02235174447,-187500.02235174447,-187500.02235174447,-187500.02235174447
$SILENCE,794.6939223639873,-10488.869010075214,6463.208074952135,9458.274776729915,-187500.02235174447,-187500.02235174447,-187500.02235174447,-187500.02235174447
$SILENCE,620.2162051458604,-10508.806766129348,6084.189544223493,9498.239695816004,-187500.02235174447,-187500.02235174447,-187500.02235174447,-187500.02235174447
$SILENCE,511.6984858153446,-10547.967022415045,5752.7578774402,9512.857736689775,-187500.02235174447,-187500.02235174447,-187500.02235174447,-187500.02235174447
$SILENCE,703.0741218416837,-10532.298449551876,6153.189379357026,9466.030832055907,-187500.02235174447,-187500.02235174447,-187500.02235174447,-187500.02235174447
$SILENCE,821.4042569880793,-10490.187762998077,6503.932953349705,9454.273814472415,-187500.02235174447,-187500.02235174447,-187500.02235174447,-187500.02235174447
$SILENCE,655.4649061518796,-10502.727091637504,6170.4896295654335,9496.764480681954,-187500.02235174447,-187500.02235174447,-187500.02235174447,-187500.02235174447
$SILENCE,520.9968115087523,-10548.257595092964,5774.774345728677,9514.489414035013,-187500.02235174447,-187500.02235174447,-187500.02235174447,-187500.02235174447
$SILENCE,668.5630284026895,-10541.79794094538,6042.704706514443,9475.083288560307,-187500.02235174447,-187500.02235174447,-187500.02235174447,-187500.02235174447
$SILENCE,808.5967074151883,-10496.558010167839,6444.410257865222,9452.463323171536,-187500.02235174447,-187500.02235174447,-187500.02235174447,-187500.02235174447
$SILENCE,694.3792932485692,-10496.826231101302,6249.23482528148,9486.21445729905,-187500.02235174447,-187500.02235174447,-187500.02235174447,-187500.02235174447
$SILENCE,519.1416167189618,-10538.869862421736,5792.588686059557,9518.22215535905,-187500.02235174447,-187500.02235174447,-187500.02235174447,-187500.02235174447
$SILENCE,610.4484928188912,-10545.865958436247,5954.996461271819,9482.72758516402,-187500.02235174447,-187500.02235174447,-187500.02235174447,-187500.02235174447
$SILENCE,790.4247391730237,-10504.358768982742,6426.864138467806,9447.031849268897,-187500.02235174447,-187500.02235174447,-187500.02235174447,-187500.02235174447
$SILENCE,718.2733080712925,-10496.021568300912,6318.592288326298,9473.697480404076,-187500.02235174447,-187500.02235174447,-187500.02235174447,-187500.02235174447
$SILENCE,537.7382681057774,-10530.398551273174,5848.400991964459,9519.809129215375,-187500.02235174447,-187500.02235174447,-187500.02235174447,-187500.02235174447
$SILENCE,584.5428209951903,-10547.452932292574,5876.765355678243,9497.54679173789,-187500.02235174447,-187500.02235174447,-187500.02235174447,-187500.02235174447
$SILENCE,784.1215472366271,-10509.387911485186,6382.272408279468,9453.692669116577,-187500.02235174447,-187500.02235174447,-187500.02235174447,-187500.02235174447
$SILENCE,755.3548521226469,-10495.283960733886,6385.69222518113,9468.668337901634,-187500.02235174447,-187500.02235174447,-187500.02235174447,-187500.02235174447
$SILENCE,565.812059141643,-10526.777568671414,5920.999457955296,9511.047245388896,-187500.02235174447,-187500.02235174447,-187500.02235174447,-187500.02235174447
$SILENCE,555.0832218030956,-10552.973813173034,5807.430244377881,9502.799451684887,-187500.02235174447,-187500.02235174447,-187500.02235174447,-187500.02235174447
$SILENCE,764.0496807157613,-10518.641533689683,6309.517480077444,9454.653794128155,-187500.02235174447,-187500.02235174447,-187500.02235174447,-187500.02235174447
$SILENCE,775.2926081767807,-10492.400585699152,6426.148882645236,9463.572140165823,-187500.02235174447,-187500.02235174447,-187500.02235174447,-187500.02235174447
$SILENCE,594.2211263443382,-10520.384969757197,6001.421034505491,9509.102643621283,-187500.02235174447,-187500.02235174447,-187500.02235174447,-187500.02235174447
$SILENCE,532.329145947593,-10555.030173662923,5761.966796155786,9507.940352909607,-187500.02235174447,-187500.02235174447,-187500.02235174447,-187500.02235174447
$SILENCE,731.8855204445745,-10527.60458321626,6221.272792967891,9457.403058696158,-187500.02235174447,-187500.02235174447,-187500.02235174447,-187500.02235174447
$SILENCE,793.1963554854817,-10492.557047910339,6453.820342280906,9463.125105276717,-187500.02235174447,-187500.02235174447,-187500.02235174447,-187500.02235174447
$SILENCE,625.0441819482068,-10510.997237085967,6089.866887315141,9508.45444303208,-187500.02235174447,-187500.02235174447,-187500.02235174447,-187500.02235174447
$SILENCE,509.30684915862673,-10547.385877059207,5750.679165205856,9523.854794961786,-187500.02235174447,-187500.02235174447,-187500.02235174447,-187500.02235174447
$SILENCE,691.3618077471027,-10529.504481494962,6131.463483746467,9474.59155018229,-187500.02235174447,-187500.02235174447,-187500.02235174447,-187500.02235174447
$SILENCE,804.3051724797693,-10490.657149631637,6462.671633085208,9457.090134273783,-187500.02235174447,-187500.02235174447,-187500.02235174447,-187500.02235174447
$SILENCE,658.4600399088907,-10502.391815470673,6172.300120866314,9495.758652181465,-187500.02235174447,-187500.02235174447,-187500.02235174447,-187500.02235174447
$SILENCE,509.75388404773287,-10542.9378799126,5758.56933099858,9525.5982310293,-187500.02235174447,-187500.02235174447,-187500.02235174447,-187500.02235174447
$SILENCE,656.8954177970193,-10539.719228711037,6035.5745000332,9487.801431155376,-187500.02235174447,-187500.02235174447,-187500.02235174447,-187500.02235174447
$SILENCE,817.7609226418642,-10496.848582845758,6478.116688503825,9460.5323029199,-187500.02235174447,-187500.02235174447,-187500.02235174447,-187500.02235174447
$SILENCE,692.6358571810553,-10495.954513067545,6258.734316674986,9498.239695816004,-187500.02235174447,-187500.02235174447,-187500.02235174447,-187500.02235174447
$SILENCE,515.5653376061127,-10536.545280998384,5797.349607628537,9528.50395780849,-187500.02235174447,-187500.02235174447,-187500.02235174447,-187500.02235174447
$SILENCE,604.8158532161538,-10541.619126989739,5937.472693618857,9500.653684217177,-187500.02235174447,-187500.02235174447,-187500.02235174447,-187500.02235174447
$SILENCE,780.9028960350629,-10500.22369625851,6397.538649742442,9468.333061734804,-187500.02235174447,-187500.02235174447,-187500.02235174447,-187500.02235174447
$SILENCE,713.1100551021166,-10490.701853120549,6314.948953980083,9489.678977689622,-187500.02235174447,-187500.02235174447,-187500.02235174447,-187500.02235174447
$SILENCE,526.0483057556518,-10527.045789604877,5846.076410541107,9523.787739728421,-187500.02235174447,-187500.02235174447,-187500.02235174447,-187500.02235174447
$SILENCE,565.2532655302604,-10544.99424040249,5853.743058889278,9504.49818426349,-187500.02235174447,-187500.02235174447,-187500.02235174447,-187500.02235174447
$SILENCE,769.1682301960267,-10503.934085838091,6363.966329570571,9467.10371578976,-187500.02235174447,-187500.02235174447,-187500.02235174447,-187500.02235174447
$SILENCE,745.7436020068649,-10488.98076879749,6383.278236779957,9483.800468897876,-187500.02235174447,-187500.02235174447,-187500.02235174447,-187500.02235174447
$SILENCE,559.4418119718805,-10521.99429535798,5921.7817690112315,9523.385408328224,-187500.02235174447,-187500.02235174447,-187500.02235174447,-187500.02235174447
$SILENCE,542.4544861858471,-10548.726981726526,5791.806375003622,9513.193012856605,-187500.02235174447,-187500.02235174447,-187500.02235174447,-187500.02235174447
$SILENCE,753.3878986105799,-10515.154661554654,6290.160869379148,9464.935596577598,-187500.02235174447,-187500.02235174447,-187500.02235174447,-187500.02235174447
$SILENCE,776.2090296994484,-10491.17123975411,6423.287859354957,9473.138686792694,-187500.02235174447,-187500.02235174447,-187500.02235174447,-187500.02235174447
$SILENCE,594.2211263443382,-10516.205193544054,6008.551240986734,9520.636143760223,-187500.02235174447,-187500.02235174447,-187500.02235174447,-187500.02235174447
$SILENCE,522.6955440873556,-10548.950499171078,5758.725793209767,9523.541870539411,-187500.02235174447,-187500.02235174447,-187500.02235174447,-187500.02235174447
$SILENCE,725.0458866412505,-10521.055522090855,6210.074568995782,9472.624596670223,-187500.02235174447,-187500.02235174447,-187500.02235174447,-187500.02235174447
$SILENCE,789.1506897390711,-10488.198457741555,6449.618214323308,9468.936558835097,-187500.02235174447,-187500.02235174447,-187500.02235174447,-187500.02235174447
$SILENCE,619.612708045567,-10509.723187652015,6086.469422157935,9504.811108685864,-187500.02235174447,-187500.02235174447,-187500.02235174447,-187500.02235174447
$SILENCE,504.4565206118251,-10547.877615437224,5738.318650522072,9522.781911227932,-187500.02235174447,-187500.02235174447,-187500.02235174447,-187500.02235174447
$SILENCE,689.2383920238486,-10531.069103606833,6113.157405037571,9473.853942615264,-187500.02235174447,-187500.02235174447,-187500.02235174447,-187500.02235174447
$SILENCE,808.1496725260822,-10490.388928698174,6460.369403406311,9458.878273830209,-187500.02235174447,-187500.02235174447,-187500.02235174447,-187500.02235174447
$SILENCE,666.2160952348823,-10499.933123580591,6182.179591915559,9495.870410903743,-187500.02235174447,-187500.02235174447,-187500.02235174447,-187500.02235174447
$SILENCE,508.07750321358486,-10540.36742930024,5758.122296109474,9521.843137960808,-187500.02235174447,-187500.02235174447,-187500.02235174447,-187500.02235174447
$SILENCE,647.0159467477736,-10539.071028121833,6016.396703290547,9481.095907818784,-187500.02235174447,-187500.02235174447,-187500.02235174447,-187500.02235174447
$SILENCE,801.734721867409,-10496.088623534277,6445.03610670997,9455.72667786201,-187500.02235174447,-187500.02235174447,-187500.02235174447,-187500.02235174447
$SILENCE,698.3355520171585,-10496.759175867937,6260.276587042402,9490.081309089817,-187500.02235174447,-187500.02235174447,-187500.02235174447,-187500.02235174447
$SILENCE,522.2261574537943,-10534.935955397601,5794.645046549445,9526.157024640683,-187500.02235174447,-187500.02235174447,-187500.02235174447,-187500.02235174447
$SILENCE,613.7565509982767,-10545.642440991693,5921.938231222419,9493.12114633574,-187500.02235174447,-187500.02235174447,-187500.02235174447,-187500.02235174447
$SILENCE,798.2254979879258,-10504.448175960562,6405.652332979719,9459.325308719315,-187500.02235174447,-187500.02235174447,-187500.02235174447,-187500.02235174447
$SILENCE,731.1702646220047,-10494.83692584478,6324.873128518239,9479.73245140701,-187500.02235174447,-187500.02235174447,-187500.02235174447,-187500.02235174447
$SILENCE,542.6780036304002,-10526.956382627057,5866.617663695534,9512.209536100572,-187500.02235174447,-187500.02235174447,-187500.02235174447,-187500.02235174447
$SILENCE,574.1716115679278,-10543.697839224082,5863.466067727336,9500.139594094706,-187500.02235174447,-187500.02235174447,-187500.02235174447,-187500.02235174447
$SILENCE,771.1128319636383,-10506.973923084011,6337.144236224203,9459.839398841787,-187500.02235174447,-187500.02235174447,-187500.02235174447,-187500.02235174447
$SILENCE,754.4607823444346,-10488.220809486009,6374.78457388694,9473.071631559329,-187500.02235174447,-187500.02235174447,-187500.02235174447,-187500.02235174447
$SILENCE,566.2367422862939,-10519.490899978984,5923.569908567657,9514.422358801647,-187500.02235174447,-187500.02235174447,-187500.02235174447,-187500.02235174447
$SILENCE,544.4437914423694,-10549.375182315729,5784.966741200297,9510.846079688798,-187500.02235174447,-187500.02235174447,-187500.02235174447,-187500.02235174447
$SILENCE,758.0370614572837,-10516.249897032965,6282.2483518419685,9464.06387854384,-187500.02235174447,-187500.02235174447,-187500.02235174447,-187500.02235174447
$SILENCE,780.9028960350629,-10488.623140886206,6427.802911734929,9467.327233234315,-187500.02235174447,-187500.02235174447,-187500.02235174447,-187500.02235174447
$SILENCE,599.5631932691566,-10513.299466764864,6012.6192584776,9504.587591241312,-187500.02235174447,-187500.02235174447,-187500.02235174447,-187500.02235174447
$SILENCE,520.1027417305401,-10548.70462998207,5745.359450025493,9509.728492466033,-187500.02235174447,-187500.02235174447,-187500.02235174447,-187500.02235174447
$SILENCE,720.2626133278147,-10525.145891326178,6190.248571663925,9464.242692499482,-187500.02235174447,-187500.02235174447,-187500.02235174447,-187500.02235174447
$SILENCE,792.4363961740013,-10489.919542064614,6444.745534032051,9455.436105184092,-187500.02235174447,-187500.02235174447,-187500.02235174447,-187500.02235174447
$SILENCE,631.9732227293518,-10505.521059694418,6096.751224607376,9495.110451592262,-187500.02235174447,-187500.02235174447,-187500.02235174447,-187500.02235174447
$SILENCE,509.5750700920904,-10543.47432177953,5735.099999320508,9513.304771578882,-187500.02235174447,-187500.02235174447,-187500.02235174447,-187500.02235174447
$SILENCE,687.51730770079,-10531.493786751484,6094.337236206203,9470.344718735781,-187500.02235174447,-187500.02235174447,-187500.02235174447,-187500.02235174447
$SILENCE,810.1613295270598,-10492.64645488816,6451.026374223992,9453.647965627666,-187500.02235174447,-187500.02235174447,-187500.02235174447,-187500.02235174447
$SILENCE,674.9332755724521,-10501.162469525632,6185.487650094945,9490.014253856452,-187500.02235174447,-187500.02235174447,-187500.02235174447,-187500.02235174447
$SILENCE,513.8889567719647,-10539.495711266483,5755.708307708301,9517.573954769845,-187500.02235174447,-187500.02235174447,-187500.02235174447,-187500.02235174447
$SILENCE,643.9537577573965,-10539.540414755395,5998.224735048382,9475.597378682778,-187500.02235174447,-187500.02235174447,-187500.02235174447,-187500.02235174447
$SILENCE,806.6968091364872,-10496.915638079125,6435.536615316465,9451.815122582331,-187500.02235174447,-187500.02235174447,-187500.02235174447,-187500.02235174447
$SILENCE,709.2208515668931,-10494.792222355869,6266.602130723254,9486.393271254692,-187500.02235174447,-187500.02235174447,-187500.02235174447,-187500.02235174447
$SILENCE,530.8539308135428,-10532.901946652168,5800.143575685451,9519.809129215375,-187500.02235174447,-187500.02235174447,-187500.02235174447,-187500.02235174447
$SILENCE,612.7283707533325,-10544.971888658034,5910.583545039123,9486.370919510236,-187500.02235174447,-187500.02235174447,-187500.02235174447,-187500.02235174447
$SILENCE,801.1759282560264,-10503.844678860269,6398.656236965208,9447.501235902457,-187500.02235174447,-187500.02235174447,-187500.02235174447,-187500.02235174447
$SILENCE,735.3947443240577,-10492.780565354893,6328.762332053463,9470.367070480237,-187500.02235174447,-187500.02235174447,-187500.02235174447,-187500.02235174447
$SILENCE,545.8072478541432,-10528.096321594277,5856.291157757182,9512.656570989677,-187500.02235174447,-187500.02235174447,-187500.02235174447,-187500.02235174447
$SILENCE,577.6361319585004,-10550.381010816218,5833.492378412769,9498.731434194022,-187500.02235174447,-187500.02235174447,-187500.02235174447,-187500.02235174447
$SILENCE,789.4636141614454,-10512.159527797643,6343.603890371787,9453.200930738562,-187500.02235174447,-187500.02235174447,-187500.02235174447,-187500.02235174447
$SILENCE,772.4539366309568,-10491.908847321136,6388.441489749132,9466.366108222737,-187500.02235174447,-187500.02235174447,-187500.02235174447,-187500.02235174447
$SILENCE,581.681797704911,-10521.413150002141,5938.210301185883,9512.187184356117,-187500.02235174447,-187500.02235174447,-187500.02235174447,-187500.02235174447
$SILENCE,548.0647740441292,-10550.828045705324,5776.741299240744,9506.867469175753,-187500.02235174447,-187500.02235174447,-187500.02235174447,-187500.02235174447
$SILENCE,755.9583492229401,-10519.043865089878,6263.852866155251,9456.263119728937,-187500.02235174447,-187500.02235174447,-187500.02235174447,-187500.02235174447
$SILENCE,788.0107507718504,-10491.037129287379,6422.79612097694,9458.565349407834,-187500.02235174447,-187500.02235174447,-187500.02235174447,-187500.02235174447
$SILENCE,614.3823998430253,-10515.199365043565,6026.3208778287035,9499.916076650152,-187500.02235174447,-187500.02235174447,-187500.02235174447,-187500.02235174447
$SILENCE,536.3748116940036,-10546.916490425647,5771.622749760479,9508.230925587526,-187500.02235174447,-187500.02235174447,-187500.02235174447,-187500.02235174447
$SILENCE,717.4239417819908,-10528.02926636091,6163.292367850825,9465.829666355809,-187500.02235174447,-187500.02235174447,-187500.02235174447,-187500.02235174447
$SILENCE,798.2031462434705,-10494.322835722309,6431.960336203616,9455.659622628644,-187500.02235174447,-187500.02235174447,-187500.02235174447,-187500.02235174447
$SILENCE,639.550464099701,-10506.593943428272,6099.589896153199,9496.987998126508,-187500.02235174447,-187500.02235174447,-187500.02235174447,-187500.02235174447
$SILENCE,512.4360933823697,-10544.435446791107,5731.903699863398,9515.919925680153,-187500.02235174447,-187500.02235174447,-187500.02235174447,-187500.02235174447
$SILENCE,683.4045867210134,-10533.70660945256,6079.696843587976,9471.171733280627,-187500.02235174447,-187500.02235174447,-187500.02235174447,-187500.02235174447
$SILENCE,810.764826627353,-10493.518172921917,6447.494798600054,9453.133875505195,-187500.02235174447,-187500.02235174447,-187500.02235174447,-187500.02235174447
$SILENCE,678.7554238743096,-10500.715434636526,6191.187344931048,9486.952064866075,-187500.02235174447,-187500.02235174447,-187500.02235174447,-187500.02235174447
$SILENCE,514.6265643389899,-10539.674525222126,5755.417735030382,9516.501071035991,-187500.02235174447,-187500.02235174447,-187500.02235174447,-187500.02235174447
$SILENCE,643.0373362347289,-10539.56276649985,5983.964322085896,9479.374823495726,-187500.02235174447,-187500.02235174447,-187500.02235174447,-187500.02235174447
$SILENCE,812.5082626948671,-10498.547315424361,6429.501644313532,9451.39043943768,-187500.02235174447,-187500.02235174447,-187500.02235174447,-187500.02235174447
$SILENCE,714.3170493027031,-10497.40737645714,6267.965587135028,9478.525457206424,-187500.02235174447,-187500.02235174447,-187500.02235174447,-187500.02235174447
$SILENCE,528.4175906679143,-10536.612336231748,5796.053206450129,9511.181355855628,-187500.02235174447,-187500.02235174447,-187500.02235174447,-187500.02235174447
$SILENCE,605.4864055498131,-10549.665754993648,5892.5456872636905,9481.49823921898,-187500.02235174447,-187500.02235174447,-187500.02235174447,-187500.02235174447
$SILENCE,798.091387521194,-10507.644475417672,6388.039158348937,9446.182482979595,-187500.02235174447,-187500.02235174447,-187500.02235174447,-187500.02235174447
$SILENCE,746.3918025960687,-10494.45694618904,6338.708858336075,9470.30001524687,-187500.02235174447,-187500.02235174447,-187500.02235174447,-187500.02235174447
$SILENCE,557.3630997375369,-10527.895155894179,5866.572960206623,9511.248411088993,-187500.02235174447,-187500.02235174447,-187500.02235174447,-187500.02235174447
$SILENCE,577.7702424252323,-10550.22454860503,5822.092988740563,9496.004521370474,-187500.02235174447,-187500.02235174447,-187500.02235174447,-187500.02235174447
$SILENCE,785.9990937708728,-10512.383045242197,6331.601003599287,9452.284509215893,-187500.02235174447,-187500.02235174447,-187500.02235174447,-187500.02235174447
$SILENCE,775.3596634101467,-10490.880667076191,6391.660140950697,9464.086230288296,-187500.02235174447,-187500.02235174447,-187500.02235174447,-187500.02235174447
$SILENCE,587.5156030077461,-10520.116748823733,5942.5018361213015,9505.325198808338,-187500.02235174447,-187500.02235174447,-187500.02235174447,-187500.02235174447
$SILENCE,544.9578815648415,-10549.956327671567,5765.297206079627,9501.92773365113,-187500.02235174447,-187500.02235174447,-187500.02235174447,-187500.02235174447
$SILENCE,752.6949945324653,-10518.708588923048,6252.408772994134,9455.592567395279,-187500.02235174447,-187500.02235174447,-187500.02235174447,-187500.02235174447
$SILENCE,790.7600153398532,-10490.366576953718,6424.561908788909,9455.234939483993,-187500.02235174447,-187500.02235174447,-187500.02235174447,-187500.02235174447
$SILENCE,615.9917254438074,-10513.902963865157,6024.4433312944575,9495.78100392592,-187500.02235174447,-187500.02235174447,-187500.02235174447,-187500.02235174447
$SILENCE,527.5682243786126,-10550.336307327309,5732.998935341709,9507.046283131396,-187500.02235174447,-187500.02235174447,-187500.02235174447,-187500.02235174447
$SILENCE,725.6046802526332,-10528.766873927936,6160.476048049456,9462.074573287318,-187500.02235174447,-187500.02235174447,-187500.02235174447,-187500.02235174447
$SILENCE,812.4635592059565,-10491.21594324302,6445.3713828767995,9455.324346461815,-187500.02235174447,-187500.02235174447,-187500.02235174447,-187500.02235174447
$SILENCE,656.4260311634578,-10505.40930097214,6114.900841105085,9494.864582403254,-187500.02235174447,-187500.02235174447,-187500.02235174447,-187500.02235174447
$SILENCE,523.0755237430959,-10544.390743302196,5731.858996374488,9513.103605878783,-187500.02235174447,-187500.02235174447,-187500.02235174447,-187500.02235174447
$SILENCE,689.1713367904827,-10534.824196675325,6064.922340503018,9468.288358245893,-187500.02235174447,-187500.02235174447,-187500.02235174447,-187500.02235174447
$SILENCE,817.8056261307748,-10494.211077000033,6444.477313098588,9451.189273737584,-187500.02235174447,-187500.02235174447,-187500.02235174447,-187500.02235174447
$SILENCE,690.3783309910692,-10500.827193358802,6200.217449690992,9485.052166587373,-187500.02235174447,-187500.02235174447,-187500.02235174447,-187500.02235174447
$SILENCE,527.3670586785148,-10540.747408955982,5758.94931065432,9516.612829758267,-187500.02235174447,-187500.02235174447,-187500.02235174447,-187500.02235174447
$SILENCE,644.356089157592,-10541.306202567364,5970.240350990338,9480.134782807205,-187500.02235174447,-187500.02235174447,-187500.02235174447,-187500.02235174447
$SILENCE,813.0223528173391,-10497.921466579613,6421.231498865069,9447.38947718018,-187500.02235174447,-187500.02235174447,-187500.02235174447,-187500.02235174447
$SILENCE,724.8223691966974,-10496.26743748992,6273.352357548757,9474.748012393477,-187500.02235174447,-187500.02235174447,-187500.02235174447,-187500.02235174447
$SILENCE,540.3087187181376,-10534.019533874934,5802.982247231275,9512.075425633839,-187500.02235174447,-187500.02235174447,-187500.02235174447,-187500.02235174447
$SILENCE,608.4368358179136,-10547.251766592475,5881.861553414054,9486.952064866075,-187500.02235174447,-187500.02235174447,-187500.02235174447,-187500.02235174447
talvez,804.0145998018503,-10505.141080038677,6379.657254178197,9449.065858014328,-187500.02235174447,-187500.02235174447,-187500.02235174447,-187500.02235174447
talvez,753.0526224437502,-10491.148888009655,6339.938204281117,9469.54005593539,-187500.02235174447,-187500.02235174447,-187500.02235174447,-187500.02235174447
talvez,567.197867297872,-10523.55891746985,5886.421309282936,9509.16969885465,-187500.02235174447,-187500.02235174447,-187500.02235174447,-187500.02235174447
talvez,575.1327365795061,-10543.831949690813,5832.531253401191,9497.390329526703,-187500.02235174447,-187500.02235174447,-187500.02235174447,-187500.02235174447
talvez,776.5219541218227,-10511.064292319334,6309.919811477639,9453.513855160934,-187500.02235174447,-187500.02235174447,-187500.02235174447,-187500.02235174447
talvez,786.8037565712639,-10485.672710618104,6410.45795803761,9467.841323356786,-187500.02235174447,-187500.02235174447,-187500.02235174447,-187500.02235174447
talvez,584.1628413394501,-10515.311123765841,5938.299708163704,9516.098739635794,-187500.02235174447,-187500.02235174447,-187500.02235174447,-187500.02235174447
talvez,548.0647740441292,-10543.496673523983,5774.103793395018,9512.410701800669,-187500.02235174447,-187500.02235174447,-187500.02235174447,-187500.02235174447
talvez,741.8096949827308,-10514.707626665548,6216.869499310195,9465.002651810963,-187500.02235174447,-187500.02235174447,-187500.02235174447,-187500.02235174447
talvez,791.9893612848952,-10484.89039956217,6413.810719705906,9464.801486110866,-187500.02235174447,-187500.02235174447,-187500.02235174447,-187500.02235174447
talvez,620.774998757243,-10506.057501561345,6031.014744164318,9509.415568043658,-187500.02235174447,-187500.02235174447,-187500.02235174447,-187500.02235174447
talvez,527.9035005454422,-10543.116693868244,5731.099037063007,9523.318353094859,-187500.02235174447,-187500.02235174447,-187500.02235174447,-187500.02235174447
talvez,723.9506511629404,-10522.664847691638,6148.629623488143,9470.836457113797,-187500.02235174447,-187500.02235174447,-187500.02235174447,-187500.02235174447
talvez,817.1350737971156,-10486.298559462854,6445.773714276996,9460.085268030794,-187500.02235174447,-187500.02235174447,-187500.02235174447,-187500.02235174447
talvez,662.8856853110416,-10500.156641025143,6126.076713332738,9496.228038815027,-187500.02235174447,-187500.02235174447,-187500.02235174447,-187500.02235174447
talvez,524.5507388771462,-10537.75227519897,5735.949365609809,9520.099701893294,-187500.02235174447,-187500.02235174447,-187500.02235174447,-187500.02235174447
talvez,679.3589209746028,-10528.386894272197,6051.801866507753,9477.11729730574,-187500.02235174447,-187500.02235174447,-187500.02235174447,-187500.02235174447
talvez,815.0340098183167,-10486.969111796512,6441.191606663658,9456.77720985141,-187500.02235174447,-187500.02235174447,-187500.02235174447,-187500.02235174447
talvez,694.6698659264882,-10492.557047910339,6209.828699806774,9492.852925402276,-187500.02235174447,-187500.02235174447,-187500.02235174447,-187500.02235174447
talvez,522.6061371095344,-10530.063275106344,5761.206836844306,9521.396103071702,-187500.02235174447,-187500.02235174447,-187500.02235174447,-187500.02235174447
talvez,639.5281123552456,-10534.17599608612,5959.109182251595,9487.6896724331,-187500.02235174447,-187500.02235174447,-187500.02235174447,-187500.02235174447
talvez,812.1059312946716,-10493.674635133104,6417.252888352024,9457.06778252933,-187500.02235174447,-187500.02235174447,-187500.02235174447,-187500.02235174447
talvez,722.1848633509712,-10490.12070776471,6280.460212285544,9482.280550274916,-187500.02235174447,-187500.02235174447,-187500.02235174447,-187500.02235174447
talvez,539.1464280064616,-10529.504481494962,5809.240735678761,9519.227983859539,-187500.02235174447,-187500.02235174447,-187500.02235174447,-187500.02235174447
talvez,603.4747485488354,-10544.904833424669,5873.054966098663,9493.322312035836,-187500.02235174447,-187500.02235174447,-187500.02235174447,-187500.02235174447
talvez,805.8474428471856,-10502.660036404139,6374.605759931298,9454.16205575014,-187500.02235174447,-187500.02235174447,-187500.02235174447,-187500.02235174447
talvez,759.3781661246021,-10486.83500132978,6346.487265406521,9474.479791460013,-187500.02235174447,-187500.02235174447,-187500.02235174447,-187500.02235174447
talvez,566.2367422862939,-10518.999161600967,5878.933474890408,9516.903402436186,-187500.02235174447,-187500.02235174447,-187500.02235174447,-187500.02235174447
talvez,567.488439975791,-10542.22262409003,5802.982247231275,9504.542887752401,-187500.02235174447,-187500.02235174447,-187500.02235174447,-187500.02235174447
talvez,780.2770471903143,-10504.51523119393,6315.038360957905,9454.430276683603,-187500.02235174447,-187500.02235174447,-187500.02235174447,-187500.02235174447
talvez,788.6365996165991,-10478.967187281512,6419.644525008742,9467.282529745404,-187500.02235174447,-187500.02235174447,-187500.02235174447,-187500.02235174447
talvez,592.455338532369,-10510.773719641415,5958.572740384668,9519.138576881716,-187500.02235174447,-187500.02235174447,-187500.02235174447,-187500.02235174447
talvez,554.8597043585426,-10539.763932199947,5779.848191720032,9515.785815213421,-187500.02235174447,-187500.02235174447,-187500.02235174447,-187500.02235174447
talvez,757.6794335459988,-10515.244068532476,6220.982220289972,9472.535189692402,-187500.02235174447,-187500.02235174447,-187500.02235174447,-187500.02235174447
talvez,818.3644197421575,-10484.689233862071,6451.495760857554,9469.093021046285,-187500.02235174447,-187500.02235174447,-187500.02235174447,-187500.02235174447
talvez,629.939213983919,-10506.571591683816,6032.042924409262,9510.533155266423,-187500.02235174447,-187500.02235174447,-187500.02235174447,-187500.02235174447
talvez,539.3475937065595,-10542.22262409003,5740.844397645521,9519.898536193197,-187500.02235174447,-187500.02235174447,-187500.02235174447,-187500.02235174447
talvez,712.9535928909294,-10525.592926215282,6119.617059185155,9478.771326395432,-187500.02235174447,-187500.02235174447,-187500.02235174447,-187500.02235174447
talvez,810.4295504605235,-10486.969111796512,6434.888414727261,9467.081364045307,-187500.02235174447,-187500.02235174447,-187500.02235174447,-187500.02235174447
talvez,660.5387521432343,-10498.41320495763,6130.5470622238,9501.190126084104,-187500.02235174447,-187500.02235174447,-187500.02235174447,-187500.02235174447
talvez,522.4049714094367,-10538.668696721637,5735.927013865354,9524.413588573168,-187500.02235174447,-187500.02235174447,-187500.02235174447,-187500.02235174447
talvez,687.6290664230664,-10531.113807095744,6040.514235557823,9482.705233419567,-187500.02235174447,-187500.02235174447,-187500.02235174447,-187500.02235174447
talvez,829.9649751144618,-10487.393794941163,6432.519129814998,9463.616843654734,-187500.02235174447,-187500.02235174447,-187500.02235174447,-187500.02235174447
talvez,707.0080288658177,-10491.305350220842,6207.839394550252,9495.043396358895,-187500.02235174447,-187500.02235174447,-187500.02235174447,-187500.02235174447
talvez,535.6595558714338,-10533.304278052365,5760.446877532826,9525.50882405148,-187500.02235174447,-187500.02235174447,-187500.02235174447,-187500.02235174447
talvez,642.6573565789887,-10537.662868221149,5943.84294078862,9489.701329434078,-187500.02235174447,-187500.02235174447,-187500.02235174447,-187500.02235174447
talvez,816.9786115859284,-10492.1770682546,6410.994399904537,9457.53716916289,-187500.02235174447,-187500.02235174447,-187500.02235174447,-187500.02235174447
talvez,739.1498373925492,-10487.416146685619,6294.161831636648,9483.44284098659,-187500.02235174447,-187500.02235174447,-187500.02235174447,-187500.02235174447
talvez,554.0103380692409,-10527.291658793887,5822.137692229473,9524.257126361981,-187500.02235174447,-187500.02235174447,-187500.02235174447,-187500.02235174447
talvez,606.425178816936,-10541.37325780073,5867.288216029193,9501.860678417765,-187500.02235174447,-187500.02235174447,-187500.02235174447,-187500.02235174447
talvez,804.1263585241269,-10496.200382256555,6375.186905287136,9464.5332651774,-187500.02235174447,-187500.02235174447,-187500.02235174447,-187500.02235174447
talvez,765.1225644496161,-10482.275245460898,6363.049908047904,9479.575989195822,-187500.02235174447,-187500.02235174447,-187500.02235174447,-187500.02235174447
talvez,579.7595476817546,-10517.501594722462,5890.422271540436,9518.579783270334,-187500.02235174447,-187500.02235174447,-187500.02235174447,-187500.02235174447
talvez,580.0501203596735,-10542.401438045674,5790.018235447197,9508.409739543169,-187500.02235174447,-187500.02235174447,-187500.02235174447,-187500.02235174447
talvez,788.5471926387779,-10506.146908539165,6292.9324856916055,9461.091096531283,-187500.02235174447,-187500.02235174447,-187500.02235174447,-187500.02235174447
talvez,796.8396898316968,-10482.565818138817,6402.098405611326,9474.770364137932,-187500.02235174447,-187500.02235174447,-187500.02235174447,-187500.02235174447
talvez,609.8449957185979,-10509.857298118746,5977.862295849597,9519.630315259734,-187500.02235174447,-187500.02235174447,-187500.02235174447,-187500.02235174447
talvez,545.7848961096879,-10539.786283944402,5755.261272819194,9519.585611770823,-187500.02235174447,-187500.02235174447,-187500.02235174447,-187500.02235174447
talvez,754.1031544331497,-10512.22658303101,6210.901583540629,9461.180503509106,-187500.02235174447,-187500.02235174447,-187500.02235174447,-187500.02235174447
talvez,815.3022307517804,-10481.78350708288,6424.248984366534,9460.06291628634,-187500.02235174447,-187500.02235174447,-187500.02235174447,-187500.02235174447
talvez,646.1889322029272,-10502.056539303845,6058.90972124454,9507.672131976144,-187500.02235174447,-187500.02235174447,-187500.02235174447,-187500.02235174447
talvez,546.6566141434448,-10537.573461243328,5761.318595566582,9521.820786216353,-187500.02235174447,-187500.02235174447,-187500.02235174447,-187500.02235174447
talvez,718.6979912159433,-10522.620144202727,6119.527652207334,9475.865599616242,-187500.02235174447,-187500.02235174447,-187500.02235174447,-187500.02235174447
talvez,829.4508849919898,-10484.197495484053,6458.894188272261,9455.749029606466,-187500.02235174447,-187500.02235174447,-187500.02235174447,-187500.02235174447
talvez,669.6582638809996,-10495.730995622993,6137.856082660685,9500.340759794803,-187500.02235174447,-187500.02235174447,-187500.02235174447,-187500.02235174447
talvez,537.3806401944925,-10535.85237692027,5750.5003512502135,9520.747902482499,-187500.02235174447,-187500.02235174447,-187500.02235174447,-187500.02235174447
talvez,673.6592261384995,-10529.437426261597,6014.072121867195,9477.564332194845,-187500.02235174447,-187500.02235174447,-187500.02235174447,-187500.02235174447
talvez,822.4994924663893,-10489.36074845323,6413.900126683728,9450.071686514817,-187500.02235174447,-187500.02235174447,-187500.02235174447,-187500.02235174447
talvez,716.5522237482338,-10493.115841521721,6215.863670809707,9482.884047375208,-187500.02235174447,-187500.02235174447,-187500.02235174447,-187500.02235174447
talvez,546.0307652986962,-10532.924298396623,5766.481848535758,9516.83634720282,-187500.02235174447,-187500.02235174447,-187500.02235174447,-187500.02235174447
talvez,660.5834556321449,-10540.747408955982,5936.243347673816,9483.44284098659,-187500.02235174447,-187500.02235174447,-187500.02235174447,-187500.02235174447
talvez,857.5470277723108,-10500.111937536232,6409.005094648015,9448.931747547596,-187500.02235174447,-187500.02235174447,-187500.02235174447,-187500.02235174447
talvez,774.5326488653003,-10493.786393855382,6297.380482838212,9474.368032737737,-187500.02235174447,-187500.02235174447,-187500.02235174447,-187500.02235174447
talvez,579.7595476817546,-10527.895155894179,5825.289288197671,9513.304771578882,-187500.02235174447,-187500.02235174447,-187500.02235174447,-187500.02235174447
talvez,623.0101732027738,-10543.049638634879,5855.106515301051,9492.40589051317,-187500.02235174447,-187500.02235174447,-187500.02235174447,-187500.02235174447
talvez,820.0184488318503,-10502.213001515032,6359.138352768226,9454.273814472415,-187500.02235174447,-187500.02235174447,-187500.02235174447,-187500.02235174447
talvez,783.3839396696019,-10487.080870518788,6359.920663824161,9475.820896127332,-187500.02235174447,-187500.02235174447,-187500.02235174447,-187500.02235174447
talvez,590.2872193202043,-10516.808690644348,5899.83235595612,9520.524385037945,-187500.02235174447,-187500.02235174447,-187500.02235174447,-187500.02235174447
talvez,578.3066842921596,-10541.127388611721,5788.9453517133425,9507.046283131396,-187500.02235174447,-187500.02235174447,-187500.02235174447,-187500.02235174447
talvez,790.2012217284706,-10506.683350406092,6288.082157144804,9456.576044151312,-187500.02235174447,-187500.02235174447,-187500.02235174447,-187500.02235174447
talvez,803.7910823572972,-10481.69410010506,6401.69607421113,9466.053183800363,-187500.02235174447,-187500.02235174447,-187500.02235174447,-187500.02235174447
talvez,624.775961014743,-10506.79510912837,5978.465792949891,9510.26493433296,-187500.02235174447,-187500.02235174447,-187500.02235174447,-187500.02235174447
talvez,550.2775967452046,-10543.56372875735,5741.917281379376,9510.26493433296,-187500.02235174447,-187500.02235174447,-187500.02235174447,-187500.02235174447
talvez,755.1089829336385,-10516.31695226633,6202.139699714148,9459.772343608422,-187500.02235174447,-187500.02235174447,-187500.02235174447,-187500.02235174447
talvez,822.8794721221295,-10480.308291948832,6433.524958315487,9460.331137219804,-187500.02235174447,-187500.02235174447,-187500.02235174447,-187500.02235174447
talvez,656.3142724411813,-10498.927295080102,6067.626901582111,9501.771271439942,-187500.02235174447,-187500.02235174447,-187500.02235174447,-187500.02235174447
talvez,546.0754687876068,-10539.94274615559,5734.049467331108,9518.445672803602,-187500.02235174447,-187500.02235174447,-187500.02235174447,-187500.02235174447
talvez,723.6153749961109,-10524.073007592322,6118.700637662487,9476.200875783072,-187500.02235174447,-187500.02235174447,-187500.02235174447,-187500.02235174447
talvez,826.478102979434,-10484.108088506233,6444.99140322106,9466.723736134021,-187500.02235174447,-187500.02235174447,-187500.02235174447,-187500.02235174447
talvez,686.3997204780246,-10495.17220201161,6151.98238515644,9495.78100392592,-187500.02235174447,-187500.02235174447,-187500.02235174447,-187500.02235174447
talvez,555.1055735475509,-10534.243051319487,5768.448802047826,9513.26006808997,-187500.02235174447,-187500.02235174447,-187500.02235174447,-187500.02235174447
talvez,681.258819253304,-10527.895155894179,6014.005066633829,9478.659567673156,-187500.02235174447,-187500.02235174447,-187500.02235174447,-187500.02235174447
talvez,825.1817018010262,-10485.78446934038,6429.546347802442,9451.502198159957,-187500.02235174447,-187500.02235174447,-187500.02235174447,-187500.02235174447
talvez,707.4550637549238,-10487.237332729976,6220.713999356509,9486.929713121619,-187500.02235174447,-187500.02235174447,-187500.02235174447,-187500.02235174447
talvez,540.7334018627885,-10530.934993140101,5762.056203133608,9527.83340547483,-187500.02235174447,-187500.02235174447,-187500.02235174447,-187500.02235174447
talvez,636.4659233648686,-10536.522929253928,5903.45333855788,9489.410756756159,-187500.02235174447,-187500.02235174447,-187500.02235174447,-187500.02235174447
talvez,817.2691842638475,-10493.69698687756,6381.288931523434,9451.613956882235,-187500.02235174447,-187500.02235174447,-187500.02235174447,-187500.02235174447
talvez,740.9156252045185,-10482.49876290545,6289.378558323212,9482.191143297094,-187500.02235174447,-187500.02235174447,-187500.02235174447,-187500.02235174447
talvez,552.5574746796459,-10516.629876688705,5819.634296850479,9528.615716530767,-187500.02235174447,-187500.02235174447,-187500.02235174447,-187500.02235174447
talvez,589.6613704754557,-10535.003010630968,5828.172663232406,9507.6944837206,-187500.02235174447,-187500.02235174447,-187500.02235174447,-187500.02235174447
talvez,795.6103438866548,-10494.725167122504,6339.737038581019,9468.690689646088,-187500.02235174447,-187500.02235174447,-187500.02235174447,-187500.02235174447
talvez,771.3139976637361,-10475.1226872352,6358.870131834761,9491.176544568127,-187500.02235174447,-187500.02235174447,-187500.02235174447,-187500.02235174447
talvez,577.7031871918664,-10504.001141071456,5895.07143438714,9529.88976596472,-187500.02235174447,-187500.02235174447,-187500.02235174447,-187500.02235174447
talvez,556.6478439149671,-10535.025362375423,5767.599435758524,9519.451501304091,-187500.02235174447,-187500.02235174447,-187500.02235174447,-187500.02235174447
talvez,767.6930150619763,-10507.51036495094,6261.014194609427,9473.16103853715,-187500.02235174447,-187500.02235174447,-187500.02235174447,-187500.02235174447
talvez,791.7211403514315,-10482.0740797608,6389.044986849426,9480.78298339641,-187500.02235174447,-187500.02235174447,-187500.02235174447,-187500.02235174447
talvez,609.7332369963214,-10502.727091637504,5972.676691135966,9523.050132161396,-187500.02235174447,-187500.02235174447,-187500.02235174447,-187500.02235174447
talvez,543.4603146863359,-10531.739655940492,5731.1884440408285,9529.576841542344,-187500.02235174447,-187500.02235174447,-187500.02235174447,-187500.02235174447
talvez,738.5910437811666,-10501.631856159194,6178.357443613701,9474.435087971102,-187500.02235174447,-187500.02235174447,-187500.02235174447,-187500.02235174447
talvez,798.5384224103001,-10475.50266689094,6419.063379652904,9470.501180946969,-187500.02235174447,-187500.02235174447,-187500.02235174447,-187500.02235174447
talvez,642.679708323444,-10500.93895208108,6069.3479859051695,9513.014198900963,-187500.02235174447,-187500.02235174447,-187500.02235174447,-187500.02235174447
talvez,513.4195701384032,-10536.65703972066,5706.646228628902,9519.83148095983,-187500.02235174447,-187500.02235174447,-187500.02235174447,-187500.02235174447
talvez,679.1354035300498,-10528.722170439027,6064.899988758563,9467.438991956591,-187500.02235174447,-187500.02235174447,-187500.02235174447,-187500.02235174447
talvez,799.1419195105934,-10490.880667076191,6419.264545353001,9465.270872744426,-187500.02235174447,-187500.02235174447,-187500.02235174447,-187500.02235174447
talvez,669.9488365589186,-10491.350053709753,6156.296271836313,9513.21536460106,-187500.02235174447,-187500.02235174447,-187500.02235174447,-187500.02235174447
talvez,506.55758459062395,-10527.984562872001,5724.505272448692,9537.623469546255,-187500.02235174447,-187500.02235174447,-187500.02235174447,-187500.02235174447
talvez,636.9353099984301,-10522.50838548045,5978.08581329415,9499.804317927876,-187500.02235174447,-187500.02235174447,-187500.02235174447,-187500.02235174447
talvez,771.7833842972975,-10472.55223662284,6392.151879328714,9465.695555889077,-187500.02235174447,-187500.02235174447,-187500.02235174447,-187500.02235174447
talvez,652.9838625173405,-10467.187817953565,6197.714054311998,9493.143498080195,-187500.02235174447,-187500.02235174447,-187500.02235174447,-187500.02235174447
talvez,503.07071245559604,-10512.740673153481,5776.003691673719,9533.488396822024,-187500.02235174447,-187500.02235174447,-187500.02235174447,-187500.02235174447
talvez,601.776015970232,-10529.392722772685,5912.617553784556,9516.948105925096,-187500.02235174447,-187500.02235174447,-187500.02235174447,-187500.02235174447
talvez,783.4286431585125,-10491.819440343314,6385.245190292024,9490.394233512192,-187500.02235174447,-187500.02235174447,-187500.02235174447,-187500.02235174447
talvez,712.3277440461808,-10478.654262859138,6306.052959686871,9503.648817974188,-187500.02235174447,-187500.02235174447,-187500.02235174447,-187500.02235174447
talvez,505.64116306795637,-10515.802862143859,5792.007540703719,9535.008315444984,-187500.02235174447,-187500.02235174447,-187500.02235174447,-187500.02235174447
talvez,539.4817041732913,-10529.482129750506,5788.073633679585,9518.468024548058,-187500.02235174447,-187500.02235174447,-187500.02235174447,-187500.02235174447
talvez,741.7873432382755,-10490.813611842825,6296.9781514380165,9472.892817603686,-187500.02235174447,-187500.02235174447,-187500.02235174447,-187500.02235174447
talvez,720.0390958832617,-10474.161562223622,6329.477587876033,9477.318463005837,-187500.02235174447,-187500.02235174447,-187500.02235174447,-187500.02235174447
talvez,537.8947303169645,-10501.765966625926,5882.777974936721,9522.826614716842,-187500.02235174447,-187500.02235174447,-187500.02235174447,-187500.02235174447
talvez,512.8384247825652,-10528.27513554992,5741.112618578985,9523.65362926169,-187500.02235174447,-187500.02235174447,-187500.02235174447,-187500.02235174447
talvez,720.933165661474,-10495.283960733886,6234.326211729791,9481.632349685711,-187500.02235174447,-187500.02235174447,-187500.02235174447,-187500.02235174447
talvez,754.4384305999793,-10470.920559277602,6383.568809457875,9494.417547514147,-187500.02235174447,-187500.02235174447,-187500.02235174447,-187500.02235174447
talvez,576.0268063577183,-10495.283960733886,5970.75444111281,9532.102588665795,-187500.02235174447,-187500.02235174447,-187500.02235174447,-187500.02235174447
talvez,496.2534303967274,-10528.833929161303,5707.853222829488,9538.070504435362,-187500.02235174447,-187500.02235174447,-187500.02235174447,-187500.02235174447
talvez,697.0615025832061,-10505.431652716596,6145.165103097571,9484.605131698267,-187500.02235174447,-187500.02235174447,-187500.02235174447,-187500.02235174447
talvez,767.4918493618786,-10473.312195934319,6397.046911364426,9469.07066930183,-187500.02235174447,-187500.02235174447,-187500.02235174447,-187500.02235174447
talvez,608.3697805845476,-10491.595922898761,6053.545302575267,9512.053073889385,-187500.02235174447,-187500.02235174447,-187500.02235174447,-187500.02235174447
talvez,486.1280901584733,-10529.0350948614,5695.2021354677845,9537.51171082398,-187500.02235174447,-187500.02235174447,-187500.02235174447,-187500.02235174447
talvez,657.7894875752315,-10514.506460965451,6053.366488619625,9492.78587016891,-187500.02235174447,-187500.02235174447,-187500.02235174447,-187500.02235174447
talvez,778.4665558894344,-10477.179047725087,6409.340370814845,9472.132858292205,-187500.02235174447,-187500.02235174447,-187500.02235174447,-187500.02235174447
talvez,647.8429612926199,-10485.091565262266,6143.801646685797,9505.660474975166,-187500.02235174447,-187500.02235174447,-187500.02235174447,-187500.02235174447
talvez,495.56052631861286,-10523.715379681038,5719.900813090899,9539.657478291689,-187500.02235174447,-187500.02235174447,-187500.02235174447,-187500.02235174447
talvez,624.485388336824,-10520.675542435116,5961.187894485938,9500.564277239357,-187500.02235174447,-187500.02235174447,-187500.02235174447,-187500.02235174447
talvez,782.3110559357472,-10476.732012835982,6389.849649649817,9469.987090824496,-187500.02235174447,-187500.02235174447,-187500.02235174447,-187500.02235174447
talvez,681.7505576313207,-10477.804896569836,6217.7412173439525,9495.40102427018,-187500.02235174447,-187500.02235174447,-187500.02235174447,-187500.02235174447
talvez,498.28743914216034,-10517.322780766819,5754.143685596429,9531.901422965697,-187500.02235174447,-187500.02235174447,-187500.02235174447,-187500.02235174447
talvez,579.9830651263077,-10528.856280905758,5864.382489250003,9497.032701615417,-187500.02235174447,-187500.02235174447,-187500.02235174447,-187500.02235174447
talvez,776.8572302886523,-10486.0750420183,6352.835160831829,9461.940462820587,-187500.02235174447,-187500.02235174447,-187500.02235174447,-187500.02235174447
talvez,716.9769068928847,-10474.988576768468,6289.62442751222,9484.940407865097,-187500.02235174447,-187500.02235174447,-187500.02235174447,-187500.02235174447
talvez,526.9647272783193,-10510.147870796665,5828.060904510129,9530.31444910937,-187500.02235174447,-187500.02235174447,-187500.02235174447,-187500.02235174447
talvez,554.4350212138917,-10529.526833239417,5801.909363497421,9525.486472307024,-187500.02235174447,-187500.02235174447,-187500.02235174447,-187500.02235174447
talvez,761.8145062702306,-10491.21594324302,6301.761424751452,9491.556524223868,-187500.02235174447,-187500.02235174447,-187500.02235174447,-187500.02235174447
talvez,748.7163840194207,-10472.93221627858,6347.649556118197,9496.250390559482,-187500.02235174447,-187500.02235174447,-187500.02235174447,-187500.02235174447
talvez,567.8907713759866,-10502.771795126415,5911.343504350603,9523.810091472877,-187500.02235174447,-187500.02235174447,-187500.02235174447,-187500.02235174447
talvez,541.3592507075371,-10528.789225672392,5767.66649099189,9512.187184356117,-187500.02235174447,-187500.02235174447,-187500.02235174447,-187500.02235174447
talvez,726.029363397284,-10502.168298026121,6204.12900497067,9466.544922178378,-187500.02235174447,-187500.02235174447,-187500.02235174447,-187500.02235174447
talvez,759.735794035887,-10476.128515735689,6369.151934284203,9471.819933869832,-187500.02235174447,-187500.02235174447,-187500.02235174447,-187500.02235174447
talvez,598.6467717464891,-10499.195516013566,5984.679577908466,9521.418454816157,-187500.02235174447,-187500.02235174447,-187500.02235174447,-187500.02235174447
talvez,519.2757271856937,-10529.303315794865,5712.435330442826,9528.280440363937,-187500.02235174447,-187500.02235174447,-187500.02235174447,-187500.02235174447
talvez,709.6231829670886,-10503.55410618235,6147.221463587459,9486.885009632708,-187500.02235174447,-187500.02235174447,-187500.02235174447,-187500.02235174447
talvez,786.4237769155237,-10469.490047632462,6412.179042360669,9481.677053174622,-187500.02235174447,-187500.02235174447,-187500.02235174447,-187500.02235174447
talvez,626.4299901044358,-10488.712547864026,6069.593855094177,9517.17162336965,-187500.02235174447,-187500.02235174447,-187500.02235174447,-187500.02235174447
talvez,501.5284420881799,-10529.482129750506,5701.728844848734,9533.890728222219,-187500.02235174447,-187500.02235174447,-187500.02235174447,-187500.02235174447
talvez,674.9109238279967,-10514.439405732084,6050.237244395882,9492.137669579706,-187500.02235174447,-187500.02235174447,-187500.02235174447,-187500.02235174447
talvez,800.2148032444481,-10473.446306401052,6412.447263294132,9473.630425170712,-187500.02235174447,-187500.02235174447,-187500.02235174447,-187500.02235174447
talvez,670.2394092368376,-10484.510419906428,6160.185475371537,9508.74501571,-187500.02235174447,-187500.02235174447,-187500.02235174447,-187500.02235174447
talvez,506.781102035177,-10520.697894179571,5732.842473130521,9535.902385223197,-187500.02235174447,-187500.02235174447,-187500.02235174447,-187500.02235174447
talvez,637.9411384989189,-10521.346094768774,5968.832191089653,9501.704216206577,-187500.02235174447,-187500.02235174447,-187500.02235174447,-187500.02235174447
talvez,802.2488119898811,-10481.671748360604,6404.020655634482,9475.776192638421,-187500.02235174447,-187500.02235174447,-187500.02235174447,-187500.02235174447
talvez,701.2636305408038,-10476.709661091527,6239.221243765503,9505.88399241972,-187500.02235174447,-187500.02235174447,-187500.02235174447,-187500.02235174447
talvez,523.231985954283,-10514.305295265352,5780.518744053691,9540.976231214552,-187500.02235174447,-187500.02235174447,-187500.02235174447,-187500.02235174447
talvez,601.8877746925086,-10522.106054080255,5872.4738207428245,9515.048207646396,-187500.02235174447,-187500.02235174447,-187500.02235174447,-187500.02235174447
talvez,787.7425298383868,-10485.538600151373,6349.057716018881,9470.747050135977,-187500.02235174447,-187500.02235174447,-187500.02235174447,-187500.02235174447
talvez,730.0750291436946,-10477.737841336471,6294.161831636648,9485.745070665487,-187500.02235174447,-187500.02235174447,-187500.02235174447,-187500.02235174447
talvez,545.9637100653304,-10514.618219687727,5831.3242592006045,9529.97917294254,-187500.02235174447,-187500.02235174447,-187500.02235174447,-187500.02235174447
talvez,562.9957393402743,-10536.478225765017,5792.991017459753,9514.6458762462,-187500.02235174447,-187500.02235174447,-187500.02235174447,-187500.02235174447
talvez,769.7940790407753,-10496.513306678928,6303.527212563421,9475.865599616242,-187500.02235174447,-187500.02235174447,-187500.02235174447,-187500.02235174447
talvez,759.5346283357893,-10474.049803501344,6361.999376058505,9490.573047467835,-187500.02235174447,-187500.02235174447,-187500.02235174447,-187500.02235174447
talvez,573.2328383008049,-10502.056539303845,5920.4853678328245,9528.928640953141,-187500.02235174447,-187500.02235174447,-187500.02235174447,-187500.02235174447
talvez,542.6333001414896,-10525.637629704193,5755.1942175858285,9532.102588665795,-187500.02235174447,-187500.02235174447,-187500.02235174447,-187500.02235174447
talvez,753.4996573328564,-10498.435556702085,6231.085208783771,9484.515724720446,-187500.02235174447,-187500.02235174447,-187500.02235174447,-187500.02235174447
talvez,784.9038582925629,-10476.195570969054,6404.691207968141,9484.40396599817,-187500.02235174447,-187500.02235174447,-187500.02235174447,-187500.02235174447
talvez,616.5952225441006,-10499.396681713662,6018.251898080337,9526.894632207708,-187500.02235174447,-187500.02235174447,-187500.02235174447,-187500.02235174447
talvez,527.6352796119785,-10537.729923454515,5727.723923650256,9528.861585719775,-187500.02235174447,-187500.02235174447,-187500.02235174447,-187500.02235174447
talvez,710.4054940230244,-10514.305295265352,6136.246757059903,9476.111468805251,-187500.02235174447,-187500.02235174447,-187500.02235174447,-187500.02235174447
talvez,798.9184020660404,-10478.855428559236,6412.022580149482,9470.903512347164,-187500.02235174447,-187500.02235174447,-187500.02235174447,-187500.02235174447
talvez,648.1558857149942,-10492.98173105499,6093.800794339275,9509.773195954944,-187500.02235174447,-187500.02235174447,-187500.02235174447,-187500.02235174447
talvez,521.0638667421182,-10529.437426261597,5719.766702624167,9528.526309552946,-187500.02235174447,-187500.02235174447,-187500.02235174447,-187500.02235174447
talvez,693.194650792438,-10521.681370935605,6051.6230525521105,9488.717852678044,-187500.02235174447,-187500.02235174447,-187500.02235174447,-187500.02235174447
talvez,816.4868732079117,-10482.297597205354,6423.287859354957,9475.35150949377,-187500.02235174447,-187500.02235174447,-187500.02235174447,-187500.02235174447
talvez,688.1878600344492,-10487.326739707798,6176.256379634903,9506.107509864272,-187500.02235174447,-187500.02235174447,-187500.02235174447,-187500.02235174447
talvez,535.2348727267829,-10527.22460356052,5745.605319214502,9534.896556722708,-187500.02235174447,-187500.02235174447,-187500.02235174447,-187500.02235174447
talvez,657.4318596639466,-10530.778530928914,5957.969243284374,9495.646893459189,-187500.02235174447,-187500.02235174447,-187500.02235174447,-187500.02235174447
talvez,813.8940708510961,-10486.633835629682,6402.187812589146,9460.129971519706,-187500.02235174447,-187500.02235174447,-187500.02235174447,-187500.02235174447
talvez,720.2626133278147,-10480.040071015366,6258.935482375084,9487.555561966368,-187500.02235174447,-187500.02235174447,-187500.02235174447,-187500.02235174447
talvez,543.1250385195063,-10518.79799590087,5795.382654116471,9525.330010095837,-187500.02235174447,-187500.02235174447,-187500.02235174447,-187500.02235174447
talvez,616.4611120773687,-10532.99135362999,5870.5962742085785,9498.17264058264,-187500.02235174447,-187500.02235174447,-187500.02235174447,-187500.02235174447
talvez,816.6209836746435,-10491.327701965298,6368.615492417275,9462.700422132066,-187500.02235174447,-187500.02235174447,-187500.02235174447,-187500.02235174447
talvez,762.7756312818088,-10477.737841336471,6325.230756429524,9480.425355485124,-187500.02235174447,-187500.02235174447,-187500.02235174447,-187500.02235174447
talvez,574.1939633123832,-10513.433577231595,5863.39901249397,9520.524385037945,-187500.02235174447,-187500.02235174447,-187500.02235174447,-187500.02235174447
talvez,588.9461146528857,-10543.027286890423,5802.915191997909,9499.133765594217,-187500.02235174447,-187500.02235174447,-187500.02235174447,-187500.02235174447
$SILENCE,795.8562130756633,-10505.811632372337,6299.168622394636,9450.451666170558,-187500.02235174447,-187500.02235174447,-187500.02235174447,-187500.02235174447
$SILENCE,792.3246374517248,-10484.331605950787,6372.16941978567,9464.712079133044,-187500.02235174447,-187500.02235174447,-187500.02235174447,-187500.02235174447
$SILENCE,613.3765713425364,-10513.098301064767,5941.183083198439,9509.728492466033,-187500.02235174447,-187500.02235174447,-187500.02235174447,-187500.02235174447
$SILENCE,572.2270098003161,-10540.389781044696,5759.28458682115,9509.907306421675,-187500.02235174447,-187500.02235174447,-187500.02235174447,-187500.02235174447
$SILENCE,778.4889076338897,-10506.348074239264,6245.166807790614,9462.92393957662,-187500.02235174447,-187500.02235174447,-187500.02235174447,-187500.02235174447
$SILENCE,820.3313732542246,-10476.620254113705,6422.170272132191,9458.721811619022,-187500.02235174447,-187500.02235174447,-187500.02235174447,-187500.02235174447
$SILENCE,649.5640456156785,-10500.335454980786,6029.293659841259,9502.128899351228,-187500.02235174447,-187500.02235174447,-187500.02235174447,-187500.02235174447
$SILENCE,554.4126694694364,-10537.864033921247,5729.914394606876,9513.93062042363,-187500.02235174447,-187500.02235174447,-187500.02235174447,-187500.02235174447
$SILENCE,741.8096949827308,-10522.284868035898,6136.291460548814,9454.877311572709,-187500.02235174447,-187500.02235174447,-187500.02235174447,-187500.02235174447
$SILENCE,833.2730332938473,-10486.812649585325,6428.361705346311,9441.86859629972,-187500.02235174447,-187500.02235174447,-187500.02235174447,-187500.02235174447
$SILENCE,686.287961755748,-10499.195516013566,6114.7220271494425,9481.788811896899,-187500.02235174447,-187500.02235174447,-187500.02235174447,-187500.02235174447
$SILENCE,554.1220967915174,-10535.807673431358,5733.602432442001,9508.946181410096,-187500.02235174447,-187500.02235174447,-187500.02235174447,-187500.02235174447
$SILENCE,708.7514649333317,-10526.039961104389,6052.3830118635915,9467.059012300851,-187500.02235174447,-187500.02235174447,-187500.02235174447,-187500.02235174447
$SILENCE,842.861931665174,-10487.416146685619,6438.174121162191,9445.53428239039,-187500.02235174447,-187500.02235174447,-187500.02235174447,-187500.02235174447
$SILENCE,723.8835959295745,-10492.199419999055,6205.380702660168,9481.967625852541,-187500.02235174447,-187500.02235174447,-187500.02235174447,-187500.02235174447
$SILENCE,555.5749601811124,-10530.040923361888,5762.145610111429,9511.695445978099,-187500.02235174447,-187500.02235174447,-187500.02235174447,-187500.02235174447
$SILENCE,670.3064644702035,-10535.1371210977,5959.7573828407985,9478.793678139888,-187500.02235174447,-187500.02235174447,-187500.02235174447,-187500.02235174447
$SILENCE,839.8220944192523,-10492.624103143706,6413.453091794621,9452.619785382723,-187500.02235174447,-187500.02235174447,-187500.02235174447,-187500.02235174447
$SILENCE,754.6395963000771,-10490.0760042758,6276.548657005866,9473.853942615264,-187500.02235174447,-187500.02235174447,-187500.02235174447,-187500.02235174447
$SILENCE,570.4388702438915,-10527.068141349333,5808.614886834012,9504.989922641507,-187500.02235174447,-187500.02235174447,-187500.02235174447,-187500.02235174447
$SILENCE,626.4299901044358,-10540.568595000339,5861.186189792895,9471.931692592108,-187500.02235174447,-187500.02235174447,-187500.02235174447,-187500.02235174447
$SILENCE,820.7113529099647,-10501.989484070478,6353.148085254203,9429.776302549399,-187500.02235174447,-187500.02235174447,-187500.02235174447,-187500.02235174447
$SILENCE,782.3110559357472,-10489.159582753133,6337.278346690935,9456.218416240026,-187500.02235174447,-187500.02235174447,-187500.02235174447,-187500.02235174447
$SILENCE,600.1219868805393,-10519.334437767797,5879.02288186823,9499.893724905698,-187500.02235174447,-187500.02235174447,-187500.02235174447,-187500.02235174447
$SILENCE,609.1520916404834,-10542.9378799126,5803.026950720186,9488.047300344384,-187500.02235174447,-187500.02235174447,-187500.02235174447,-187500.02235174447
$SILENCE,810.6754196495318,-10506.236315516988,6299.325084605824,9439.991049765475,-187500.02235174447,-187500.02235174447,-187500.02235174447,-187500.02235174447
$SILENCE,809.7142946379537,-10483.817515828314,6387.994454860027,9451.278680715404,-187500.02235174447,-187500.02235174447,-187500.02235174447,-187500.02235174447
$SILENCE,624.6418505480111,-10511.310161508341,5959.824438074164,9495.445727759092,-187500.02235174447,-187500.02235174447,-187500.02235174447,-187500.02235174447
$SILENCE,574.4845359903021,-10542.46849327904,5757.89877866492,9495.713948692555,-187500.02235174447,-187500.02235174447,-187500.02235174447,-187500.02235174447
$SILENCE,779.4723843899231,-10513.299466764864,6221.5186621569,9448.037677769385,-187500.02235174447,-187500.02235174447,-187500.02235174447,-187500.02235174447
$SILENCE,824.7570186563753,-10483.236370472476,6420.963277931604,9447.72475334701,-187500.02235174447,-187500.02235174447,-187500.02235174447,-187500.02235174447
$SILENCE,656.9401212859299,-10505.0293213164,6046.772724005309,9491.534172479413,-187500.02235174447,-187500.02235174447,-187500.02235174447,-187500.02235174447
$SILENCE,556.7372508927883,-10542.021458389934,5725.6675631603675,9500.139594094706,-187500.02235174447,-187500.02235174447,-187500.02235174447,-187500.02235174447
$SILENCE,738.8592647146303,-10521.547260468873,6128.244832544903,9450.96575629303,-187500.02235174447,-187500.02235174447,-187500.02235174447,-187500.02235174447
$SILENCE,841.8784549091405,-10484.957454795534,6445.684307299174,9447.59064288028,-187500.02235174447,-187500.02235174447,-187500.02235174447,-187500.02235174447
$SILENCE,697.6202961945887,-10497.765004368426,6131.105855835182,9486.54973346588,-187500.02235174447,-187500.02235174447,-187500.02235174447,-187500.02235174447
$SILENCE,555.2843875031933,-10538.601641488272,5729.84733937351,9504.83346043032,-187500.02235174447,-187500.02235174447,-187500.02235174447,-187500.02235174447
$SILENCE,708.5502992332339,-10529.37037102823,6033.875767454597,9460.085268030794,-187500.02235174447,-187500.02235174447,-187500.02235174447,-187500.02235174447
$SILENCE,850.1486003576041,-10484.64453037316,6432.586185048364,9442.785017822387,-187500.02235174447,-187500.02235174447,-187500.02235174447,-187500.02235174447
$SILENCE,730.8126367107197,-10490.701853120549,6214.634324864665,9473.138686792694,-187500.02235174447,-187500.02235174447,-187500.02235174447,-187500.02235174447
$SILENCE,560.425288727914,-10532.477263507517,5768.202932858817,9502.26300981796,-187500.02235174447,-187500.02235174447,-187500.02235174447,-187500.02235174447
$SILENCE,666.2160952348823,-10537.148778098677,5953.588301371134,9471.30584374736,-187500.02235174447,-187500.02235174447,-187500.02235174447,-187500.02235174447
$SILENCE,844.0689258657607,-10492.914675821625,6410.6814754821635,9438.851110798254,-187500.02235174447,-187500.02235174447,-187500.02235174447,-187500.02235174447
$SILENCE,769.1011749626607,-10487.46085017453,6287.791584466885,9466.746087878477,-187500.02235174447,-187500.02235174447,-187500.02235174447,-187500.02235174447
$SILENCE,588.4767280193244,-10527.448121005073,5821.824767807098,9509.952009910585,-187500.02235174447,-187500.02235174447,-187500.02235174447,-187500.02235174447
$SILENCE,639.2151879328713,-10544.256632835464,5860.761506648244,9483.129916564218,-187500.02235174447,-187500.02235174447,-187500.02235174447,-187500.02235174447
$SILENCE,834.7482484278976,-10503.397643971162,6358.4007452012,9437.755875319943,-187500.02235174447,-187500.02235174447,-187500.02235174447,-187500.02235174447
$SILENCE,788.9271722945181,-10485.136268751177,6345.414381672666,9456.553692406856,-187500.02235174447,-187500.02235174447,-187500.02235174447,-187500.02235174447
$SILENCE,596.4563007898689,-10518.216850545032,5886.9130476609525,9501.190126084104,-187500.02235174447,-187500.02235174447,-187500.02235174447,-187500.02235174447
$SILENCE,596.5904112566008,-10544.36839155774,5795.7179302833,9489.723681178533,-187500.02235174447,-187500.02235174447,-187500.02235174447,-187500.02235174447
$SILENCE,803.187585257004,-10507.040978317378,6297.112261904748,9442.33798293328,-187500.02235174447,-187500.02235174447,-187500.02235174447,-187500.02235174447
$SILENCE,812.865890606152,-10483.325777450298,6398.812699176396,9451.122218504217,-187500.02235174447,-187500.02235174447,-187500.02235174447,-187500.02235174447
$SILENCE,633.4260861189468,-10513.947667354068,5970.575627157167,9492.942332380097,-187500.02235174447,-187500.02235174447,-187500.02235174447,-187500.02235174447
$SILENCE,578.0608151031513,-10546.871786936736,5753.540188496136,9494.909285892163,-187500.02235174447,-187500.02235174447,-187500.02235174447,-187500.02235174447
$SILENCE,787.4743089049231,-10517.814519144837,6218.881156311173,9449.82581732581,-187500.02235174447,-187500.02235174447,-187500.02235174447,-187500.02235174447
$SILENCE,837.542216484811,-10486.231504229487,6428.093484412848,9446.696573102066,-187500.02235174447,-187500.02235174447,-187500.02235174447,-187500.02235174447
$SILENCE,670.9099615704968,-10508.203269029054,6054.4393723534795,9484.649835187178,-187500.02235174447,-187500.02235174447,-187500.02235174447,-187500.02235174447
$SILENCE,568.5389719651904,-10542.401438045674,5734.51885396467,9499.670207461144,-187500.02235174447,-187500.02235174447,-187500.02235174447,-187500.02235174447
$SILENCE,753.0973259326609,-10522.977772114013,6130.2788412903365,9455.994898795474,-187500.02235174447,-187500.02235174447,-187500.02235174447,-187500.02235174447
$SILENCE,852.0932021252158,-10485.851524573747,6448.455923611632,9444.260232956438,-187500.02235174447,-187500.02235174447,-187500.02235174447,-187500.02235174447
$SILENCE,708.125616088583,-10498.36850146872,6150.238949088925,9476.111468805251,-187500.02235174447,-187500.02235174447,-187500.02235174447,-187500.02235174447
$SILENCE,579.0889953480954,-10537.104074609766,5771.198066615828,9496.898591148685,-187500.02235174447,-187500.02235174447,-187500.02235174447,-187500.02235174447
$SILENCE,710.4725492563903,-10532.946650141079,6028.33253482968,9461.15815176465,-187500.02235174447,-187500.02235174447,-187500.02235174447,-187500.02235174447
$SILENCE,853.12138237016,-10492.132364765688,6437.302403128434,9433.084360728784,-187500.02235174447,-187500.02235174447,-187500.02235174447,-187500.02235174447
$SILENCE,733.3160320897141,-10492.579399654795,6217.316534199302,9470.411773969146,-187500.02235174447,-187500.02235174447,-187500.02235174447,-187500.02235174447
$SILENCE,567.77901265371,-10532.007876873957,5773.835572461555,9502.218306329049,-187500.02235174447,-187500.02235174447,-187500.02235174447,-187500.02235174447
$SILENCE,666.3278539571588,-10535.293583308887,5935.014001728774,9470.031794313407,-187500.02235174447,-187500.02235174447,-187500.02235174447,-187500.02235174447
$SILENCE,849.8133241907746,-10494.0769665333,6404.780614945962,9438.448779398059,-187500.02235174447,-187500.02235174447,-187500.02235174447,-187500.02235174447
$SILENCE,777.7513000668646,-10488.869010075214,6303.527212563421,9467.081364045307,-187500.02235174447,-187500.02235174447,-187500.02235174447,-187500.02235174447
$SILENCE,585.5710012401345,-10530.443254762085,5818.382599160981,9501.480698762023,-187500.02235174447,-187500.02235174447,-187500.02235174447,-187500.02235174447
$SILENCE,628.9333854834301,-10543.742542712993,5848.400991964459,9481.475887474524,-187500.02235174447,-187500.02235174447,-187500.02235174447,-187500.02235174447
$SILENCE,817.6491639195876,-10504.202306771555,6336.0713524903485,9448.641174869677,-187500.02235174447,-187500.02235174447,-187500.02235174447,-187500.02235174447
$SILENCE,787.6754746050209,-10487.349091452252,6342.7098205935745,9466.388459967191,-187500.02235174447,-187500.02235174447,-187500.02235174447,-187500.02235174447
$SILENCE,610.2473271187935,-10521.167280813132,5889.058815128662,9494.395195769692,-187500.02235174447,-187500.02235174447,-187500.02235174447,-187500.02235174447
$SILENCE,612.7507224977878,-10547.609394503761,5787.917171468398,9479.285416517903,-187500.02235174447,-187500.02235174447,-187500.02235174447,-187500.02235174447
$SILENCE,817.3585912416687,-10509.767891140926,6286.9422181775835,9434.112540973729,-187500.02235174447,-187500.02235174447,-187500.02235174447,-187500.02235174447
$SILENCE,825.2264052899368,-10486.03033852939,6399.349141043323,9443.232052711493,-187500.02235174447,-187500.02235174447,-187500.02235174447,-187500.02235174447
$SILENCE,646.3006909252038,-10513.970019098524,5975.4930109373345,9485.812125898854,-187500.02235174447,-187500.02235174447,-187500.02235174447,-187500.02235174447
$SILENCE,579.2901610481931,-10546.491807280994,5741.582005212546,9485.610960198755,-187500.02235174447,-187500.02235174447,-187500.02235174447,-187500.02235174447
$SILENCE,783.2945326917807,-10520.116748823733,6202.162051458604,9439.432256154092,-187500.02235174447,-187500.02235174447,-187500.02235174447,-187500.02235174447
$SILENCE,846.6393764781209,-10488.243161230464,6430.7533420030295,9441.10863698824,-187500.02235174447,-187500.02235174447,-187500.02235174447,-187500.02235174447
$SILENCE,674.7544616168096,-10506.593943428272,6063.447125368968,9481.11825956324,-187500.02235174447,-187500.02235174447,-187500.02235174447,-187500.02235174447
$SILENCE,561.6099311840453,-10543.250804334975,5728.349772495005,9498.284399304915,-187500.02235174447,-187500.02235174447,-187500.02235174447,-187500.02235174447
$SILENCE,747.0623549297279,-10525.74938842647,6111.861003859163,9455.30199471736,-187500.02235174447,-187500.02235174447,-187500.02235174447,-187500.02235174447
$SILENCE,853.8366381927298,-10488.287864719376,6439.22465315159,9442.449741655559,-187500.02235174447,-187500.02235174447,-187500.02235174447,-187500.02235174447
$SILENCE,708.8632236556082,-10499.955475325045,6150.864797933674,9481.051204329873,-187500.02235174447,-187500.02235174447,-187500.02235174447,-187500.02235174447
$SILENCE,560.2241230278162,-10538.981621144012,5739.749162167212,9503.984094141018,-187500.02235174447,-187500.02235174447,-187500.02235174447,-187500.02235174447
$SILENCE,704.2140608089043,-10534.220699575031,6015.14500560105,9462.141628520683,-187500.02235174447,-187500.02235174447,-187500.02235174447,-187500.02235174447
$SILENCE,850.6403387356208,-10491.662978132126,6426.394751834244,9437.420599153114,-187500.02235174447,-187500.02235174447,-187500.02235174447,-187500.02235174447
$SILENCE,741.38501183808,-10495.105146778244,6225.989011047961,9467.148419278672,-187500.02235174447,-187500.02235174447,-187500.02235174447,-187500.02235174447
$SILENCE,568.1813440539055,-10535.919432153634,5771.3321770825605,9501.368940039747,-187500.02235174447,-187500.02235174447,-187500.02235174447,-187500.02235174447
$SILENCE,664.7632318452874,-10543.451970035074,5924.754551023788,9468.176599523616,-187500.02235174447,-187500.02235174447,-187500.02235174447,-187500.02235174447
$SILENCE,852.9649201589729,-10498.904943335647,6419.733931986562,9429.642192082667,-187500.02235174447,-187500.02235174447,-187500.02235174447,-187500.02235174447
$SILENCE,775.6278843436104,-10486.0750420183,6318.122901692736,9459.079439530307,-187500.02235174447,-187500.02235174447,-187500.02235174447,-187500.02235174447
$SILENCE,582.2405913162937,-10525.525870981917,5832.86652956802,9499.06671036085,-187500.02235174447,-187500.02235174447,-187500.02235174447,-187500.02235174447
$SILENCE,632.7778855297429,-10541.887347923202,5856.402916479459,9477.676090917123,-187500.02235174447,-187500.02235174447,-187500.02235174447,-187500.02235174447
$SILENCE,832.73659142692,-10504.403472471651,6341.167550226159,9438.15820672014,-187500.02235174447,-187500.02235174447,-187500.02235174447,-187500.02235174447
$SILENCE,810.250736504881,-10485.270379217909,6374.471649464566,9452.172750493617,-187500.02235174447,-187500.02235174447,-187500.02235174447,-187500.02235174447
$SILENCE,611.3202108526482,-10521.770777913425,5891.852783185575,9493.188201569104,-187500.02235174447,-187500.02235174447,-187500.02235174447,-187500.02235174447
$SILENCE,597.842108946098,-10546.804731703369,5777.858886463509,9484.716890420543,-187500.02235174447,-187500.02235174447,-187500.02235174447,-187500.02235174447
$SILENCE,801.2876869783029,-10513.724149909514,6262.400002765657,9441.801541066354,-187500.02235174447,-187500.02235174447,-187500.02235174447,-187500.02235174447
$SILENCE,820.6219459321435,-10486.142097251666,6397.918629398183,9444.751971334455,-187500.02235174447,-187500.02235174447,-187500.02235174447,-187500.02235174447
$SILENCE,644.0431647352177,-10512.293638264375,5983.986673830352,9489.790736411898,-187500.02235174447,-187500.02235174447,-187500.02235174447,-187500.02235174447
$SILENCE,576.4738412468245,-10547.452932292574,5740.1067900784965,9494.104623091773,-187500.02235174447,-187500.02235174447,-187500.02235174447,-187500.02235174447
$SILENCE,779.3159221787361,-10522.46368199154,6196.819984533785,9446.607166124246,-187500.02235174447,-187500.02235174447,-187500.02235174447,-187500.02235174447
$SILENCE,845.0300508773388,-10488.757251352938,6435.089580427359,9441.510968388435,-187500.02235174447,-187500.02235174447,-187500.02235174447,-187500.02235174447
$SILENCE,677.1013947846169,-10506.236315516988,6074.712404574443,9481.028852585418,-187500.02235174447,-187500.02235174447,-187500.02235174447,-187500.02235174447
$SILENCE,557.1395822929838,-10543.027286890423,5725.84637711601,9498.619675471744,-187500.02235174447,-187500.02235174447,-187500.02235174447,-187500.02235174447
$SILENCE,735.7523722353426,-10528.163376827642,6098.248791485881,9452.753895849455,-187500.02235174447,-187500.02235174447,-187500.02235174447,-187500.02235174447
$SILENCE,845.767658444364,-10486.723242607504,6437.771789761996,9438.605241609244,-187500.02235174447,-187500.02235174447,-187500.02235174447,-187500.02235174447
$SILENCE,707.5221189882898,-10496.826231101302,6157.972652670462,9476.312634505348,-187500.02235174447,-187500.02235174447,-187500.02235174447,-187500.02235174447
$SILENCE,558.4359834713916,-10538.311068810353,5737.782208655144,9501.905381906674,-187500.02235174447,-187500.02235174447,-187500.02235174447,-187500.02235174447
$SILENCE,694.2004792929267,-10535.673562964626,6001.912772883507,9462.6333668987,-187500.02235174447,-187500.02235174447,-187500.02235174447,-187500.02235174447
$SILENCE,850.6179869911656,-10494.0769665333,6425.03129542247,9437.420599153114,-187500.02235174447,-187500.02235174447,-187500.02235174447,-187500.02235174447
$SILENCE,745.7212502624095,-10495.507478178439,6236.673144897598,9468.556579179356,-187500.02235174447,-187500.02235174447,-187500.02235174447,-187500.02235174447
$SILENCE,572.4058237559585,-10535.248879819976,5775.981339929264,9503.31354180736,-187500.02235174447,-187500.02235174447,-187500.02235174447,-187500.02235174447
$SILENCE,661.1198974990723,-10544.413095046652,5907.655466515478,9471.082326302807,-187500.02235174447,-187500.02235174447,-187500.02235174447,-187500.02235174447
$SILENCE,848.6733852235539,-10502.727091637504,6391.50367873951,9435.945384019064,-187500.02235174447,-187500.02235174447,-187500.02235174447,-187500.02235174447
$SILENCE,781.3946344130796,-10493.294655477364,6307.528174820921,9457.44776218507,-187500.02235174447,-187500.02235174447,-187500.02235174447,-187500.02235174447
$SILENCE,590.4660332758467,-10528.31983903883,5837.113361014529,9495.6915969481,-187500.02235174447,-187500.02235174447,-187500.02235174447,-187500.02235174447
$SILENCE,623.5466150697011,-10547.318821825842,5834.811131335632,9479.35247175127,-187500.02235174447,-187500.02235174447,-187500.02235174447,-187500.02235174447
$SILENCE,836.0670013507607,-10506.973923084011,6355.673832377653,9438.292317186872,-187500.02235174447,-187500.02235174447,-187500.02235174447,-187500.02235174447
$SILENCE,817.4703499639452,-10486.700890863049,6391.950713628616,9456.01725053993,-187500.02235174447,-187500.02235174447,-187500.02235174447,-187500.02235174447
$SILENCE,617.1540161554833,-10522.374275013719,5904.772091480743,9497.770309182442,-187500.02235174447,-187500.02235174447,-187500.02235174447,-187500.02235174447
$SILENCE,601.9324781814192,-10547.788208459402,5784.966741200297,9487.086175332806,-187500.02235174447,-187500.02235174447,-187500.02235174447,-187500.02235174447
$SILENCE,800.5277276668224,-10516.60752494425,6249.145418303659,9444.148474234162,-187500.02235174447,-187500.02235174447,-187500.02235174447,-187500.02235174447
$SILENCE,837.542216484811,-10487.192629241066,6422.550251787931,9449.222320225515,-187500.02235174447,-187500.02235174447,-187500.02235174447,-187500.02235174447
$SILENCE,640.3327751556367,-10514.506460965451,5975.6047696596115,9493.948160880585,-187500.02235174447,-187500.02235174447,-187500.02235174447,-187500.02235174447
$SILENCE,564.6944719188776,-10549.777513715926,5716.816272356066,9494.529306236424,-187500.02235174447,-187500.02235174447,-187500.02235174447,-187500.02235174447
$SILENCE,767.8271255287082,-10524.74355992598,6166.26514986338,9449.11056150324,-187500.02235174447,-187500.02235174447,-187500.02235174447,-187500.02235174447
$SILENCE,846.1923415890147,-10487.080870518788,6427.892318712749,9447.948270791563,-187500.02235174447,-187500.02235174447,-187500.02235174447,-187500.02235174447
$SILENCE,687.1373280450497,-10501.967132326023,6085.128317490616,9489.12018407824,-187500.02235174447,-187500.02235174447,-187500.02235174447,-187500.02235174447
$SILENCE,562.392242239981,-10541.954403156567,5724.415865470871,9502.59828598479,-187500.02235174447,-187500.02235174447,-187500.02235174447,-187500.02235174447
$SILENCE,735.7300204908872,-10529.392722772685,6084.278951201314,9458.185369752095,-187500.02235174447,-187500.02235174447,-187500.02235174447,-187500.02235174447
$SILENCE,854.574245759755,-10490.83596358728,6436.587147305864,9443.701439345055,-187500.02235174447,-187500.02235174447,-187500.02235174447,-187500.02235174447
$SILENCE,716.8874999150635,-10500.69308289207,6164.834638218241,9478.793678139888,-187500.02235174447,-187500.02235174447,-187500.02235174447,-187500.02235174447
$SILENCE,557.7654311377324,-10539.451007777574,5737.782208655144,9501.815974928853,-187500.02235174447,-187500.02235174447,-187500.02235174447,-187500.02235174447
$SILENCE,690.6912554134435,-10536.232356576009,5986.624179676078,9461.672241887121,-187500.02235174447,-187500.02235174447,-187500.02235174447,-187500.02235174447
$SILENCE,851.4002980471013,-10492.64645488816,6416.805853462917,9434.470168885013,-187500.02235174447,-187500.02235174447,-187500.02235174447,-187500.02235174447
$SILENCE,750.705689275943,-10495.082795033788,6240.6294036661875,9464.197989010572,-187500.02235174447,-187500.02235174447,-187500.02235174447,-187500.02235174447
$SILENCE,570.9976638552743,-10533.281926307909,5776.294264351638,9496.652721959677,-187500.02235174447,-187500.02235174447,-187500.02235174447,-187500.02235174447
$SILENCE,657.9459497864187,-10542.13321711221,5894.937323920408,9472.468134459035,-187500.02235174447,-187500.02235174447,-187500.02235174447,-187500.02235174447
$SILENCE,849.0086613903835,-10499.374329969207,6382.495925724021,9438.895814287163,-187500.02235174447,-187500.02235174447,-187500.02235174447,-187500.02235174447
$SILENCE,785.9096867930516,-10490.366576953718,6314.166642924148,9460.398192453169,-187500.02235174447,-187500.02235174447,-187500.02235174447,-187500.02235174447
$SILENCE,599.5631932691566,-10529.70564719506,5846.791666363677,9502.128899351228,-187500.02235174447,-187500.02235174447,-187500.02235174447,-187500.02235174447
$SILENCE,631.6155948180669,-10553.309089339864,5823.05411375214,9477.385518239204,-187500.02235174447,-187500.02235174447,-187500.02235174447,-187500.02235174447
$SILENCE,846.9970043894058,-10514.305295265352,6330.595175098798,9430.491558371968,-187500.02235174447,-187500.02235174447,-187500.02235174447,-187500.02235174447
$SILENCE,837.7210304404534,-10495.306312478342,6371.1188877962695,9442.181520722095,-187500.02235174447,-187500.02235174447,-187500.02235174447,-187500.02235174447
$SILENCE,648.2005892039048,-10524.162414570143,5920.239498643816,9486.21445729905,-187500.02235174447,-187500.02235174447,-187500.02235174447,-187500.02235174447
$SILENCE,612.0578184196733,-10551.297432338886,5762.302072322616,9482.25819853046,-187500.02235174447,-187500.02235174447,-187500.02235174447,-187500.02235174447
$SILENCE,819.5490621982888,-10516.473414477518,6256.789714907374,9434.693686329567,-187500.02235174447,-187500.02235174447,-187500.02235174447,-187500.02235174447
$SILENCE,854.574245759755,-10484.376309439696,6436.140112416758,9447.970622536019,-187500.02235174447,-187500.02235174447,-187500.02235174447,-187500.02235174447
$SILENCE,657.9459497864187,-10509.432614974095,5997.777700159276,9500.094890605795,-187500.02235174447,-187500.02235174447,-187500.02235174447,-187500.02235174447
$SILENCE,584.0287308727183,-10542.9378799126,5753.719002451779,9501.391291784203,-187500.02235174447,-187500.02235174447,-187500.02235174447,-187500.02235174447
$SILENCE,763.4238318710127,-10520.31791452383,6157.525617781355,9455.145532506172,-187500.02235174447,-187500.02235174447,-187500.02235174447,-187500.02235174447
$SILENCE,849.5003997684003,-10481.537637893873,6444.365554376311,9445.489578901479,-187500.02235174447,-187500.02235174447,-187500.02235174447,-187500.02235174447
$SILENCE,677.32491222917,-10502.503574192951,6064.430602125001,9489.611922456255,-187500.02235174447,-187500.02235174447,-187500.02235174447,-187500.02235174447
$SILENCE,555.4184979699252,-10546.04477239189,5701.035940770619,9514.400007057191,-187500.02235174447,-187500.02235174447,-187500.02235174447,-187500.02235174447
$SILENCE,728.6221657540997,-10533.617202474737,6058.015651466329,9465.092058788785,-187500.02235174447,-187500.02235174447,-187500.02235174447,-187500.02235174447
$SILENCE,851.5567602582885,-10490.813611842825,6422.1255686432805,9444.863730056732,-187500.02235174447,-187500.02235174447,-187500.02235174447,-187500.02235174447
$SILENCE,715.032305125273,-10495.753347367448,6167.829771975252,9481.811163641354,-187500.02235174447,-187500.02235174447,-187500.02235174447,-187500.02235174447
$SILENCE,554.8597043585426,-10536.522929253928,5740.37501101196,9513.93062042363,-187500.02235174447,-187500.02235174447,-187500.02235174447,-187500.02235174447
$SILENCE,681.3482262311252,-10535.673562964626,5971.067365535184,9477.050242072373,-187500.02235174447,-187500.02235174447,-187500.02235174447,-187500.02235174447
$SILENCE,846.6170247336656,-10493.987559555479,6410.010923148504,9448.7305818475,-187500.02235174447,-187500.02235174447,-187500.02235174447,-187500.02235174447
$SILENCE,751.2421311428703,-10493.629931644195,6246.954947347039,9477.094945561284,-187500.02235174447,-187500.02235174447,-187500.02235174447,-187500.02235174447
$SILENCE,570.8188498996318,-10531.784359429403,5778.685901008356,9512.656570989677,-187500.02235174447,-187500.02235174447,-187500.02235174447,-187500.02235174447
$SILENCE,646.7924293032205,-10541.216795589542,5879.268751057238,9486.750899165976,-187500.02235174447,-187500.02235174447,-187500.02235174447,-187500.02235174447
$SILENCE,839.4868182524226,-10497.0273968014,6369.576617428854,9448.149436491662,-187500.02235174447,-187500.02235174447,-187500.02235174447,-187500.02235174447
$SILENCE,779.5841431121997,-10485.873876318203,6309.405721355167,9465.829666355809,-187500.02235174447,-187500.02235174447,-187500.02235174447,-187500.02235174447
$SILENCE,585.0792628621176,-10522.46368199154,5837.403933692448,9508.49914652099,-187500.02235174447,-187500.02235174447,-187500.02235174447,-187500.02235174447
$SILENCE,608.5038910512794,-10545.821254947336,5803.049302464641,9495.06574810335,-187500.02235174447,-187500.02235174447,-187500.02235174447,-187500.02235174447
$SILENCE,814.9893063294061,-10504.828155616302,6313.071407445837,9453.513855160934,-187500.02235174447,-187500.02235174447,-187500.02235174447,-187500.02235174447
$SILENCE,801.6006114006772,-10484.488068161972,6365.709765638086,9466.947253578575,-187500.02235174447,-187500.02235174447,-187500.02235174447,-187500.02235174447
$SILENCE,615.8129114881649,-10515.959324355046,5914.8527282300865,9504.7440534525,-187500.02235174447,-187500.02235174447,-187500.02235174447,-187500.02235174447
$SILENCE,580.4524517598691,-10544.748371213482,5747.929900637853,9499.625503972233,-187500.02235174447,-187500.02235174447,-187500.02235174447,-187500.02235174447
$SILENCE,789.9777042839175,-10515.51228946594,6234.102694285238,9455.01142203944,-187500.02235174447,-187500.02235174447,-187500.02235174447,-187500.02235174447
$SILENCE,823.4829692224228,-10485.583303640284,6399.662065465697,9456.799561595864,-187500.02235174447,-187500.02235174447,-187500.02235174447,-187500.02235174447
$SILENCE,644.4678478798685,-10509.097338807267,5997.04009259225,9503.268838318449,-187500.02235174447,-187500.02235174447,-187500.02235174447,-187500.02235174447
$SILENCE,553.7644688802325,-10543.586080501806,5716.123368277952,9514.914097179664,-187500.02235174447,-187500.02235174447,-187500.02235174447,-187500.02235174447
$SILENCE,753.253788143848,-10519.692065679083,6149.747210710909,9468.86950360173,-187500.02235174447,-187500.02235174447,-187500.02235174447,-187500.02235174447
$SILENCE,850.6850422245315,-10481.671748360604,6453.440362625166,9457.850093585264,-187500.02235174447,-187500.02235174447,-187500.02235174447,-187500.02235174447
$SILENCE,670.3958714480248,-10497.65324564615,6082.624922111621,9499.580800483323,-187500.02235174447,-187500.02235174447,-187500.02235174447,-187500.02235174447
$SILENCE,548.7576781222436,-10536.299411809376,5726.762798638678,9513.193012856605,-187500.02235174447,-187500.02235174447,-187500.02235174447,-187500.02235174447
$SILENCE,703.4988049863344,-10524.385932014697,6032.713476742921,9475.35150949377,-187500.02235174447,-187500.02235174447,-187500.02235174447,-187500.02235174447
$SILENCE,835.7987804172969,-10488.019643785912,6392.487155495543,9456.35252670676,-187500.02235174447,-187500.02235174447,-187500.02235174447,-187500.02235174447
$SILENCE,711.6348399680662,-10494.166373511121,6156.564492769778,9493.21055331356,-187500.02235174447,-187500.02235174447,-187500.02235174447,-187500.02235174447
$SILENCE,551.4845909457912,-10535.114769353244,5725.801673627099,9521.731379238532,-187500.02235174447,-187500.02235174447,-187500.02235174447,-187500.02235174447
$SILENCE,670.5970371481225,-10537.305240309865,5944.133513466539,9481.699404919078,-187500.02235174447,-187500.02235174447,-187500.02235174447,-187500.02235174447
$SILENCE,842.1690275870595,-10496.714472379026,6401.159632344203,9460.867579086731,-187500.02235174447,-187500.02235174447,-187500.02235174447,-187500.02235174447
$SILENCE,750.6386340425771,-10490.053652531346,6248.005479336439,9494.59636146979,-187500.02235174447,-187500.02235174447,-187500.02235174447,-187500.02235174447
$SILENCE,559.5982741830676,-10524.855318648259,5768.292339836638,9527.274611863448,-187500.02235174447,-187500.02235174447,-187500.02235174447,-187500.02235174447
$SILENCE,626.3852866155252,-10540.680353722615,5854.123038545017,9498.083233604817,-187500.02235174447,-187500.02235174447,-187500.02235174447,-187500.02235174447
$SILENCE,822.1195128106491,-10499.821364858313,6351.337593953323,9459.459419186047,-187500.02235174447,-187500.02235174447,-187500.02235174447,-187500.02235174447
$SILENCE,774.6891110764875,-10487.93023680809,6311.640895800698,9486.773250910432,-187500.02235174447,-187500.02235174447,-187500.02235174447,-187500.02235174447
$SILENCE,581.8829634050088,-10520.899059879668,5839.817922093621,9527.36401884127,-187500.02235174447,-187500.02235174447,-187500.02235174447,-187500.02235174447
$SILENCE,597.5291845237238,-10543.89900492418,5784.586761544557,9516.992809414007,-187500.02235174447,-187500.02235174447,-187500.02235174447,-187500.02235174447
$SILENCE,806.8979748365849,-10505.36459748323,6288.842116456284,9471.886989103197,-187500.02235174447,-187500.02235174447,-187500.02235174447,-187500.02235174447
$SILENCE,796.2585444758588,-10481.180009982589,6357.6184341452645,9484.15809680916,-187500.02235174447,-187500.02235174447,-187500.02235174447,-187500.02235174447
$SILENCE,607.2745451062376,-10509.276152762908,5915.903260219487,9530.515614809468,-187500.02235174447,-187500.02235174447,-187500.02235174447,-187500.02235174447
$SILENCE,564.2027335408609,-10541.216795589542,5728.394475983915,9522.93837343912,-187500.02235174447,-187500.02235174447,-187500.02235174447,-187500.02235174447
$SILENCE,777.8854105335964,-10511.220754530521,6215.126063242682,9480.671224674134,-187500.02235174447,-187500.02235174447,-187500.02235174447,-187500.02235174447
talvez,819.2584895203697,-10482.990501283468,6397.851574164817,9483.331082264314,-187500.02235174447,-187500.02235174447,-187500.02235174447,-187500.02235174447
talvez,636.5329785982345,-10503.352940482253,5997.174203058983,9521.574917027345,-187500.02235174447,-187500.02235174447,-187500.02235174447,-187500.02235174447
talvez,540.6439948849672,-10539.85333917777,5693.369292422449,9529.353324097792,-187500.02235174447,-187500.02235174447,-187500.02235174447,-187500.02235174447
talvez,735.1712268795046,-10523.044827347378,6110.564602680755,9484.806297398365,-187500.02235174447,-187500.02235174447,-187500.02235174447,-187500.02235174447
talvez,824.1982250449927,-10486.432669929585,6404.60180099032,9478.92778860662,-187500.02235174447,-187500.02235174447,-187500.02235174447,-187500.02235174447
talvez,678.5766099186671,-10500.871896847713,6090.582143137711,9521.753730982988,-187500.02235174447,-187500.02235174447,-187500.02235174447,-187500.02235174447
talvez,547.4836286882912,-10539.361600799752,5707.048560029097,9548.08408595134,-187500.02235174447,-187500.02235174447,-187500.02235174447,-187500.02235174447
talvez,708.8408719111529,-10529.146853583678,6027.103188884639,9504.609942985768,-187500.02235174447,-187500.02235174447,-187500.02235174447,-187500.02235174447
talvez,837.8551409071853,-10487.282036218887,6408.759225459007,9481.073556074329,-187500.02235174447,-187500.02235174447,-187500.02235174447,-187500.02235174447
talvez,713.1324068465718,-10495.015739800423,6169.953187698507,9510.913134922164,-187500.02235174447,-187500.02235174447,-187500.02235174447,-187500.02235174447
talvez,549.3388234780817,-10535.897080409179,5722.158339280884,9541.535024825935,-187500.02235174447,-187500.02235174447,-187500.02235174447,-187500.02235174447
talvez,663.4668306668796,-10538.378124043718,5919.4348358434245,9505.146384852695,-187500.02235174447,-187500.02235174447,-187500.02235174447,-187500.02235174447
talvez,835.9999461173948,-10494.568704911317,6379.947826856116,9472.915169348142,-187500.02235174447,-187500.02235174447,-187500.02235174447,-187500.02235174447
talvez,751.3091863762363,-10490.701853120549,6241.523473444399,9496.11628009275,-187500.02235174447,-187500.02235174447,-187500.02235174447,-187500.02235174447
talvez,567.2425707867826,-10529.012743116946,5774.550828284125,9535.924736967652,-187500.02235174447,-187500.02235174447,-187500.02235174447,-187500.02235174447
talvez,628.8886819945195,-10539.1380833552,5843.170683761917,9513.193012856605,-187500.02235174447,-187500.02235174447,-187500.02235174447,-187500.02235174447
talvez,829.5626437142663,-10499.910771836136,6346.286099706424,9474.435087971102,-187500.02235174447,-187500.02235174447,-187500.02235174447,-187500.02235174447
talvez,783.898029792074,-10488.869010075214,6317.497052847988,9492.562352724357,-187500.02235174447,-187500.02235174447,-187500.02235174447,-187500.02235174447
talvez,587.5379547522015,-10523.51421398094,5847.596329164068,9529.532138053435,-187500.02235174447,-187500.02235174447,-187500.02235174447,-187500.02235174447
talvez,593.7293879663215,-10548.101132881777,5769.924017181876,9515.294076835404,-187500.02235174447,-187500.02235174447,-187500.02235174447,-187500.02235174447
talvez,808.7531696263754,-10509.83494637429,6279.230866340503,9473.071631559329,-187500.02235174447,-187500.02235174447,-187500.02235174447,-187500.02235174447
talvez,814.5422714402999,-10487.55025715235,6363.519294681465,9485.633311943211,-187500.02235174447,-187500.02235174447,-187500.02235174447,-187500.02235174447
talvez,628.7098680388771,-10516.674580177616,5927.12383593605,9524.950030440097,-187500.02235174447,-187500.02235174447,-187500.02235174447,-187500.02235174447
talvez,575.3786057685144,-10549.106961382266,5723.499443948203,9521.083178649329,-187500.02235174447,-187500.02235174447,-187500.02235174447,-187500.02235174447
talvez,783.7192158364315,-10520.832004646303,6196.08237696676,9473.071631559329,-187500.02235174447,-187500.02235174447,-187500.02235174447,-187500.02235174447
talvez,831.216672803959,-10491.014777542923,6394.901143896716,9476.334986249803,-187500.02235174447,-187500.02235174447,-187500.02235174447,-187500.02235174447
talvez,654.9508160294075,-10510.147870796665,6011.032284621273,9520.12205363775,-187500.02235174447,-187500.02235174447,-187500.02235174447,-187500.02235174447
talvez,558.5253904492129,-10548.034077648412,5706.109786761974,9536.036495689928,-187500.02235174447,-187500.02235174447,-187500.02235174447,-187500.02235174447
talvez,750.2586543868368,-10527.716341938538,6113.157405037571,9485.856829387765,-187500.02235174447,-187500.02235174447,-187500.02235174447,-187500.02235174447
talvez,843.2195595764589,-10488.466678675019,6411.061455137904,9470.232960013505,-187500.02235174447,-187500.02235174447,-187500.02235174447,-187500.02235174447
talvez,696.1674328049937,-10501.497745692463,6101.10981477616,9508.677960476633,-187500.02235174447,-187500.02235174447,-187500.02235174447,-187500.02235174447
talvez,563.0180910847296,-10540.70270546707,5707.629705384935,9530.537966553924,-187500.02235174447,-187500.02235174447,-187500.02235174447,-187500.02235174447
talvez,712.0148196238065,-10533.594850730284,6012.127520099583,9482.191143297094,-187500.02235174447,-187500.02235174447,-187500.02235174447,-187500.02235174447
talvez,852.1155538696712,-10492.98173105499,6408.446301036633,9462.611015154245,-187500.02235174447,-187500.02235174447,-187500.02235174447,-187500.02235174447
talvez,740.6027007821442,-10498.323797979809,6190.94147574204,9498.284399304915,-187500.02235174447,-187500.02235174447,-187500.02235174447,-187500.02235174447
talvez,576.0715098466289,-10537.484054265506,5742.118447079474,9531.096760165306,-187500.02235174447,-187500.02235174447,-187500.02235174447,-187500.02235174447
talvez,688.9925228348402,-10540.836815933802,5926.520338835757,9500.49722200599,-187500.02235174447,-187500.02235174447,-187500.02235174447,-187500.02235174447
talvez,864.0290336643499,-10499.821364858313,6390.810774661395,9467.327233234315,-187500.02235174447,-187500.02235174447,-187500.02235174447,-187500.02235174447
talvez,782.5569251247556,-10496.26743748992,6267.853828412751,9493.590532969301,-187500.02235174447,-187500.02235174447,-187500.02235174447,-187500.02235174447
talvez,598.423254301936,-10534.354810041763,5796.3437791280485,9530.73913225402,-187500.02235174447,-187500.02235174447,-187500.02235174447,-187500.02235174447
talvez,649.6087491045892,-10549.822217204835,5838.856797082043,9500.005483627974,-187500.02235174447,-187500.02235174447,-187500.02235174447,-187500.02235174447
talvez,851.154428858093,-10508.65030391816,6335.579614112332,9460.420544197625,-187500.02235174447,-187500.02235174447,-187500.02235174447,-187500.02235174447
talvez,817.8950331085961,-10494.144021766666,6324.9178320071505,9486.415622999148,-187500.02235174447,-187500.02235174447,-187500.02235174447,-187500.02235174447
talvez,629.3357168836257,-10526.263478548943,5866.3717945065255,9528.749826997499,-187500.02235174447,-187500.02235174447,-187500.02235174447,-187500.02235174447
talvez,631.1909116734162,-10550.76099047196,5776.853057963021,9512.969495412051,-187500.02235174447,-187500.02235174447,-187500.02235174447,-187500.02235174447
talvez,844.0689258657607,-10514.037074331889,6278.694424473575,9464.466209944036,-187500.02235174447,-187500.02235174447,-187500.02235174447,-187500.02235174447
talvez,848.606329990188,-10491.707681621037,6376.192733787624,9471.059974558351,-187500.02235174447,-187500.02235174447,-187500.02235174447,-187500.02235174447
talvez,662.2374847218376,-10518.574478456316,5945.564025111678,9512.678922734132,-187500.02235174447,-187500.02235174447,-187500.02235174447,-187500.02235174447
talvez,605.6875712499108,-10551.096266638788,5730.450836473803,9513.081254134328,-187500.02235174447,-187500.02235174447,-187500.02235174447,-187500.02235174447
talvez,814.4975679513893,-10524.073007592322,6201.759720058409,9470.232960013505,-187500.02235174447,-187500.02235174447,-187500.02235174447,-187500.02235174447
talvez,864.6325307646431,-10491.93119906559,6410.815585948895,9469.562407679845,-187500.02235174447,-187500.02235174447,-187500.02235174447,-187500.02235174447
talvez,696.0556740827172,-10512.047769075367,6035.216872121915,9509.817899443853,-187500.02235174447,-187500.02235174447,-187500.02235174447,-187500.02235174447
talvez,593.4835187773132,-10551.342135827797,5715.229298499739,9523.206594372583,-187500.02235174447,-187500.02235174447,-187500.02235174447,-187500.02235174447
talvez,780.0535297457611,-10535.070065864333,6111.771596881342,9475.887951360697,-187500.02235174447,-187500.02235174447,-187500.02235174447,-187500.02235174447
talvez,878.4012053491123,-10497.787356112882,6423.109045399314,9460.085268030794,-187500.02235174447,-187500.02235174447,-187500.02235174447,-187500.02235174447
talvez,731.3490785776471,-10509.700835907559,6121.695771419499,9495.646893459189,-187500.02235174447,-187500.02235174447,-187500.02235174447,-187500.02235174447
talvez,594.6011060000785,-10547.877615437224,5722.89594684791,9521.5972687718,-187500.02235174447,-187500.02235174447,-187500.02235174447,-187500.02235174447
talvez,748.090535174672,-10542.356734556763,6015.994371890351,9480.291245018392,-187500.02235174447,-187500.02235174447,-187500.02235174447,-187500.02235174447
talvez,888.1242141871709,-10499.843716602769,6419.9574494311155,9458.475942430014,-187500.02235174447,-187500.02235174447,-187500.02235174447,-187500.02235174447
talvez,773.0574337312501,-10501.520097436918,6206.744159071942,9491.154192823673,-187500.02235174447,-187500.02235174447,-187500.02235174447,-187500.02235174447
talvez,598.1103298795617,-10541.127388611721,5754.970700141275,9526.268783362959,-187500.02235174447,-187500.02235174447,-187500.02235174447,-187500.02235174447
talvez,699.7884154067535,-10546.51415902545,5923.681667289933,9495.266913803449,-187500.02235174447,-187500.02235174447,-187500.02235174447,-187500.02235174447
talvez,881.3069321283022,-10504.69404514957,6389.73789092754,9455.592567395279,-187500.02235174447,-187500.02235174447,-187500.02235174447,-187500.02235174447
talvez,800.2148032444481,-10499.50844043594,6275.431069783101,9477.005538583462,-187500.02235174447,-187500.02235174447,-187500.02235174447,-187500.02235174447
talvez,613.7565509982767,-10535.897080409179,5804.926848998886,9518.736245481521,-187500.02235174447,-187500.02235174447,-187500.02235174447,-187500.02235174447
talvez,663.355071944603,-10553.912586440158,5839.572052904613,9506.062806375361,-187500.02235174447,-187500.02235174447,-187500.02235174447,-187500.02235174447
talvez,865.1689726315705,-10512.22658303101,6341.055791503882,9463.996823310474,-187500.02235174447,-187500.02235174447,-187500.02235174447,-187500.02235174447
talvez,827.7298006689311,-10496.334492723287,6335.289041434413,9472.423430970124,-187500.02235174447,-187500.02235174447,-187500.02235174447,-187500.02235174447
talvez,634.5213215972569,-10530.152682084166,5873.5914079655895,9513.461233790069,-187500.02235174447,-187500.02235174447,-187500.02235174447,-187500.02235174447
talvez,631.0120977177737,-10556.415981819151,5768.135877625451,9500.564277239357,-187500.02235174447,-187500.02235174447,-187500.02235174447,-187500.02235174447
talvez,851.959091658484,-10522.240164546987,6273.687633715586,9458.163018007639,-187500.02235174447,-187500.02235174447,-187500.02235174447,-187500.02235174447
talvez,857.7258417279533,-10495.105146778244,6385.871039136772,9470.970567580529,-187500.02235174447,-187500.02235174447,-187500.02235174447,-187500.02235174447
talvez,662.259836466293,-10519.960286612546,5959.936196796441,9519.675018748643,-187500.02235174447,-187500.02235174447,-187500.02235174447,-187500.02235174447
talvez,596.0763211341288,-10551.27508059443,5730.2496707737055,9529.129806653238,-187500.02235174447,-187500.02235174447,-187500.02235174447,-187500.02235174447
talvez,798.9407538104956,-10523.581269214304,6190.717958297487,9475.44091647159,-187500.02235174447,-187500.02235174447,-187500.02235174447,-187500.02235174447
talvez,860.3409958292242,-10493.31700722182,6410.279144081967,9459.146494763672,-187500.02235174447,-187500.02235174447,-187500.02235174447,-187500.02235174447
talvez,693.4405199814463,-10513.053597575856,6041.4083053360355,9504.229963330026,-187500.02235174447,-187500.02235174447,-187500.02235174447,-187500.02235174447
talvez,591.1812890984165,-10551.453894550074,5716.458644444781,9528.906289208686,-187500.02235174447,-187500.02235174447,-187500.02235174447,-187500.02235174447
talvez,773.1021372201607,-10536.165301342644,6092.549096649778,9474.658605415656,-187500.02235174447,-187500.02235174447,-187500.02235174447,-187500.02235174447
talvez,875.0707954252715,-10500.760138125437,6418.146958130236,9458.118314518728,-187500.02235174447,-187500.02235174447,-187500.02235174447,-187500.02235174447
talvez,732.7795902227867,-10508.382082984697,6129.45182674549,9493.367015524747,-187500.02235174447,-187500.02235174447,-187500.02235174447,-187500.02235174447
talvez,581.748852938277,-10546.42475204763,5716.413940955871,9522.804262972388,-187500.02235174447,-187500.02235174447,-187500.02235174447,-187500.02235174447
talvez,726.4316947974795,-10545.530682269417,5993.307351268215,9484.605131698267,-187500.02235174447,-187500.02235174447,-187500.02235174447,-187500.02235174447
talvez,870.8910192121291,-10502.45887070404,6411.284972582456,9463.39332621018,-187500.02235174447,-187500.02235174447,-187500.02235174447,-187500.02235174447
talvez,763.8485150156636,-10503.665864904628,6215.818967320796,9497.658550460166,-187500.02235174447,-187500.02235174447,-187500.02235174447,-187500.02235174447
talvez,582.9111436499529,-10540.523891511428,5761.452706033315,9537.444655590612,-187500.02235174447,-187500.02235174447,-187500.02235174447,-187500.02235174447
talvez,665.7020051124102,-10546.04477239189,5899.921762933942,9496.02687311493,-187500.02235174447,-187500.02235174447,-187500.02235174447,-187500.02235174447
talvez,845.8794171666405,-10506.54923993936,6369.241341262024,9452.239805726982,-187500.02235174447,-187500.02235174447,-187500.02235174447,-187500.02235174447
talvez,772.6327505865993,-10499.240219502475,6273.486468015489,9481.319425263337,-187500.02235174447,-187500.02235174447,-187500.02235174447,-187500.02235174447
talvez,578.2172773143384,-10532.499615251973,5803.205764675828,9525.754693240488,-187500.02235174447,-187500.02235174447,-187500.02235174447,-187500.02235174447
talvez,617.3328301111258,-10548.27994683742,5815.0074857482305,9507.046283131396,-187500.02235174447,-187500.02235174447,-187500.02235174447,-187500.02235174447
talvez,822.4547889774786,-10505.342245738775,6322.146215694692,9467.327233234315,-187500.02235174447,-187500.02235174447,-187500.02235174447,-187500.02235174447
talvez,794.4704049194343,-10489.40545194214,6341.100494992793,9486.840306143798,-187500.02235174447,-187500.02235174447,-187500.02235174447,-187500.02235174447
talvez,603.0500654041846,-10522.88836513619,5885.169611593439,9529.778007242443,-187500.02235174447,-187500.02235174447,-187500.02235174447,-187500.02235174447
talvez,582.4641087608468,-10551.342135827797,5759.016365887686,9512.813033200864,-187500.02235174447,-187500.02235174447,-187500.02235174447,-187500.02235174447
talvez,789.5530211392667,-10514.998199343467,6248.877197370195,9460.085268030794,-187500.02235174447,-187500.02235174447,-187500.02235174447,-187500.02235174447
talvez,803.1652335125486,-10486.812649585325,6369.151934284203,9464.756782621955,-187500.02235174447,-187500.02235174447,-187500.02235174447,-187500.02235174447
talvez,609.3085538516706,-10510.505498707951,5940.825455287154,9501.480698762023,-187500.02235174447,-187500.02235174447,-187500.02235174447,-187500.02235174447
talvez,546.589558910079,-10544.904833424669,5702.578211138036,9513.707102979077,-187500.02235174447,-187500.02235174447,-187500.02235174447,-187500.02235174447
talvez,764.1390876935825,-10520.56378371284,6165.16991438507,9468.78009662391,-187500.02235174447,-187500.02235174447,-187500.02235174447,-187500.02235174447
talvez,833.1165710826601,-10487.88553331918,6402.9924753895375,9467.751916378966,-187500.02235174447,-187500.02235174447,-187500.02235174447,-187500.02235174447
talvez,665.5008394123125,-10503.732920137993,6044.4034390930465,9507.940352909607,-187500.02235174447,-187500.02235174447,-187500.02235174447,-187500.02235174447
talvez,551.5963496680677,-10541.909699667656,5700.767719837156,9526.112321151772,-187500.02235174447,-187500.02235174447,-187500.02235174447,-187500.02235174447
talvez,728.4210000540019,-10528.833929161303,6075.673529586021,9476.111468805251,-187500.02235174447,-187500.02235174447,-187500.02235174447,-187500.02235174447
talvez,837.3857542736238,-10492.400585699152,6410.882641182261,9460.465247686536,-187500.02235174447,-187500.02235174447,-187500.02235174447,-187500.02235174447
talvez,690.9594763469072,-10502.83885035978,6119.572355696244,9491.914152135152,-187500.02235174447,-187500.02235174447,-187500.02235174447,-187500.02235174447
talvez,540.1969599958611,-10542.602603745772,5700.231277970229,9516.16579486916,-187500.02235174447,-187500.02235174447,-187500.02235174447,-187500.02235174447
talvez,683.7398628878431,-10538.199310088075,5969.838019590142,9477.676090917123,-187500.02235174447,-187500.02235174447,-187500.02235174447,-187500.02235174447
talvez,843.0183938763612,-10492.065309532323,6400.064396865892,9455.927843562109,-187500.02235174447,-187500.02235174447,-187500.02235174447,-187500.02235174447
talvez,741.8096949827308,-10493.115841521721,6216.109539998715,9488.717852678044,-187500.02235174447,-187500.02235174447,-187500.02235174447,-187500.02235174447
talvez,565.6779486749111,-10532.611373974249,5754.009575129697,9520.323219337848,-187500.02235174447,-187500.02235174447,-187500.02235174447,-187500.02235174447
talvez,655.8448858076198,-10542.379086301218,5887.02480638323,9490.505992234468,-187500.02235174447,-187500.02235174447,-187500.02235174447,-187500.02235174447
talvez,840.5597019862774,-10502.056539303845,6368.235512761536,9458.006555796452,-187500.02235174447,-187500.02235174447,-187500.02235174447,-187500.02235174447
talvez,773.9068000205517,-10492.1770682546,6285.422299554622,9488.695500933589,-187500.02235174447,-187500.02235174447,-187500.02235174447,-187500.02235174447
talvez,581.5029837492685,-10527.60458321626,5812.861718280521,9527.386370585726,-187500.02235174447,-187500.02235174447,-187500.02235174447,-187500.02235174447
talvez,598.6914752353997,-10557.377106830729,5790.979360458775,9486.817954399343,-187500.02235174447,-187500.02235174447,-187500.02235174447,-187500.02235174447
talvez,812.4859109504117,-10515.60169644376,6301.96259045155,9453.089172016284,-187500.02235174447,-187500.02235174447,-187500.02235174447,-187500.02235174447
talvez,809.4013702155794,-10487.17027749661,6348.20834972958,9477.899608361675,-187500.02235174447,-187500.02235174447,-187500.02235174447,-187500.02235174447
talvez,619.3668388565587,-10517.479242978006,5894.333826820115,9510.086120377317,-187500.02235174447,-187500.02235174447,-187500.02235174447,-187500.02235174447
talvez,595.9869141563075,-10547.497635781483,5752.959043140298,9503.40294878518,-187500.02235174447,-187500.02235174447,-187500.02235174447,-187500.02235174447
talvez,812.1506347835822,-10513.947667354068,6255.538017217877,9458.610052896745,-187500.02235174447,-187500.02235174447,-187500.02235174447,-187500.02235174447
talvez,839.2633008078695,-10484.577475139795,6413.810719705906,9467.506047189958,-187500.02235174447,-187500.02235174447,-187500.02235174447,-187500.02235174447
talvez,634.4319146194357,-10516.629876688705,5957.902188051008,9513.036550645418,-187500.02235174447,-187500.02235174447,-187500.02235174447,-187500.02235174447
talvez,569.8800766325089,-10555.968946930045,5727.388647483426,9504.609942985768,-187500.02235174447,-187500.02235174447,-187500.02235174447,-187500.02235174447
talvez,762.2838929037921,-10529.057446605855,6144.606309486188,9455.30199471736,-187500.02235174447,-187500.02235174447,-187500.02235174447,-187500.02235174447
talvez,852.4061265475901,-10484.398661184152,6423.846652966339,9446.696573102066,-187500.02235174447,-187500.02235174447,-187500.02235174447,-187500.02235174447
talvez,681.4152814644912,-10501.721263137015,6043.2858518702815,9494.59636146979,-187500.02235174447,-187500.02235174447,-187500.02235174447,-187500.02235174447
talvez,564.3368440075927,-10545.150702613677,5688.943647020298,9515.607001257778,-187500.02235174447,-187500.02235174447,-187500.02235174447,-187500.02235174447
talvez,736.4676280579124,-10537.461702521052,6057.05452645475,9458.453590685558,-187500.02235174447,-187500.02235174447,-187500.02235174447,-187500.02235174447
talvez,852.4284782920455,-10498.189687513077,6411.419083049189,9439.074628242806,-187500.02235174447,-187500.02235174447,-187500.02235174447,-187500.02235174447
talvez,725.224700596893,-10501.207173014544,6149.903672922096,9483.934579364608,-187500.02235174447,-187500.02235174447,-187500.02235174447,-187500.02235174447
talvez,576.5855999691009,-10537.931089154612,5730.294374262617,9524.88297520673,-187500.02235174447,-187500.02235174447,-187500.02235174447,-187500.02235174447
talvez,707.4103602660132,-10535.874728664725,5975.47065919288,9487.935541622108,-187500.02235174447,-187500.02235174447,-187500.02235174447,-187500.02235174447
talvez,865.4595453094895,-10496.401547956651,6402.232516078057,9440.81806431032,-187500.02235174447,-187500.02235174447,-187500.02235174447,-187500.02235174447
talvez,760.4510498584569,-10498.41320495763,6222.859766824218,9464.197989010572,-187500.02235174447,-187500.02235174447,-187500.02235174447,-187500.02235174447
talvez,587.0909198630953,-10539.18278684411,5760.04454613263,9508.320332565349,-187500.02235174447,-187500.02235174447,-187500.02235174447,-187500.02235174447
talvez,668.9206563139745,-10547.497635781483,5886.6224749830335,9478.279588017414,-187500.02235174447,-187500.02235174447,-187500.02235174447,-187500.02235174447
talvez,857.345862072213,-10505.789280627881,6380.0372338339375,9447.05420101335,-187500.02235174447,-187500.02235174447,-187500.02235174447,-187500.02235174447
talvez,797.1079107651605,-10498.189687513077,6297.000503182471,9463.035698298896,-187500.02235174447,-187500.02235174447,-187500.02235174447,-187500.02235174447
talvez,603.9441351823968,-10533.41603677464,5816.460349137825,9496.809184170865,-187500.02235174447,-187500.02235174447,-187500.02235174447,-187500.02235174447
talvez,636.9353099984301,-10549.0399061489,5797.550773328635,9475.753840893965,-187500.02235174447,-187500.02235174447,-187500.02235174447,-187500.02235174447
