WORD,Channel_1,Channel_2,Channel_3,Channel_4,Channel_5,Channel_6,Channel_7,Channel_8
não,1108.2665453274901,-10786.951874131188,6159.514923037877,9674.282035146003,-187500.02235174447,-187500.02235174447,-187500.02235174447,-187500.02235174447
não,1301.3409139324324,-10765.449495965184,6555.498427808097,9626.404598522735,-187500.02235174447,-187500.02235174447,-187500.02235174447,-187500.02235174447
não,1413.412560631342,-10723.919954767223,6894.082652817089,9613.954676861129,-187500.02235174447,-187500.02235174447,-187500.02235174447,-187500.02235174447
não,1265.1981431482009,-10737.666277607237,6590.97064625867,9654.098409902861,-187500.02235174447,-187500.02235174447,-187500.02235174447,-187500.02235174447
não,1116.2014146091242,-10781.788621162012,6177.5080773244,9685.033224229006,-187500.02235174447,-187500.02235174447,-187500.02235174447,-187500.02235174447
não,1266.427489093243,-10774.256083280574,6461.911673773727,9635.278241071492,-187500.02235174447,-187500.02235174447,-187500.02235174447,-187500.02235174447
não,1428.254118949666,-10729.530242625504,6904.029179099701,9603.918743600696,-187500.02235174447,-187500.02235174447,-187500.02235174447,-187500.02235174447
não,1305.6995041012174,-10734.671143850224,6677.047214156058,9640.106217873838,-187500.02235174447,-187500.02235174447,-187500.02235174447,-187500.02235174447
não,1133.74753400654,-10777.430030993228,6216.668333610098,9672.113915933838,-187500.02235174447,-187500.02235174447,-187500.02235174447,-187500.02235174447
não,1238.1748841017347,-10786.258970053073,6382.652387935208,9638.563947506422,-187500.02235174447,-187500.02235174447,-187500.02235174447,-187500.02235174447
não,1428.9917265166912,-10747.03165853401,6861.873789056992,9595.246266752038,-187500.02235174447,-187500.02235174447,-187500.02235174447,-187500.02235174447
não,1355.1192110919012,-10737.800388073969,6757.759363384172,9624.750569433043,-187500.02235174447,-187500.02235174447,-187500.02235174447,-187500.02235174447
não,1151.718336548607,-10776.804182148479,6244.898586857151,9665.609558297343,-187500.02235174447,-187500.02235174447,-187500.02235174447,-187500.02235174447
não,1190.588020156386,-10791.288112555518,6276.056918627849,9642.117874874815,-187500.02235174447,-187500.02235174447,-187500.02235174447,-187500.02235174447
não,1409.4115983738423,-10750.093847524387,6802.954590672803,9596.721481886087,-187500.02235174447,-187500.02235174447,-187500.02235174447,-187500.02235174447
não,1393.4971563216636,-10740.214376475142,6813.079930911056,9609.484327970067,-187500.02235174447,-187500.02235174447,-187500.02235174447,-187500.02235174447
não,1187.3470172103664,-10773.719641413647,6338.530044380432,9656.825322726409,-187500.02235174447,-187500.02235174447,-187500.02235174447,-187500.02235174447
não,1173.5783426258972,-10799.021816137054,6219.529356900377,9646.007078410039,-187500.02235174447,-187500.02235174447,-187500.02235174447,-187500.02235174447
não,1389.5856010419848,-10758.922786584233,6735.765246840149,9595.670949896688,-187500.02235174447,-187500.02235174447,-187500.02235174447,-187500.02235174447
não,1408.4057698733534,-10733.441797905183,6870.009824038723,9609.350217503335,-187500.02235174447,-187500.02235174447,-187500.02235174447,-187500.02235174447
não,1227.6248607188297,-10764.398963975784,6452.523941102499,9657.786447737986,-187500.02235174447,-187500.02235174447,-187500.02235174447,-187500.02235174447
não,1162.6483395872522,-10803.782737706035,6189.354501885713,9651.058572656939,-187500.02235174447,-187500.02235174447,-187500.02235174447,-187500.02235174447
não,1368.194981598256,-10775.932464114721,6641.910271872315,9594.75452837402,-187500.02235174447,-187500.02235174447,-187500.02235174447,-187500.02235174447
não,1435.5407876420961,-10741.711943353646,6895.4684609733185,9597.749662131031,-187500.02235174447,-187500.02235174447,-187500.02235174447,-187500.02235174447
não,1265.131087914835,-10764.533074442515,6527.938726894704,9631.813720680919,-187500.02235174447,-187500.02235174447,-187500.02235174447,-187500.02235174447
não,1153.975862738593,-10804.542697017516,6167.382737086146,9651.237386612582,-187500.02235174447,-187500.02235174447,-187500.02235174447,-187500.02235174447
não,1342.579882452474,-10796.18314459123,6547.407096315276,9593.458127195612,-187500.02235174447,-187500.02235174447,-187500.02235174447,-187500.02235174447
não,1452.2822442391212,-10762.521417441538,6898.597705197061,9572.022804262973,-187500.02235174447,-187500.02235174447,-187500.02235174447,-187500.02235174447
não,1321.032800797558,-10768.064650066453,6617.926850071771,9604.119909300794,-187500.02235174447,-187500.02235174447,-187500.02235174447,-187500.02235174447
não,1183.681331119696,-10800.877010926844,6196.708225811509,9651.326793590402,-187500.02235174447,-187500.02235174447,-187500.02235174447,-187500.02235174447
não,1329.4594084572088,-10799.178278348241,6457.486028371576,9609.32786575888,-187500.02235174447,-187500.02235174447,-187500.02235174447,-187500.02235174447
não,1499.3997215509085,-10760.956795329666,6904.945600622368,9567.507751883,-187500.02235174447,-187500.02235174447,-187500.02235174447,-187500.02235174447
não,1393.251287132655,-10762.409658719262,6723.76236006765,9608.18792679166,-187500.02235174447,-187500.02235174447,-187500.02235174447,-187500.02235174447
não,1179.9038863067492,-10806.37554006285,6223.195042991048,9634.026543381995,-187500.02235174447,-187500.02235174447,-187500.02235174447,-187500.02235174447
não,1264.3487768588993,-10807.47077554116,6353.483361421033,9589.926551571674,-187500.02235174447,-187500.02235174447,-187500.02235174447,-187500.02235174447
não,1503.8924221864252,-10759.548635428982,6886.0807283020895,9570.011147261996,-187500.02235174447,-187500.02235174447,-187500.02235174447,-187500.02235174447
não,1420.6768775793169,-10754.295975481984,6793.611561490484,9606.04215932395,-187500.02235174447,-187500.02235174447,-187500.02235174447,-187500.02235174447
não,1218.90768038126,-10792.740975945113,6287.501011788966,9654.098409902861,-187500.02235174447,-187500.02235174447,-187500.02235174447,-187500.02235174447
não,1264.102907669891,-10811.404682565295,6296.195840382081,9622.291877542959,-187500.02235174447,-187500.02235174447,-187500.02235174447,-187500.02235174447
não,1471.0353578371237,-10776.379499003828,6806.687331996838,9572.5592461299,-187500.02235174447,-187500.02235174447,-187500.02235174447,-187500.02235174447
não,1446.2472732361882,-10755.36885921584,6849.468570884296,9588.540743415446,-187500.02235174447,-187500.02235174447,-187500.02235174447,-187500.02235174447
não,1235.358564300366,-10795.534944002027,6347.850721818295,9638.631002739789,-187500.02235174447,-187500.02235174447,-187500.02235174447,-187500.02235174447
não,1223.4003810167767,-10827.766159506578,6223.865595324707,9623.409464765724,-187500.02235174447,-187500.02235174447,-187500.02235174447,-187500.02235174447
não,1438.8711975659369,-10790.237580566118,6744.482427177719,9570.279368195459,-187500.02235174447,-187500.02235174447,-187500.02235174447,-187500.02235174447
não,1466.0956223125008,-10762.9908040751,6891.758071393737,9573.408612419202,-187500.02235174447,-187500.02235174447,-187500.02235174447,-187500.02235174447
não,1288.7568818040945,-10795.713757957668,6468.550141876954,9615.943982117651,-187500.02235174447,-187500.02235174447,-187500.02235174447,-187500.02235174447
não,1215.4655117351429,-10836.885671244345,6211.080397496271,9624.19177582166,-187500.02235174447,-187500.02235174447,-187500.02235174447,-187500.02235174447
não,1424.5213776256296,-10809.460080797682,6669.872304185904,9568.5582838724,-187500.02235174447,-187500.02235174447,-187500.02235174447,-187500.02235174447
não,1491.1742795913553,-10772.289129768507,6932.907632935958,9565.36198441529,-187500.02235174447,-187500.02235174447,-187500.02235174447,-187500.02235174447
não,1327.000716567125,-10794.126784101341,6563.925035467749,9607.80794713592,-187500.02235174447,-187500.02235174447,-187500.02235174447,-187500.02235174447
não,1207.5306424535088,-10834.851662498912,6188.840411763241,9624.012961866018,-187500.02235174447,-187500.02235174447,-187500.02235174447,-187500.02235174447
não,1401.1414529253784,-10825.419226338772,6570.630558804341,9577.811906076897,-187500.02235174447,-187500.02235174447,-187500.02235174447,-187500.02235174447
não,1513.6154310244838,-10790.438746266216,6940.350763839575,9557.583577344845,-187500.02235174447,-187500.02235174447,-187500.02235174447,-187500.02235174447
não,1377.2474381026552,-10798.172449847752,6651.499170243642,9590.954731816619,-187500.02235174447,-187500.02235174447,-187500.02235174447,-187500.02235174447
não,1234.844474177894,-10839.120845689875,6221.13868250116,9627.276316556492,-187500.02235174447,-187500.02235174447,-187500.02235174447,-187500.02235174447
não,1355.320376791999,-10829.062560684986,6479.636607126786,9625.801101422441,-187500.02235174447,-187500.02235174447,-187500.02235174447,-187500.02235174447
não,1519.896271216425,-10779.285225783018,6950.498455822284,9606.846822124342,-187500.02235174447,-187500.02235174447,-187500.02235174447,-187500.02235174447
não,1426.644793348884,-10788.941179387712,6763.146133797901,9570.61464436229,-187500.02235174447,-187500.02235174447,-187500.02235174447,-187500.02235174447
não,1259.587855289919,-10841.601889324415,6282.494221030977,9601.750624388531,-187500.02235174447,-187500.02235174447,-187500.02235174447,-187500.02235174447
não,1343.74217316415,-10869.429811171272,6380.9760071010605,9572.425135663168,-187500.02235174447,-187500.02235174447,-187500.02235174447,-187500.02235174447
não,1520.2986026166204,-10809.594191264414,6874.413117696419,9633.512453259524,-187500.02235174447,-187500.02235174447,-187500.02235174447,-187500.02235174447
não,1447.3648604589534,-10795.244371324108,6814.801015234115,9614.245249539048,-187500.02235174447,-187500.02235174447,-187500.02235174447,-187500.02235174447
não,1325.54785317753,-10812.477566299149,6374.5834081868425,9607.740891902553,-187500.02235174447,-187500.02235174447,-187500.02235174447,-187500.02235174447
não,1357.4884960041638,-10830.448368841217,6331.399837899189,9617.754473418532,-187500.02235174447,-187500.02235174447,-187500.02235174447,-187500.02235174447
não,1562.6775101038827,-10795.870220168856,6849.557977862118,9568.200655961116,-187500.02235174447,-187500.02235174447,-187500.02235174447,-187500.02235174447
não,1508.832157711048,-10797.725414958646,6880.626902654994,9558.745868056521,-187500.02235174447,-187500.02235174447,-187500.02235174447,-187500.02235174447
não,1318.5964606519296,-10825.195708894218,6407.127548113769,9633.020714881506,-187500.02235174447,-187500.02235174447,-187500.02235174447,-187500.02235174447
não,1336.9919463386473,-10848.665040572292,6320.939221494105,9603.404653478225,-187500.02235174447,-187500.02235174447,-187500.02235174447,-187500.02235174447
não,1533.5084835897069,-10843.635898069848,6822.154739159911,9571.41930716268,-187500.02235174447,-187500.02235174447,-187500.02235174447,-187500.02235174447
não,1576.9602748108239,-10831.275383386062,6944.865816219547,9611.697150671143,-187500.02235174447,-187500.02235174447,-187500.02235174447,-187500.02235174447
não,1393.0277696881021,-10822.446444326217,6476.596769880864,9639.614479495822,-187500.02235174447,-187500.02235174447,-187500.02235174447,-187500.02235174447
não,1292.4672713836756,-10826.134482161342,6236.181406519581,9619.408502508224,-187500.02235174447,-187500.02235174447,-187500.02235174447,-187500.02235174447
não,1516.9681926927797,-10844.529967848059,6700.918877234326,9527.900460708197,-187500.02235174447,-187500.02235174447,-187500.02235174447,-187500.02235174447
não,1613.6394874619828,-10833.309392131496,6944.3070226081645,9554.297870909915,-187500.02235174447,-187500.02235174447,-187500.02235174447,-187500.02235174447
não,1425.2142817037443,-10837.846796255923,6569.1106401813795,9615.18402280617,-187500.02235174447,-187500.02235174447,-187500.02235174447,-187500.02235174447
não,1253.6199395203519,-10914.78150067109,6151.557702011789,9635.85938642733,-187500.02235174447,-187500.02235174447,-187500.02235174447,-187500.02235174447
não,1502.4842622857407,-10867.887540803855,6597.206782961701,9590.015958549495,-187500.02235174447,-187500.02235174447,-187500.02235174447,-187500.02235174447
não,1657.4265548499293,-10841.087799201941,6998.353540701097,9591.491173683546,-187500.02235174447,-187500.02235174447,-187500.02235174447,-187500.02235174447
não,1505.3005820871094,-10857.784552310057,6717.123891964423,9667.084773431394,-187500.02235174447,-187500.02235174447,-187500.02235174447,-187500.02235174447
não,1337.3272225054768,-10907.24896278965,6275.364014549735,9658.077020415905,-187500.02235174447,-187500.02235174447,-187500.02235174447,-187500.02235174447
não,1442.603938889973,-10914.021541359609,6488.510249675543,9567.977138516562,-187500.02235174447,-187500.02235174447,-187500.02235174447,-187500.02235174447
não,1612.343086283575,-10838.964383478688,6939.747266739281,9578.258940966003,-187500.02235174447,-187500.02235174447,-187500.02235174447,-187500.02235174447
não,1517.1917101373328,-10841.691296302235,6790.77288994466,9620.593144964356,-187500.02235174447,-187500.02235174447,-187500.02235174447,-187500.02235174447
não,1331.73928639165,-10895.715462650713,6319.352247637778,9674.036165956995,-187500.02235174447,-187500.02235174447,-187500.02235174447,-187500.02235174447
não,1435.5854911310066,-10923.342218797472,6432.876757726283,9695.315026678447,-187500.02235174447,-187500.02235174447,-187500.02235174447,-187500.02235174447
não,1665.182610175921,-10860.019726755587,6963.373060628541,9657.898206460262,-187500.02235174447,-187500.02235174447,-187500.02235174447,-187500.02235174447
não,1562.4316409148744,-10853.649479585825,6885.209010268332,9618.983819363573,-187500.02235174447,-187500.02235174447,-187500.02235174447,-187500.02235174447
não,1357.0861646039682,-10900.990474342165,6391.458975250599,9669.655224043754,-187500.02235174447,-187500.02235174447,-187500.02235174447,-187500.02235174447
não,1406.2152989167332,-10928.192547344273,6365.150972026703,9684.20620968416,-187500.02235174447,-187500.02235174447,-187500.02235174447,-187500.02235174447
não,1638.0475924071782,-10881.723270621691,6900.27408603121,9654.545444791967,-187500.02235174447,-187500.02235174447,-187500.02235174447,-187500.02235174447
não,1620.3226590541196,-10848.083895216454,6963.7977437731915,9665.855427486353,-187500.02235174447,-187500.02235174447,-187500.02235174447,-187500.02235174447
não,1414.932479254303,-10877.05175603053,6503.865898116338,9722.539451425011,-187500.02235174447,-187500.02235174447,-187500.02235174447,-187500.02235174447
não,1389.6526562753506,-10903.046834832054,6341.145198481703,9726.093378793405,-187500.02235174447,-187500.02235174447,-187500.02235174447,-187500.02235174447
não,1642.5402930426949,-10878.459915931215,6834.850530010525,9650.700944745653,-187500.02235174447,-187500.02235174447,-187500.02235174447,-187500.02235174447
não,1665.4508311093846,-10857.851607543422,7003.449738436907,9634.294764315458,-187500.02235174447,-187500.02235174447,-187500.02235174447,-187500.02235174447
não,1464.3968897338975,-10882.885561333367,6610.550774401519,9693.01279699955,-187500.02235174447,-187500.02235174447,-187500.02235174447,-187500.02235174447
não,1363.2105425847224,-10920.190622829274,6338.172416469147,9706.021512272539,-187500.02235174447,-187500.02235174447,-187500.02235174447,-187500.02235174447
não,1554.1167919775,-10885.835991601467,6748.058706290568,9682.328663149914,-187500.02235174447,-187500.02235174447,-187500.02235174447,-187500.02235174447
não,1660.8463717515913,-10836.840967755434,7071.5108003033165,9682.887456761297,-187500.02235174447,-187500.02235174447,-187500.02235174447,-187500.02235174447
não,1509.480358300252,-10861.472590145182,6707.646752315373,9719.276096734537,-187500.02235174447,-187500.02235174447,-187500.02235174447,-187500.02235174447
não,1383.5729817835072,-10911.831070402988,6309.58453531081,9731.033114318028,-187500.02235174447,-187500.02235174447,-187500.02235174447,-187500.02235174447
não,1538.537626092151,-10889.278160247584,6651.633280710374,9686.083756218404,-187500.02235174447,-187500.02235174447,-187500.02235174447,-187500.02235174447
não,1723.498311459817,-10838.673810800768,7062.950082176934,9682.127497449816,-187500.02235174447,-187500.02235174447,-187500.02235174447,-187500.02235174447
não,1586.1468417819551,-10869.027479771075,6818.354942602509,9726.540413682511,-187500.02235174447,-187500.02235174447,-187500.02235174447,-187500.02235174447
não,1379.907295692837,-10908.59006745697,6350.555282897388,9722.315933980457,-187500.02235174447,-187500.02235174447,-187500.02235174447,-187500.02235174447
não,1523.2043293958104,-10901.661026675823,6581.426451376254,9704.993332027594,-187500.02235174447,-187500.02235174447,-187500.02235174447,-187500.02235174447
não,1664.5567613311723,-10859.617395355392,7020.079436311655,9635.85938642733,-187500.02235174447,-187500.02235174447,-187500.02235174447,-187500.02235174447
não,1550.8534372870251,-10852.174264451774,6884.31494049012,9703.361654682358,-187500.02235174447,-187500.02235174447,-187500.02235174447,-187500.02235174447
não,1405.321229138521,-10884.785459612067,6422.9525831881265,9777.122411384871,-187500.02235174447,-187500.02235174447,-187500.02235174447,-187500.02235174447
não,1473.896381127403,-10895.983683584176,6479.904828060249,9717.06327403346,-187500.02235174447,-187500.02235174447,-187500.02235174447,-187500.02235174447
não,1663.238008408309,-10857.561034865503,7003.427386692451,9689.213000442149,-187500.02235174447,-187500.02235174447,-187500.02235174447,-187500.02235174447
não,1626.89407192398,-10850.184959195252,6970.726784554337,9706.535602395012,-187500.02235174447,-187500.02235174447,-187500.02235174447,-187500.02235174447
não,1439.6982121107833,-10884.226666000684,6487.124441519313,9751.619070961366,-187500.02235174447,-187500.02235174447,-187500.02235174447,-187500.02235174447
não,1436.0548777645681,-10905.840802888966,6419.845690708839,9721.377160713335,-187500.02235174447,-187500.02235174447,-187500.02235174447,-187500.02235174447
não,1620.345010798575,-10862.277252945572,6936.260394604254,9674.617311312832,-187500.02235174447,-187500.02235174447,-187500.02235174447,-187500.02235174447
não,1643.9261011989238,-10854.320031919484,7019.252421766809,9699.897134291785,-187500.02235174447,-187500.02235174447,-187500.02235174447,-187500.02235174447
não,1445.2414447356994,-10891.267465504106,6569.580026814941,9734.54233819751,-187500.02235174447,-187500.02235174447,-187500.02235174447,-187500.02235174447
não,1403.8460140044706,-10910.311151780028,6380.797193145418,9730.4966724511,-187500.02235174447,-187500.02235174447,-187500.02235174447,-187500.02235174447
não,1610.2420223047761,-10878.258750231118,6878.727004376293,9678.774735781519,-187500.02235174447,-187500.02235174447,-187500.02235174447,-187500.02235174447
não,1646.6753657669267,-10847.256880671606,7083.267817886808,9698.667788346744,-187500.02235174447,-187500.02235174447,-187500.02235174447,-187500.02235174447
não,1438.9829562882135,-10871.53087515007,6653.622585966896,9745.494692980612,-187500.02235174447,-187500.02235174447,-187500.02235174447,-187500.02235174447
não,1335.6955451602394,-10910.802890158046,6323.777893039929,9748.668640693264,-187500.02235174447,-187500.02235174447,-187500.02235174447,-187500.02235174447
não,1529.507521332207,-10884.67370088979,6768.868180378459,9699.047768002483,-187500.02235174447,-187500.02235174447,-187500.02235174447,-187500.02235174447
não,1603.0224088457119,-10842.942993991732,7067.241617112353,9696.611427856855,-187500.02235174447,-187500.02235174447,-187500.02235174447,-187500.02235174447
não,1416.4076943883533,-10869.429811171272,6714.866365774437,9706.714416350653,-187500.02235174447,-187500.02235174447,-187500.02235174447,-187500.02235174447
não,1242.0640876369582,-10908.858288390433,6303.81778524134,9715.677465877232,-187500.02235174447,-187500.02235174447,-187500.02235174447,-187500.02235174447
não,1376.5992375134513,-10901.30339876454,6630.890861855849,9685.681424818209,-187500.02235174447,-187500.02235174447,-187500.02235174447,-187500.02235174447
não,1545.444315128841,-10867.552264637026,7060.558445520216,9639.323906817903,-187500.02235174447,-187500.02235174447,-187500.02235174447,-187500.02235174447
não,1384.5341067950853,-10861.33847967845,6794.282113824143,9685.659073073753,-187500.02235174447,-187500.02235174447,-187500.02235174447,-187500.02235174447
não,1199.5287179385089,-10899.627017930392,6333.567957111354,9704.367483182847,-187500.02235174447,-187500.02235174447,-187500.02235174447,-187500.02235174447
não,1304.9171930452817,-10914.669741948814,6532.163206596757,9675.5337328355,-187500.02235174447,-187500.02235174447,-187500.02235174447,-187500.02235174447
não,1463.5028199556853,-10847.078066715965,6989.792822574714,9667.554160064956,-187500.02235174447,-187500.02235174447,-187500.02235174447,-187500.02235174447
não,1358.2931588045549,-10848.329764405462,6851.323765674087,9664.648433285765,-187500.02235174447,-187500.02235174447,-187500.02235174447,-187500.02235174447
não,1162.9836157540817,-10882.550285166537,6367.028518560948,9691.515230121044,-187500.02235174447,-187500.02235174447,-187500.02235174447,-187500.02235174447
não,1230.5976427313856,-10910.892297135866,6437.458865339621,9676.271340402525,-187500.02235174447,-187500.02235174447,-187500.02235174447,-187500.02235174447
não,1430.0869619950013,-10864.668889602292,6949.693793021893,9643.794255708965,-187500.02235174447,-187500.02235174447,-187500.02235174447,-187500.02235174447
não,1359.835429171971,-10827.117958917375,6895.021426084212,9610.244287281548,-187500.02235174447,-187500.02235174447,-187500.02235174447,-187500.02235174447
não,1144.0516882004367,-10873.006090284121,6406.524051013476,9637.044028883462,-187500.02235174447,-187500.02235174447,-187500.02235174447,-187500.02235174447
não,1170.7396710800733,-10897.972988840698,6339.021782758449,9698.846602302385,-187500.02235174447,-187500.02235174447,-187500.02235174447,-187500.02235174447
não,1383.5506300390518,-10840.685467801746,6858.409268666419,9674.930235735206,-187500.02235174447,-187500.02235174447,-187500.02235174447,-187500.02235174447
não,1371.2795223330884,-10814.645685511314,6956.891054736502,9677.72420379212,-187500.02235174447,-187500.02235174447,-187500.02235174447,-187500.02235174447
não,1167.6998338341516,-10846.943956249233,6494.612275911842,9728.417960216757,-187500.02235174447,-187500.02235174447,-187500.02235174447,-187500.02235174447
não,1104.0197138809817,-10897.950637096243,6261.796505665363,9711.83296583092,-187500.02235174447,-187500.02235174447,-187500.02235174447,-187500.02235174447
não,1315.6907338727397,-10844.440560870238,6743.923633566336,9662.435610584691,-187500.02235174447,-187500.02235174447,-187500.02235174447,-187500.02235174447
não,1373.6041037564403,-10786.70600494218,6962.18841817241,9650.05274415645,-187500.02235174447,-187500.02235174447,-187500.02235174447,-187500.02235174447
não,1183.7260346086068,-10815.09272040042,6561.82397148895,9684.385023639801,-187500.02235174447,-187500.02235174447,-187500.02235174447,-187500.02235174447
não,1074.3142454998786,-10865.294738447039,6234.9967640634495,9691.895209776785,-187500.02235174447,-187500.02235174447,-187500.02235174447,-187500.02235174447
não,1279.4809078551423,-10848.888558016844,6649.733382431672,9643.302517330947,-187500.02235174447,-187500.02235174447,-187500.02235174447,-187500.02235174447
não,1371.3912810553647,-10793.925618401245,6972.157296199477,9648.309308088936,-187500.02235174447,-187500.02235174447,-187500.02235174447,-187500.02235174447
não,1218.3041832809668,-10796.540772502514,6651.007431865625,9715.230430988126,-187500.02235174447,-187500.02235174447,-187500.02235174447,-187500.02235174447
não,1064.5912366618202,-10842.250089913618,6234.013287307416,9746.567576714466,-187500.02235174447,-187500.02235174447,-187500.02235174447,-187500.02235174447
não,1215.3537530128663,-10838.33853463394,6550.983375428125,9713.218773987148,-187500.02235174447,-187500.02235174447,-187500.02235174447,-187500.02235174447
não,1366.7644699531163,-10782.302711284485,6961.294348394197,9672.96328222314,-187500.02235174447,-187500.02235174447,-187500.02235174447,-187500.02235174447
não,1240.4547620361761,-10782.123897328842,6730.557290382063,9701.34999768138,-187500.02235174447,-187500.02235174447,-187500.02235174447,-187500.02235174447
não,1074.8953908557166,-10830.00133395211,6270.401927280656,9735.861091120374,-187500.02235174447,-187500.02235174447,-187500.02235174447,-187500.02235174447
não,1193.0914155353803,-10831.834176997445,6451.540464346464,9702.400529670778,-187500.02235174447,-187500.02235174447,-187500.02235174447,-187500.02235174447
não,1375.1463741238565,-10785.163734574764,6928.772560211726,9664.737840263586,-187500.02235174447,-187500.02235174447,-187500.02235174447,-187500.02235174447
não,1287.3040184144998,-10783.621464207348,6805.837965707537,9681.993386983084,-187500.02235174447,-187500.02235174447,-187500.02235174447,-187500.02235174447
não,1091.7933096639288,-10819.47366231366,6337.121884479748,9728.395608472301,-187500.02235174447,-187500.02235174447,-187500.02235174447,-187500.02235174447
não,1140.3412986208557,-10834.181110165253,6374.4045942312,9709.68719836321,-187500.02235174447,-187500.02235174447,-187500.02235174447,-187500.02235174447
não,1338.9588998507143,-10798.932409159233,6858.83395181107,9679.400584626268,-187500.02235174447,-187500.02235174447,-187500.02235174447,-187500.02235174447
não,1315.7801408505609,-10777.362975759861,6872.893199073458,9706.334436694913,-187500.02235174447,-187500.02235174447,-187500.02235174447,-187500.02235174447
não,1109.9205744171827,-10813.684560499736,6387.525068226465,9736.464588220668,-187500.02235174447,-187500.02235174447,-187500.02235174447,-187500.02235174447
não,1092.5979724643198,-10837.153892177808,6276.682767472597,9717.890288578306,-187500.02235174447,-187500.02235174447,-187500.02235174447,-187500.02235174447
não,1316.093065272935,-10791.176353833242,6803.625143006461,9668.381174609802,-187500.02235174447,-187500.02235174447,-187500.02235174447,-187500.02235174447
não,1322.7315333761615,-10762.722583141636,6917.551984495161,9680.24995091557,-187500.02235174447,-187500.02235174447,-187500.02235174447,-187500.02235174447
não,1134.6416037847525,-10788.941179387712,6481.536505405486,9736.889271365319,-187500.02235174447,-187500.02235174447,-187500.02235174447,-187500.02235174447
não,1077.8234693793618,-10829.174319407264,6249.838322381774,9738.073913821449,-187500.02235174447,-187500.02235174447,-187500.02235174447,-187500.02235174447
não,1285.8511550249048,-10803.46981328366,6726.355162424465,9696.20909645666,-187500.02235174447,-187500.02235174447,-187500.02235174447,-187500.02235174447
não,1342.3116615190104,-10769.98690008961,6951.973670956335,9692.409299899256,-187500.02235174447,-187500.02235174447,-187500.02235174447,-187500.02235174447
não,1172.2372379585788,-10798.66418822577,6553.576177784941,9716.057445532972,-187500.02235174447,-187500.02235174447,-187500.02235174447,-187500.02235174447
não,1062.2219517495575,-10828.660229284791,6213.874365553184,9742.387800501323,-187500.02235174447,-187500.02235174447,-187500.02235174447,-187500.02235174447
não,1254.0893261539134,-10806.308484829484,6624.498262941631,9692.92339002173,-187500.02235174447,-187500.02235174447,-187500.02235174447,-187500.02235174447
não,1362.517638506608,-10768.377574488828,6966.256435663276,9697.460794146156,-187500.02235174447,-187500.02235174447,-187500.02235174447,-187500.02235174447
não,1205.7648546415394,-10773.674937924736,6665.781934950583,9748.758047671086,-187500.02235174447,-187500.02235174447,-187500.02235174447,-187500.02235174447
não,1048.3638701872671,-10819.048979169009,6236.717848386508,9758.011669875583,-187500.02235174447,-187500.02235174447,-187500.02235174447,-187500.02235174447
não,1192.3091044794446,-10829.822519996467,6506.19047953969,9678.886494503797,-187500.02235174447,-187500.02235174447,-187500.02235174447,-187500.02235174447
não,1356.0356326145688,-10776.245388537096,6942.697697007382,9657.272357615515,-187500.02235174447,-187500.02235174447,-187500.02235174447,-187500.02235174447
não,1254.424602320743,-10762.409658719262,6750.606805158473,9712.458814675667,-187500.02235174447,-187500.02235174447,-187500.02235174447,-187500.02235174447
não,1073.0178443214709,-10808.230734852641,6273.307654059846,9748.445123248712,-187500.02235174447,-187500.02235174447,-187500.02235174447,-187500.02235174447
não,1177.9592845391376,-10829.219022896174,6429.613403035808,9719.11963452335,-187500.02235174447,-187500.02235174447,-187500.02235174447,-187500.02235174447
não,1364.1716675963007,-10781.855676395378,6918.51310950674,9695.449137145179,-187500.02235174447,-187500.02235174447,-187500.02235174447,-187500.02235174447
não,1290.3438556604215,-10764.600129675882,6817.751445502216,9728.68618115022,-187500.02235174447,-187500.02235174447,-187500.02235174447,-187500.02235174447
não,1086.205373550102,-10800.005292893087,6331.198672199092,9775.289568339536,-187500.02235174447,-187500.02235174447,-187500.02235174447,-187500.02235174447
não,1134.753362507029,-10819.048979169009,6353.773934098952,9750.523835483054,-187500.02235174447,-187500.02235174447,-187500.02235174447,-187500.02235174447
não,1339.74121090665,-10786.750708431091,6864.623053624994,9687.827192285918,-187500.02235174447,-187500.02235174447,-187500.02235174447,-187500.02235174447
não,1300.2680301985777,-10769.092830311398,6868.445201926852,9678.595921825878,-187500.02235174447,-187500.02235174447,-187500.02235174447,-187500.02235174447
não,1102.0974638578252,-10795.445537024205,6392.375396773266,9721.511271180067,-187500.02235174447,-187500.02235174447,-187500.02235174447,-187500.02235174447
não,1089.558135218398,-10817.685522757236,6270.536037747388,9730.228451517636,-187500.02235174447,-187500.02235174447,-187500.02235174447,-187500.02235174447
não,1312.8967658158263,-10782.28035954003,6790.370558544464,9696.879648790318,-187500.02235174447,-187500.02235174447,-187500.02235174447,-187500.02235174447
não,1335.226158526678,-10761.761458130057,6921.530595008207,9707.228506473126,-187500.02235174447,-187500.02235174447,-187500.02235174447,-187500.02235174447
não,1150.46663885911,-10786.884818897823,6482.497630417065,9740.420846989256,-187500.02235174447,-187500.02235174447,-187500.02235174447,-187500.02235174447
não,1082.5396874594317,-10817.171432634763,6234.773246618896,9754.368335529369,-187500.02235174447,-187500.02235174447,-187500.02235174447,-187500.02235174447
não,1289.807413793494,-10790.61756022186,6702.103519690457,9702.758157582064,-187500.02235174447,-187500.02235174447,-187500.02235174447,-187500.02235174447
não,1352.5711122239964,-10771.104487312376,6941.915385951446,9691.224657443126,-187500.02235174447,-187500.02235174447,-187500.02235174447,-187500.02235174447
não,1185.849450331861,-10778.882894382823,6575.637349562329,9750.590890716421,-187500.02235174447,-187500.02235174447,-187500.02235174447,-187500.02235174447
não,1075.2306670225462,-10797.077214369443,6221.473958667989,9766.371222301868,-187500.02235174447,-187500.02235174447,-187500.02235174447,-187500.02235174447
não,1264.0582041809803,-10796.384310291329,6609.366131945388,9697.505497635068,-187500.02235174447,-187500.02235174447,-187500.02235174447,-187500.02235174447
não,1378.0521009030463,-10760.107429040365,6965.719993796349,9675.690195046687,-187500.02235174447,-187500.02235174447,-187500.02235174447,-187500.02235174447
não,1230.9776223871258,-10769.606920433871,6673.895618187859,9739.616184188866,-187500.02235174447,-187500.02235174447,-187500.02235174447,-187500.02235174447
$SILENCE,1080.8409548808283,-10821.597078036915,6241.478769955489,9776.049527651016,-187500.02235174447,-187500.02235174447,-187500.02235174447,-187500.02235174447
$SILENCE,1221.1428548267907,-10801.547563260505,6510.347904008378,9727.412131716268,-187500.02235174447,-187500.02235174447,-187500.02235174447,-187500.02235174447
$SILENCE,1373.6264555008956,-10747.545748656483,6946.408086586963,9695.650302845277,-187500.02235174447,-187500.02235174447,-187500.02235174447,-187500.02235174447
$SILENCE,1253.8881604538155,-10768.064650066453,6732.256022960666,9697.706663335164,-187500.02235174447,-187500.02235174447,-187500.02235174447,-187500.02235174447
$SILENCE,1094.5202224874763,-10821.462967570182,6264.389308022179,9721.578326413433,-187500.02235174447,-187500.02235174447,-187500.02235174447,-187500.02235174447
$SILENCE,1210.4140174882434,-10807.828403452446,6431.848577481339,9717.733826367119,-187500.02235174447,-187500.02235174447,-187500.02235174447,-187500.02235174447
$SILENCE,1395.5088133226411,-10755.838245849402,6930.426589301418,9688.408337641757,-187500.02235174447,-187500.02235174447,-187500.02235174447,-187500.02235174447
$SILENCE,1319.490530430142,-10756.687612138703,6835.409323621908,9711.520041408545,-187500.02235174447,-187500.02235174447,-187500.02235174447,-187500.02235174447
$SILENCE,1124.6950775021407,-10798.261856825573,6341.256957203979,9757.966966386672,-187500.02235174447,-187500.02235174447,-187500.02235174447,-187500.02235174447
$SILENCE,1169.1079937348359,-10827.028551939555,6336.451332146088,9743.930070868739,-187500.02235174447,-187500.02235174447,-187500.02235174447,-187500.02235174447
$SILENCE,1384.7129207507278,-10772.780868146523,6857.604605866028,9685.748480051576,-187500.02235174447,-187500.02235174447,-187500.02235174447,-187500.02235174447
$SILENCE,1362.2717693175996,-10751.323193469429,6888.561771936628,9699.830079058418,-187500.02235174447,-187500.02235174447,-187500.02235174447,-187500.02235174447
$SILENCE,1167.0292815004923,-10789.969359632654,6418.772806974985,9759.285719309535,-187500.02235174447,-187500.02235174447,-187500.02235174447,-187500.02235174447
$SILENCE,1150.46663885911,-10818.601944279902,6282.985959408994,9757.005841375094,-187500.02235174447,-187500.02235174447,-187500.02235174447,-187500.02235174447
$SILENCE,1355.4991907476415,-10781.095717083897,6788.336549799032,9697.39373891279,-187500.02235174447,-187500.02235174447,-187500.02235174447,-187500.02235174447
$SILENCE,1365.356310052432,-10751.233786491608,6924.168100853933,9682.082793960904,-187500.02235174447,-187500.02235174447,-187500.02235174447,-187500.02235174447
$SILENCE,1174.561819381931,-10778.36880426035,6492.131232277302,9724.886384592817,-187500.02235174447,-187500.02235174447,-187500.02235174447,-187500.02235174447
$SILENCE,1118.3471820768336,-10805.99556040711,6235.868482097207,9759.799809432008,-187500.02235174447,-187500.02235174447,-187500.02235174447,-187500.02235174447
$SILENCE,1334.64501317084,-10781.676862439735,6709.9266302498145,9710.06717801895,-187500.02235174447,-187500.02235174447,-187500.02235174447,-187500.02235174447
$SILENCE,1417.2347089331997,-10746.696382367181,6976.851162535091,9691.805802798963,-187500.02235174447,-187500.02235174447,-187500.02235174447,-187500.02235174447
$SILENCE,1253.0164424200586,-10774.077269324931,6604.985190032147,9725.087550292916,-187500.02235174447,-187500.02235174447,-187500.02235174447,-187500.02235174447
$SILENCE,1119.8447489553391,-10828.57082230697,6216.333057443268,9737.872748121352,-187500.02235174447,-187500.02235174447,-187500.02235174447,-187500.02235174447
$SILENCE,1328.3418212344434,-10800.698196971201,6605.92396329927,9715.141024010305,-187500.02235174447,-187500.02235174447,-187500.02235174447,-187500.02235174447
$SILENCE,1466.0956223125008,-10743.12010325433,6993.994950532312,9709.463680918656,-187500.02235174447,-187500.02235174447,-187500.02235174447,-187500.02235174447
$SILENCE,1320.6081176529071,-10762.856693608368,6713.2123366847445,9736.5986986874,-187500.02235174447,-187500.02235174447,-187500.02235174447,-187500.02235174447
$SILENCE,1158.2897494184672,-10820.211269880685,6261.416526009622,9747.774570915053,-187500.02235174447,-187500.02235174447,-187500.02235174447,-187500.02235174447
$SILENCE,1287.616942836874,-10804.09566212841,6512.471319731631,9702.624047115332,-187500.02235174447,-187500.02235174447,-187500.02235174447,-187500.02235174447
$SILENCE,1458.674843153339,-10755.927652827222,6969.698604309393,9678.506514848055,-187500.02235174447,-187500.02235174447,-187500.02235174447,-187500.02235174447
$SILENCE,1361.6235687283956,-10756.352335971873,6795.243238835721,9707.608486128865,-187500.02235174447,-187500.02235174447,-187500.02235174447,-187500.02235174447
$SILENCE,1182.1614124967352,-10803.46981328366,6317.452349359078,9757.162303586281,-187500.02235174447,-187500.02235174447,-187500.02235174447,-187500.02235174447
$SILENCE,1275.9269804867483,-10814.086891899931,6435.134283916269,9728.552070683489,-187500.02235174447,-187500.02235174447,-187500.02235174447,-187500.02235174447
$SILENCE,1478.7243579297494,-10768.489333211104,6952.152484911977,9682.216904427636,-187500.02235174447,-187500.02235174447,-187500.02235174447,-187500.02235174447
$SILENCE,1409.6351158183952,-10758.811027861957,6883.175001522899,9706.87087856184,-187500.02235174447,-187500.02235174447,-187500.02235174447,-187500.02235174447
$SILENCE,1212.6715436782295,-10794.640874223815,6365.150972026703,9749.965041871672,-187500.02235174447,-187500.02235174447,-187500.02235174447,-187500.02235174447
$SILENCE,1242.3993638037878,-10818.914868702277,6348.744791596508,9721.041884546505,-187500.02235174447,-187500.02235174447,-187500.02235174447,-187500.02235174447
$SILENCE,1452.4834099392187,-10780.983958361621,6875.128373518989,9671.130439177805,-187500.02235174447,-187500.02235174447,-187500.02235174447,-187500.02235174447
$SILENCE,1438.2677004656437,-10749.088019023899,6932.818225958136,9699.986541269605,-187500.02235174447,-187500.02235174447,-187500.02235174447,-187500.02235174447
$SILENCE,1247.584968517419,-10789.119993343353,6459.877665028294,9738.83387313293,-187500.02235174447,-187500.02235174447,-187500.02235174447,-187500.02235174447
$SILENCE,1207.3518284978663,-10837.891499744834,6278.068575628827,9718.694951378699,-187500.02235174447,-187500.02235174447,-187500.02235174447,-187500.02235174447
$SILENCE,1417.2794124221102,-10800.09469987091,6785.274360808655,9673.499724090067,-187500.02235174447,-187500.02235174447,-187500.02235174447,-187500.02235174447
$SILENCE,1487.6874074563275,-10749.110370768354,6987.177668473443,9684.496782362077,-187500.02235174447,-187500.02235174447,-187500.02235174447,-187500.02235174447
$SILENCE,1306.5265186460638,-10775.373670503339,6565.1767331572455,9724.081721792427,-187500.02235174447,-187500.02235174447,-187500.02235174447,-187500.02235174447
$SILENCE,1210.4363692326988,-10824.927487960755,6265.685709200587,9726.696875893698,-187500.02235174447,-187500.02235174447,-187500.02235174447,-187500.02235174447
$SILENCE,1409.9927437296801,-10802.955723161189,6719.224955943222,9675.44432585768,-187500.02235174447,-187500.02235174447,-187500.02235174447,-187500.02235174447
$SILENCE,1486.0333783666347,-10758.051068550476,7006.042540793722,9667.487104831589,-187500.02235174447,-187500.02235174447,-187500.02235174447,-187500.02235174447
$SILENCE,1317.5012251736196,-10775.597187947893,6651.253301054633,9711.095358263894,-187500.02235174447,-187500.02235174447,-187500.02235174447,-187500.02235174447
$SILENCE,1186.3858921987883,-10818.28901985753,6260.187180064581,9738.409189988279,-187500.02235174447,-187500.02235174447,-187500.02235174447,-187500.02235174447
$SILENCE,1358.1590483378232,-10801.636970238325,6614.507033170108,9687.715433563642,-187500.02235174447,-187500.02235174447,-187500.02235174447,-187500.02235174447
$SILENCE,1488.2462010677102,-10765.404792476273,6997.705340111893,9651.90793894624,-187500.02235174447,-187500.02235174447,-187500.02235174447,-187500.02235174447
$SILENCE,1368.0832228759793,-10778.413507749261,6745.5553109115735,9700.29946569198,-187500.02235174447,-187500.02235174447,-187500.02235174447,-187500.02235174447
$SILENCE,1210.9281076107154,-10823.8546042269,6299.012160183449,9728.932050339228,-187500.02235174447,-187500.02235174447,-187500.02235174447,-187500.02235174447
$SILENCE,1347.318452276999,-10819.406607080295,6525.278869304522,9674.527904335011,-187500.02235174447,-187500.02235174447,-187500.02235174447,-187500.02235174447
$SILENCE,1507.9827914217462,-10771.976205346133,6981.768546315258,9642.095523130361,-187500.02235174447,-187500.02235174447,-187500.02235174447,-187500.02235174447
$SILENCE,1417.6593920778505,-10775.217208292152,6827.697971784827,9672.940930478684,-187500.02235174447,-187500.02235174447,-187500.02235174447,-187500.02235174447
$SILENCE,1236.9902416456034,-10819.317200102472,6336.473683890544,9701.752329081575,-187500.02235174447,-187500.02235174447,-187500.02235174447,-187500.02235174447
$SILENCE,1317.5235769180747,-10834.09170318743,6425.143054144747,9663.307328618446,-187500.02235174447,-187500.02235174447,-187500.02235174447,-187500.02235174447
$SILENCE,1524.344268363031,-10789.879952654834,6939.411990572452,9628.036275867973,-187500.02235174447,-187500.02235174447,-187500.02235174447,-187500.02235174447
$SILENCE,1468.6884246693164,-10778.07823158243,6891.1769260379,9657.495875060067,-187500.02235174447,-187500.02235174447,-187500.02235174447,-187500.02235174447
$SILENCE,1268.7520705165948,-10814.176298877752,6409.608591748309,9703.853393060373,-187500.02235174447,-187500.02235174447,-187500.02235174447,-187500.02235174447
$SILENCE,1274.8540967528936,-10831.364790363883,6368.816658117373,9683.133325950304,-187500.02235174447,-187500.02235174447,-187500.02235174447,-187500.02235174447
$SILENCE,1492.1130528584783,-10789.61173172137,6899.670588930916,9628.528014245989,-187500.02235174447,-187500.02235174447,-187500.02235174447,-187500.02235174447
$SILENCE,1488.1344423454336,-10773.004385591077,6976.225313690343,9644.688325487175,-187500.02235174447,-187500.02235174447,-187500.02235174447,-187500.02235174447
$SILENCE,1279.8608875108823,-10800.318217315462,6485.42570894071,9701.528811637023,-187500.02235174447,-187500.02235174447,-187500.02235174447,-187500.02235174447
$SILENCE,1244.5227795270418,-10825.776854250056,6319.061674959859,9691.49287837659,-187500.02235174447,-187500.02235174447,-187500.02235174447,-187500.02235174447
$SILENCE,1448.4600959372635,-10796.741938202613,6787.733052698738,9631.23257532508,-187500.02235174447,-187500.02235174447,-187500.02235174447,-187500.02235174447
$SILENCE,1496.471643027263,-10767.41644947725,7008.7023983839035,9625.801101422441,-187500.02235174447,-187500.02235174447,-187500.02235174447,-187500.02235174447
$SILENCE,1295.4847568851421,-10792.316292800462,6565.891988979815,9672.471543845122,-187500.02235174447,-187500.02235174447,-187500.02235174447,-187500.02235174447
$SILENCE,1216.0913605798914,-10828.302601373507,6283.611808253742,9670.169314166227,-187500.02235174447,-187500.02235174447,-187500.02235174447,-187500.02235174447
$SILENCE,1411.2444414191773,-10809.169508119763,6701.432967356797,9628.595069479356,-187500.02235174447,-187500.02235174447,-187500.02235174447,-187500.02235174447
$SILENCE,1505.121768131467,-10777.251217037585,6999.582886646139,9620.682551942176,-187500.02235174447,-187500.02235174447,-187500.02235174447,-187500.02235174447
$SILENCE,1344.6362429423623,-10790.528153244037,6656.483609257175,9665.318985619424,-187500.02235174447,-187500.02235174447,-187500.02235174447,-187500.02235174447
$SILENCE,1212.135101811302,-10833.018819453577,6274.984034893994,9692.029320243517,-187500.02235174447,-187500.02235174447,-187500.02235174447,-187500.02235174447
$SILENCE,1367.7926501980603,-10817.216136123674,6615.289344226044,9631.23257532508,-187500.02235174447,-187500.02235174447,-187500.02235174447,-187500.02235174447
$SILENCE,1507.53575653264,-10774.7925251475,7000.00756979079,9606.198621535137,-187500.02235174447,-187500.02235174447,-187500.02235174447,-187500.02235174447
$SILENCE,1390.3902638423758,-10785.811935163967,6754.00427031568,9647.459941799634,-187500.02235174447,-187500.02235174447,-187500.02235174447,-187500.02235174447
$SILENCE,1221.9922211160924,-10823.80990073799,6307.908154476661,9675.690195046687,-187500.02235174447,-187500.02235174447,-187500.02235174447,-187500.02235174447
$SILENCE,1341.0599638295132,-10825.262764127585,6529.212776328657,9633.691267215165,-187500.02235174447,-187500.02235174447,-187500.02235174447,-187500.02235174447
$SILENCE,1514.1295211469558,-10783.532057229526,6992.363273187074,9604.52224070099,-187500.02235174447,-187500.02235174447,-187500.02235174447,-187500.02235174447
$SILENCE,1416.0053629881577,-10778.569969960448,6835.655192810917,9637.960450406128,-187500.02235174447,-187500.02235174447,-187500.02235174447,-187500.02235174447
$SILENCE,1231.2234915761342,-10820.367732091872,6348.029535773938,9677.478334603113,-187500.02235174447,-187500.02235174447,-187500.02235174447,-187500.02235174447
$SILENCE,1296.356474918899,-10831.923583975266,6425.903013456227,9648.644584255766,-187500.02235174447,-187500.02235174447,-187500.02235174447,-187500.02235174447
$SILENCE,1493.7223784592604,-10783.42029850725,6942.965917940845,9610.646618681743,-187500.02235174447,-187500.02235174447,-187500.02235174447,-187500.02235174447
$SILENCE,1445.4873139247077,-10771.171542545742,6912.947525137369,9638.921575417708,-187500.02235174447,-187500.02235174447,-187500.02235174447,-187500.02235174447
$SILENCE,1243.8969306822933,-10809.840060453424,6428.182891390668,9684.20620968416,-187500.02235174447,-187500.02235174447,-187500.02235174447,-187500.02235174447
$SILENCE,1247.6073202618743,-10832.750598520113,6356.9702335560605,9659.10520066085,-187500.02235174447,-187500.02235174447,-187500.02235174447,-187500.02235174447
$SILENCE,1461.8264391215373,-10793.165659089764,6878.749356120748,9597.906124342218,-187500.02235174447,-187500.02235174447,-187500.02235174447,-187500.02235174447
$SILENCE,1463.8604478669702,-10768.332870999917,6955.952281469379,9606.422138979691,-187500.02235174447,-187500.02235174447,-187500.02235174447,-187500.02235174447
$SILENCE,1272.909494985282,-10796.071385868954,6495.506345690053,9658.702869260655,-187500.02235174447,-187500.02235174447,-187500.02235174447,-187500.02235174447
$SILENCE,1223.489787994598,-10831.722418275169,6295.77115723743,9659.395773338769,-187500.02235174447,-187500.02235174447,-187500.02235174447,-187500.02235174447
$SILENCE,1439.966433044247,-10799.8488306819,6792.873953923458,9609.976066348085,-187500.02235174447,-187500.02235174447,-187500.02235174447,-187500.02235174447
$SILENCE,1486.3686545334645,-10767.975243088633,6993.749081343303,9610.08782507036,-187500.02235174447,-187500.02235174447,-187500.02235174447,-187500.02235174447
$SILENCE,1310.9521640482146,-10791.556333488981,6603.264105709089,9656.445343070667,-187500.02235174447,-187500.02235174447,-187500.02235174447,-187500.02235174447
$SILENCE,1217.3654100138438,-10828.257897884596,6311.082102189315,9665.430744341702,-187500.02235174447,-187500.02235174447,-187500.02235174447,-187500.02235174447
$SILENCE,1395.0170749446245,-10809.571839519958,6686.569057294018,9619.47555774159,-187500.02235174447,-187500.02235174447,-187500.02235174447,-187500.02235174447
$SILENCE,1501.701951229805,-10770.210417534163,7019.2077182778985,9607.42796748018,-187500.02235174447,-187500.02235174447,-187500.02235174447,-187500.02235174447
$SILENCE,1328.900614845826,-10785.320196785951,6664.016147138614,9649.270433100513,-187500.02235174447,-187500.02235174447,-187500.02235174447,-187500.02235174447
$SILENCE,1201.6968371506737,-10819.89834545831,6282.315407075335,9667.688270531688,-187500.02235174447,-187500.02235174447,-187500.02235174447,-187500.02235174447
$SILENCE,1354.1357343358677,-10807.493127285616,6599.978399274159,9627.745703190054,-187500.02235174447,-187500.02235174447,-187500.02235174447,-187500.02235174447
$SILENCE,1501.4560820407967,-10766.567083187949,7004.209697748387,9608.657313425221,-187500.02235174447,-187500.02235174447,-187500.02235174447,-187500.02235174447
$SILENCE,1371.1901153552672,-10771.305653012474,6746.449380689786,9643.39192430877,-187500.02235174447,-187500.02235174447,-187500.02235174447,-187500.02235174447
$SILENCE,1199.461662705143,-10812.924601188255,6276.883933172695,9675.220808413125,-187500.02235174447,-187500.02235174447,-187500.02235174447,-187500.02235174447
$SILENCE,1315.578975150463,-10818.28901985753,6481.804726338951,9636.529938760988,-187500.02235174447,-187500.02235174447,-187500.02235174447,-187500.02235174447
$SILENCE,1492.1577563473888,-10774.569007702949,6965.451772862884,9601.191830777148,-187500.02235174447,-187500.02235174447,-187500.02235174447,-187500.02235174447
$SILENCE,1401.253211647655,-10768.310519255463,6828.748503774226,9629.109159601827,-187500.02235174447,-187500.02235174447,-187500.02235174447,-187500.02235174447
$SILENCE,1211.0845698219025,-10802.463984783171,6340.228776959036,9675.19845666867,-187500.02235174447,-187500.02235174447,-187500.02235174447,-187500.02235174447
$SILENCE,1266.8074687489832,-10818.937220446733,6399.751472443518,9646.521168532512,-187500.02235174447,-187500.02235174447,-187500.02235174447,-187500.02235174447
$SILENCE,1466.2744362681433,-10776.200685048187,6921.4188362859295,9604.23166802307,-187500.02235174447,-187500.02235174447,-187500.02235174447,-187500.02235174447
$SILENCE,1423.6049561029622,-10760.755629629568,6906.711388434338,9630.271450313503,-187500.02235174447,-187500.02235174447,-187500.02235174447,-187500.02235174447
$SILENCE,1234.1292183553242,-10798.060691125476,6422.1255686432805,9683.423898628223,-187500.02235174447,-187500.02235174447,-187500.02235174447,-187500.02235174447
$SILENCE,1232.5645962434526,-10823.407569337794,6327.577689597331,9659.395773338769,-187500.02235174447,-187500.02235174447,-187500.02235174447,-187500.02235174447
$SILENCE,1448.6836133818167,-10778.972301360644,6846.316974916098,9601.460051710612,-187500.02235174447,-187500.02235174447,-187500.02235174447,-187500.02235174447
$SILENCE,1452.1034302834787,-10755.346507471384,6950.364345355552,9619.47555774159,-187500.02235174447,-187500.02235174447,-187500.02235174447,-187500.02235174447
$SILENCE,1257.1515151442904,-10790.282284055029,6498.635589913797,9663.933177463196,-187500.02235174447,-187500.02235174447,-187500.02235174447,-187500.02235174447
$SILENCE,1202.233279017601,-10820.032455925042,6280.817840196829,9665.05076468596,-187500.02235174447,-187500.02235174447,-187500.02235174447,-187500.02235174447
$SILENCE,1409.7468745406718,-10786.795411920002,6772.5562182135845,9617.083921084872,-187500.02235174447,-187500.02235174447,-187500.02235174447,-187500.02235174447
$SILENCE,1457.3113867415652,-10752.08315278091,6978.751060813793,9615.988685606562,-187500.02235174447,-187500.02235174447,-187500.02235174447,-187500.02235174447
$SILENCE,1286.9240387587595,-10774.680766425225,6582.812259532483,9665.76602050853,-187500.02235174447,-187500.02235174447,-187500.02235174447,-187500.02235174447
$SILENCE,1182.720206108118,-10814.153947133296,6248.318403758813,9676.897189247275,-187500.02235174447,-187500.02235174447,-187500.02235174447,-187500.02235174447
$SILENCE,1381.5613247825295,-10796.697234713702,6666.497190773152,9630.316153802414,-187500.02235174447,-187500.02235174447,-187500.02235174447,-187500.02235174447
$SILENCE,1479.6407794524168,-10755.122990026832,6996.3195319556635,9620.347275775346,-187500.02235174447,-187500.02235174447,-187500.02235174447,-187500.02235174447
$SILENCE,1330.7781613800719,-10770.858618123368,6682.858667714438,9652.91376744673,-187500.02235174447,-187500.02235174447,-187500.02235174447,-187500.02235174447
$SILENCE,1191.8844213347938,-10811.583496520936,6292.127822891214,9674.572607823922,-187500.02235174447,-187500.02235174447,-187500.02235174447,-187500.02235174447
$SILENCE,1328.4982834456305,-10803.313351072473,6569.647082048307,9632.976011392595,-187500.02235174447,-187500.02235174447,-187500.02235174447,-187500.02235174447
$SILENCE,1477.9867503627243,-10757.179350516719,6999.091148268122,9606.913877357707,-187500.02235174447,-187500.02235174447,-187500.02235174447,-187500.02235174447
$SILENCE,1348.1454668218455,-10760.040373806998,6765.67188092135,9644.509511531534,-187500.02235174447,-187500.02235174447,-187500.02235174447,-187500.02235174447
$SILENCE,1178.0263397725034,-10804.967380162167,6299.146270650181,9675.466677602135,-187500.02235174447,-187500.02235174447,-187500.02235174447,-187500.02235174447
$SILENCE,1279.7938322775165,-10805.727339473646,6470.740612833573,9645.738857476576,-187500.02235174447,-187500.02235174447,-187500.02235174447,-187500.02235174447
$SILENCE,1452.57281691704,-10762.834341863912,6932.460598046851,9617.530955973978,-187500.02235174447,-187500.02235174447,-187500.02235174447,-187500.02235174447
$SILENCE,1373.2911793340659,-10757.916958083744,6822.668829282383,9642.095523130361,-187500.02235174447,-187500.02235174447,-187500.02235174447,-187500.02235174447
$SILENCE,1183.1001857638582,-10798.261856825573,6335.266689689957,9672.62800605631,-187500.02235174447,-187500.02235174447,-187500.02235174447,-187500.02235174447
$SILENCE,1235.9620614006594,-10814.019836666565,6372.97408258606,9648.979860422596,-187500.02235174447,-187500.02235174447,-187500.02235174447,-187500.02235174447
$SILENCE,1444.1685610018446,-10768.712850655658,6902.218687798821,9612.345351260346,-187500.02235174447,-187500.02235174447,-187500.02235174447,-187500.02235174447
$SILENCE,1407.9140314953365,-10754.899472582278,6903.537440721684,9631.277278813992,-187500.02235174447,-187500.02235174447,-187500.02235174447,-187500.02235174447
$SILENCE,1207.7318081536066,-10788.784717176524,6420.605650020319,9672.695061289676,-187500.02235174447,-187500.02235174447,-187500.02235174447,-187500.02235174447
$SILENCE,1202.3897412287881,-10814.869202955866,6307.6622852876535,9663.083811173894,-187500.02235174447,-187500.02235174447,-187500.02235174447,-187500.02235174447
$SILENCE,1422.9567555137583,-10777.251217037585,6827.854433996014,9613.641752438754,-187500.02235174447,-187500.02235174447,-187500.02235174447,-187500.02235174447
$SILENCE,1427.6506218493728,-10750.719696369135,6946.497493564784,9623.320057787903,-187500.02235174447,-187500.02235174447,-187500.02235174447,-187500.02235174447
$SILENCE,1233.9504043996817,-10778.435859493717,6503.597677182875,9669.498761832567,-187500.02235174447,-187500.02235174447,-187500.02235174447,-187500.02235174447
$SILENCE,1174.2041914706458,-10811.47173779866,6266.020985367416,9675.15375317976,-187500.02235174447,-187500.02235174447,-187500.02235174447,-187500.02235174447
$SILENCE,1385.0481969175573,-10782.347414773396,6745.868235333948,9625.644639211254,-187500.02235174447,-187500.02235174447,-187500.02235174447,-187500.02235174447
$SILENCE,1444.056802279568,-10750.31736496894,6978.125211969043,9625.734046189076,-187500.02235174447,-187500.02235174447,-187500.02235174447,-187500.02235174447
$SILENCE,1270.1155269283686,-10767.237635521607,6598.056149251002,9676.114878191338,-187500.02235174447,-187500.02235174447,-187500.02235174447,-187500.02235174447
$SILENCE,1152.6794615601852,-10804.408586550784,6248.720735159009,9689.235352186603,-187500.02235174447,-187500.02235174447,-187500.02235174447,-187500.02235174447
$SILENCE,1337.3719259943875,-10789.812897421467,6647.632318452874,9628.48331075708,-187500.02235174447,-187500.02235174447,-187500.02235174447,-187500.02235174447
$SILENCE,1447.0072325476685,-10750.429123691216,6987.691758595915,9611.160708804216,-187500.02235174447,-187500.02235174447,-187500.02235174447,-187500.02235174447
$SILENCE,1302.0561697550024,-10763.571949430938,6685.362063093432,9655.595976781366,-187500.02235174447,-187500.02235174447,-187500.02235174447,-187500.02235174447
$SILENCE,1147.717374291107,-10804.319179572962,6260.254235297947,9684.25091317307,-187500.02235174447,-187500.02235174447,-187500.02235174447,-187500.02235174447
$SILENCE,1300.8938790433263,-10798.060691125476,6547.2729858485445,9638.631002739789,-187500.02235174447,-187500.02235174447,-187500.02235174447,-187500.02235174447
$SILENCE,1451.410526205364,-10750.898510324778,6978.751060813793,9615.631057695276,-187500.02235174447,-187500.02235174447,-187500.02235174447,-187500.02235174447
$SILENCE,1336.0755248159796,-10752.239614992097,6775.90897988188,9652.399677324258,-187500.02235174447,-187500.02235174447,-187500.02235174447,-187500.02235174447
$SILENCE,1170.8290780578945,-10794.819688179456,6323.0402854729045,9686.642549829789,-187500.02235174447,-187500.02235174447,-187500.02235174447,-187500.02235174447
$SILENCE,1258.716137256162,-10803.514516772571,6457.284862671479,9654.657203514244,-187500.02235174447,-187500.02235174447,-187500.02235174447,-187500.02235174447
$SILENCE,1442.223959234233,-10761.090905796398,6940.909557450957,9618.045046096451,-187500.02235174447,-187500.02235174447,-187500.02235174447,-187500.02235174447
$SILENCE,1372.642978744862,-10747.523396912027,6854.989451764757,9646.76703772152,-187500.02235174447,-187500.02235174447,-187500.02235174447,-187500.02235174447
$SILENCE,1172.1478309807576,-10783.889685140812,6354.533893410432,9684.787355039996,-187500.02235174447,-187500.02235174447,-187500.02235174447,-187500.02235174447
$SILENCE,1209.9222791102266,-10801.055824882487,6366.0673935493705,9663.508494318545,-187500.02235174447,-187500.02235174447,-187500.02235174447,-187500.02235174447
$SILENCE,1421.481540379708,-10763.08021105292,6877.318844475609,9620.459034497624,-187500.02235174447,-187500.02235174447,-187500.02235174447,-187500.02235174447
$SILENCE,1402.3707988704205,-10745.310574210951,6906.152594822955,9636.932270161185,-187500.02235174447,-187500.02235174447,-187500.02235174447,-187500.02235174447
$SILENCE,1205.4072267302545,-10779.620501949848,6433.301440870934,9682.976863739117,-187500.02235174447,-187500.02235174447,-187500.02235174447,-187500.02235174447
$SILENCE,1180.261514218034,-10806.777871463046,6302.543735807388,9673.030337456506,-187500.02235174447,-187500.02235174447,-187500.02235174447,-187500.02235174447
$SILENCE,1394.5029848221523,-10770.724507656636,6814.6445530229275,9623.364761276813,-187500.02235174447,-187500.02235174447,-187500.02235174447,-187500.02235174447
$SILENCE,1417.4358746332973,-10743.45537942116,6950.923138966935,9630.562022991422,-187500.02235174447,-187500.02235174447,-187500.02235174447,-187500.02235174447
$SILENCE,1230.9776223871258,-10770.344528000895,6521.09909309138,9676.33839563589,-187500.02235174447,-187500.02235174447,-187500.02235174447,-187500.02235174447
$SILENCE,1159.1838191966797,-10807.269609841063,6260.343642275768,9677.165410180738,-187500.02235174447,-187500.02235174447,-187500.02235174447,-187500.02235174447
$SILENCE,1367.1668013533117,-10780.112240327864,6726.444569402286,9625.465825255613,-187500.02235174447,-187500.02235174447,-187500.02235174447,-187500.02235174447
$SILENCE,1437.2618719651548,-10741.734295098102,6980.472145136851,9625.845804911352,-187500.02235174447,-187500.02235174447,-187500.02235174447,-187500.02235174447
$SILENCE,1267.5450763160081,-10757.380516216817,6615.423454692776,9673.812648512441,-187500.02235174447,-187500.02235174447,-187500.02235174447,-187500.02235174447
$SILENCE,1146.040993456959,-10798.194801592208,6252.632290438687,9688.698910319676,-187500.02235174447,-187500.02235174447,-187500.02235174447,-187500.02235174447
$SILENCE,1328.0512485565243,-10783.062670595966,6631.472007211686,9635.434703282679,-187500.02235174447,-187500.02235174447,-187500.02235174447,-187500.02235174447
$SILENCE,1446.5825494030178,-10742.248385220575,6987.915276040469,9625.063493855418,-187500.02235174447,-187500.02235174447,-187500.02235174447,-187500.02235174447
$SILENCE,1301.609134865896,-10754.31832722644,6700.85182200096,9667.420049598224,-187500.02235174447,-187500.02235174447,-187500.02235174447,-187500.02235174447
$SILENCE,1142.7552870220288,-10796.652531224792,6262.601168465754,9690.35293940937,-187500.02235174447,-187500.02235174447,-187500.02235174447,-187500.02235174447
$SILENCE,1285.6052858358962,-10793.880914912334,6524.9659448821485,9639.994459151561,-187500.02235174447,-187500.02235174447,-187500.02235174447,-187500.02235174447
$SILENCE,1446.9401773143027,-10746.428161433716,6969.363328142564,9618.08974958536,-187500.02235174447,-187500.02235174447,-187500.02235174447,-187500.02235174447
$SILENCE,1346.4690859876976,-10745.779960844513,6789.387081788431,9656.981784937596,-187500.02235174447,-187500.02235174447,-187500.02235174447,-187500.02235174447
$SILENCE,1162.715394820618,-10785.074327596943,6308.578706810321,9690.978788254117,-187500.02235174447,-187500.02235174447,-187500.02235174447,-187500.02235174447
$SILENCE,1254.066974409458,-10794.774984690546,6444.522016587498,9655.260700614537,-187500.02235174447,-187500.02235174447,-187500.02235174447,-187500.02235174447
$SILENCE,1444.7720581021379,-10749.892681824289,6941.870682462536,9618.045046096451,-187500.02235174447,-187500.02235174447,-187500.02235174447,-187500.02235174447
$SILENCE,1371.9500746667475,-10739.633231119304,6857.425791910386,9643.011944653028,-187500.02235174447,-187500.02235174447,-187500.02235174447,-187500.02235174447
$SILENCE,1177.1099182498358,-10780.0451850945,6367.564960427876,9684.474430617624,-187500.02235174447,-187500.02235174447,-187500.02235174447,-187500.02235174447
$SILENCE,1216.6948576801847,-10799.982941148632,6359.205408001591,9668.96231996564,-187500.02235174447,-187500.02235174447,-187500.02235174447,-187500.02235174447
$SILENCE,1430.6457556063838,-10755.257100493563,6882.638559655972,9627.09750260085,-187500.02235174447,-187500.02235174447,-187500.02235174447,-187500.02235174447
$SILENCE,1411.3338483969985,-10739.141492741286,6921.150615352466,9643.548386519955,-187500.02235174447,-187500.02235174447,-187500.02235174447,-187500.02235174447
$SILENCE,1219.712343181651,-10770.679804167725,6462.9845575075815,9688.67655857522,-187500.02235174447,-187500.02235174447,-187500.02235174447,-187500.02235174447
$SILENCE,1198.6122964158412,-10795.959627146678,6326.929489008127,9677.00894796955,-187500.02235174447,-187500.02235174447,-187500.02235174447,-187500.02235174447
$SILENCE,1397.7439877681718,-10759.839208106901,6797.903096425903,9628.304496801436,-187500.02235174447,-187500.02235174447,-187500.02235174447,-187500.02235174447
$SILENCE,1433.6632411078504,-10728.814986802934,6976.0464997347,9634.942964904663,-187500.02235174447,-187500.02235174447,-187500.02235174447,-187500.02235174447
$SILENCE,1241.7511632145838,-10764.622481420336,6518.439235501199,9689.771794053531,-187500.02235174447,-187500.02235174447,-187500.02235174447,-187500.02235174447
$SILENCE,1165.2858454329785,-10799.915885915267,6248.385458992178,9688.564799852944,-187500.02235174447,-187500.02235174447,-187500.02235174447,-187500.02235174447
$SILENCE,1371.4583362887308,-10773.205551291174,6713.99464774068,9633.199528837149,-187500.02235174447,-187500.02235174447,-187500.02235174447,-187500.02235174447
$SILENCE,1452.3269477280317,-10737.800388073969,6986.9988545178,9629.936174146673,-187500.02235174447,-187500.02235174447,-187500.02235174447,-187500.02235174447
$SILENCE,1282.2972276565108,-10756.866426094346,6623.69360014124,9670.01285195504,-187500.02235174447,-187500.02235174447,-187500.02235174447,-187500.02235174447
$SILENCE,1162.693043076163,-10799.155926603786,6254.219264295014,9693.10220397737,-187500.02235174447,-187500.02235174447,-187500.02235174447,-187500.02235174447
$SILENCE,1342.1999027967338,-10783.42029850725,6624.230042008167,9642.363744063825,-187500.02235174447,-187500.02235174447,-187500.02235174447,-187500.02235174447
$SILENCE,1466.1179740569562,-10738.202719474164,6993.592619132116,9623.43181651018,-187500.02235174447,-187500.02235174447,-187500.02235174447,-187500.02235174447
$SILENCE,1331.4263619692758,-10747.813969589946,6718.71086582075,9661.876816973307,-187500.02235174447,-187500.02235174447,-187500.02235174447,-187500.02235174447
$SILENCE,1165.4423076441656,-10790.528153244037,6275.0287383829045,9691.179953954215,-187500.02235174447,-187500.02235174447,-187500.02235174447,-187500.02235174447
$SILENCE,1303.6431436113292,-10790.774022433046,6529.279831562023,9653.561968035934,-187500.02235174447,-187500.02235174447,-187500.02235174447,-187500.02235174447
$SILENCE,1470.5883229480175,-10747.009306789554,6980.673310836949,9625.041142110962,-187500.02235174447,-187500.02235174447,-187500.02235174447,-187500.02235174447
$SILENCE,1363.5234670070968,-10747.411638189751,6794.930314413347,9649.315136589425,-187500.02235174447,-187500.02235174447,-187500.02235174447,-187500.02235174447
$SILENCE,1175.6123513713303,-10785.119031085853,6311.8867649897065,9686.173163196227,-187500.02235174447,-187500.02235174447,-187500.02235174447,-187500.02235174447
não,1265.421660592754,-10794.618522479359,6436.788313005962,9660.021622183516,-187500.02235174447,-187500.02235174447,-187500.02235174447,-187500.02235174447
não,1462.318177499554,-10749.155074257264,6944.396429585985,9624.929383388684,-187500.02235174447,-187500.02235174447,-187500.02235174447,-187500.02235174447
não,1402.4378541037863,-10738.202719474164,6879.665777643416,9654.523093047512,-187500.02235174447,-187500.02235174447,-187500.02235174447,-187500.02235174447
não,1204.781377885506,-10779.732260672125,6388.888524638239,9694.599770855877,-187500.02235174447,-187500.02235174447,-187500.02235174447,-187500.02235174447
não,1229.2565380640672,-10803.425109794749,6357.350213211801,9670.05755544395,-187500.02235174447,-187500.02235174447,-187500.02235174447,-187500.02235174447
não,1444.7497063576825,-10757.201702261174,6878.257617742732,9621.800139164941,-187500.02235174447,-187500.02235174447,-187500.02235174447,-187500.02235174447
não,1430.1093137394564,-10735.40875141725,6929.219595100832,9638.407485295234,-187500.02235174447,-187500.02235174447,-187500.02235174447,-187500.02235174447
não,1235.0232881335364,-10769.964548345155,6464.772697064006,9686.53079110751,-187500.02235174447,-187500.02235174447,-187500.02235174447,-187500.02235174447
não,1204.9378400966932,-10802.486336527627,6296.620523526732,9678.73003229261,-187500.02235174447,-187500.02235174447,-187500.02235174447,-187500.02235174447
não,1420.4980636236744,-10767.170580288242,6803.043997650623,9623.275354298992,-187500.02235174447,-187500.02235174447,-187500.02235174447,-187500.02235174447
não,1457.9595873307692,-10737.17453922922,6976.739403812815,9629.086807857371,-187500.02235174447,-187500.02235174447,-187500.02235174447,-187500.02235174447
não,1272.328349629444,-10764.063687808954,6558.359451098377,9677.970072981128,-187500.02235174447,-187500.02235174447,-187500.02235174447,-187500.02235174447
não,1184.396586942266,-10804.140365617319,6258.756668419442,9683.558009094955,-187500.02235174447,-187500.02235174447,-187500.02235174447,-187500.02235174447
não,1390.837298731482,-10777.742955415602,6703.80225226906,9632.417217781212,-187500.02235174447,-187500.02235174447,-187500.02235174447,-187500.02235174447
não,1477.5844189625286,-10736.36987642883,6997.303008711697,9629.600897979844,-187500.02235174447,-187500.02235174447,-187500.02235174447,-187500.02235174447
não,1320.161082763801,-10754.407734204262,6648.0570015975245,9669.141133921283,-187500.02235174447,-187500.02235174447,-187500.02235174447,-187500.02235174447
não,1187.5034794215537,-10799.066519625965,6262.109430087738,9691.716395821142,-187500.02235174447,-187500.02235174447,-187500.02235174447,-187500.02235174447
não,1361.7576791951276,-10788.292978798507,6614.998771548125,9638.988630651073,-187500.02235174447,-187500.02235174447,-187500.02235174447,-187500.02235174447
não,1492.2695150696654,-10743.611841632348,6998.912334312479,9618.134453074272,-187500.02235174447,-187500.02235174447,-187500.02235174447,-187500.02235174447
não,1352.5711122239964,-10751.122027769332,6742.806046343571,9652.734953491086,-187500.02235174447,-187500.02235174447,-187500.02235174447,-187500.02235174447
não,1185.4471189316653,-10798.619484736859,6285.0646716433375,9683.58036083941,-187500.02235174447,-187500.02235174447,-187500.02235174447,-187500.02235174447
não,1313.6343733828514,-10795.534944002027,6512.694837176185,9641.71554347462,-187500.02235174447,-187500.02235174447,-187500.02235174447,-187500.02235174447
não,1493.7894336926263,-10755.815894104946,6984.651921349993,9618.022694351996,-187500.02235174447,-187500.02235174447,-187500.02235174447,-187500.02235174447
não,1404.6059733159511,-10744.46120792165,6823.384085104953,9657.518226804523,-187500.02235174447,-187500.02235174447,-187500.02235174447,-187500.02235174447
não,1214.0797035789137,-10779.866371138856,6331.601003599287,9691.291712676491,-187500.02235174447,-187500.02235174447,-187500.02235174447,-187500.02235174447
não,1278.8327072659383,-10799.290037070517,6424.047818666437,9652.891415702274,-187500.02235174447,-187500.02235174447,-187500.02235174447,-187500.02235174447
não,1486.3910062779196,-10755.815894104946,6942.56358654065,9619.833185652875,-187500.02235174447,-187500.02235174447,-187500.02235174447,-187500.02235174447
não,1433.6185376189396,-10744.327097454918,6896.027254584701,9645.850616198852,-187500.02235174447,-187500.02235174447,-187500.02235174447,-187500.02235174447
não,1237.6831457237179,-10780.55927521697,6411.352027815822,9691.671692332231,-187500.02235174447,-187500.02235174447,-187500.02235174447,-187500.02235174447
não,1256.100983154891,-10805.168545862263,6354.757410854985,9668.67174728772,-187500.02235174447,-187500.02235174447,-187500.02235174447,-187500.02235174447
não,1467.4143752353639,-10764.868350609346,6875.038966541168,9617.352142018335,-187500.02235174447,-187500.02235174447,-187500.02235174447,-187500.02235174447
não,1459.188933275811,-10742.65071662077,6944.217615630343,9635.881738171785,-187500.02235174447,-187500.02235174447,-187500.02235174447,-187500.02235174447
não,1266.6957100267066,-10775.127801314331,6486.409185696743,9681.568703838433,-187500.02235174447,-187500.02235174447,-187500.02235174447,-187500.02235174447
não,1227.6919159521958,-10809.013045908576,6301.20263114007,9671.555122322456,-187500.02235174447,-187500.02235174447,-187500.02235174447,-187500.02235174447
não,1445.4649621802525,-10775.686594925714,6799.668884237873,9619.319095530404,-187500.02235174447,-187500.02235174447,-187500.02235174447,-187500.02235174447
não,1484.9157911438695,-10748.193949245686,6986.3953574175075,9620.95077287564,-187500.02235174447,-187500.02235174447,-187500.02235174447,-187500.02235174447
não,1301.0279895100582,-10774.27843502503,6574.564465828475,9664.5813780524,-187500.02235174447,-187500.02235174447,-187500.02235174447,-187500.02235174447
não,1210.7045901661625,-10826.916793217277,6273.665281971131,9667.934139720695,-187500.02235174447,-187500.02235174447,-187500.02235174447,-187500.02235174447
não,1405.321229138521,-10826.425054839261,6694.973313209214,9582.349310201325,-187500.02235174447,-187500.02235174447,-187500.02235174447,-187500.02235174447
não,1517.3705240929753,-10759.79450461799,7005.036712293233,9624.23647931057,-187500.02235174447,-187500.02235174447,-187500.02235174447,-187500.02235174447
não,1352.4593535017198,-10751.434952191705,6676.488420544675,9672.695061289676,-187500.02235174447,-187500.02235174447,-187500.02235174447,-187500.02235174447
não,1206.8600901198495,-10793.813859678969,6290.093814145782,9690.285884176003,-187500.02235174447,-187500.02235174447,-187500.02235174447,-187500.02235174447
não,1387.059853918535,-10783.397946762794,6627.448693209732,9638.742761462065,-187500.02235174447,-187500.02235174447,-187500.02235174447,-187500.02235174447
não,1540.0128412262013,-10746.137588755797,7036.284451041753,9608.970237847596,-187500.02235174447,-187500.02235174447,-187500.02235174447,-187500.02235174447
não,1395.9781999562026,-10758.721620884136,6770.477505979241,9638.76511320652,-187500.02235174447,-187500.02235174447,-187500.02235174447,-187500.02235174447
não,1209.2740785210226,-10820.61360128088,6272.704156959553,9668.112953676338,-187500.02235174447,-187500.02235174447,-187500.02235174447,-187500.02235174447
não,1345.7538301651277,-10838.673810800768,6512.806595898462,9612.054778582427,-187500.02235174447,-187500.02235174447,-187500.02235174447,-187500.02235174447
não,1525.5289108191623,-10774.971339103144,7039.614860965594,9578.862438066297,-187500.02235174447,-187500.02235174447,-187500.02235174447,-187500.02235174447
não,1431.8751015514258,-10735.676972350713,6865.427716425385,9651.438552312678,-187500.02235174447,-187500.02235174447,-187500.02235174447,-187500.02235174447
não,1241.7288114701284,-10783.152077573786,6383.188829802136,9685.72612830712,-187500.02235174447,-187500.02235174447,-187500.02235174447,-187500.02235174447
não,1319.646992641329,-10796.56312424697,6493.606447411353,9651.90793894624,-187500.02235174447,-187500.02235174447,-187500.02235174447,-187500.02235174447
não,1526.1324079194555,-10769.383402989317,6966.167028685454,9603.538763944956,-187500.02235174447,-187500.02235174447,-187500.02235174447,-187500.02235174447
não,1446.448438936286,-10789.23175206563,6882.012710811224,9584.025691035473,-187500.02235174447,-187500.02235174447,-187500.02235174447,-187500.02235174447
não,1266.0922129264134,-10801.502859771594,6388.665007193686,9631.098464858349,-187500.02235174447,-187500.02235174447,-187500.02235174447,-187500.02235174447
não,1266.6957100267066,-10841.311316646495,6303.571916052332,9606.556249446423,-187500.02235174447,-187500.02235174447,-187500.02235174447,-187500.02235174447
não,1470.096584570001,-10808.834231952935,6836.146931188933,9566.971310016073,-187500.02235174447,-187500.02235174447,-187500.02235174447,-187500.02235174447
não,1496.181070349344,-10763.281376753019,6948.397391843485,9603.337598244858,-187500.02235174447,-187500.02235174447,-187500.02235174447,-187500.02235174447
não,1284.197125935212,-10801.011121393576,6488.443194442177,9643.05664814194,-187500.02235174447,-187500.02235174447,-187500.02235174447,-187500.02235174447
não,1245.394497560799,-10847.994488238632,6289.356206578756,9638.832168439885,-187500.02235174447,-187500.02235174447,-187500.02235174447,-187500.02235174447
não,1470.4318607368305,-10834.024647954066,6780.491087495218,9568.625339105767,-187500.02235174447,-187500.02235174447,-187500.02235174447,-187500.02235174447
não,1477.8749916404477,-10806.196726107208,6966.90463625248,9537.712876524076,-187500.02235174447,-187500.02235174447,-187500.02235174447,-187500.02235174447
não,1328.677097401273,-10808.498955786104,6584.734509555639,9612.010075093518,-187500.02235174447,-187500.02235174447,-187500.02235174447,-187500.02235174447
não,1243.7628202155615,-10832.683543286746,6276.883933172695,9647.39288656627,-187500.02235174447,-187500.02235174447,-187500.02235174447,-187500.02235174447
não,1421.0792089795125,-10821.351208847906,6687.396071838864,9590.217124249593,-187500.02235174447,-187500.02235174447,-187500.02235174447,-187500.02235174447
não,1496.6951604718163,-10837.37740962236,6974.593636345106,9535.701219523098,-187500.02235174447,-187500.02235174447,-187500.02235174447,-187500.02235174447
não,1367.323263564499,-10831.454197341705,6683.350406092454,9591.290007983447,-187500.02235174447,-187500.02235174447,-187500.02235174447,-187500.02235174447
não,1202.5462034399752,-10855.77289530908,6233.745066373953,9600.744795888042,-187500.02235174447,-187500.02235174447,-187500.02235174447,-187500.02235174447
não,1376.487478791175,-10846.608680082403,6562.226302889145,9572.872170552275,-187500.02235174447,-187500.02235174447,-187500.02235174447,-187500.02235174447
não,1505.121768131467,-10835.365752621383,6979.063985236166,9532.728437510543,-187500.02235174447,-187500.02235174447,-187500.02235174447,-187500.02235174447
não,1398.6827610352948,-10824.56986004947,6773.450287991797,9612.546516960445,-187500.02235174447,-187500.02235174447,-187500.02235174447,-187500.02235174447
não,1233.0786863659248,-10853.940052263744,6298.766290994441,9656.378287837302,-187500.02235174447,-187500.02235174447,-187500.02235174447,-187500.02235174447
não,1356.4379640147645,-10842.808883525,6494.388758467288,9592.60876090631,-187500.02235174447,-187500.02235174447,-187500.02235174447,-187500.02235174447
não,1547.0089372407124,-10818.065502412976,6981.433270148429,9554.119056954272,-187500.02235174447,-187500.02235174447,-187500.02235174447,-187500.02235174447
não,1425.6836683373058,-10832.012990953088,6833.911756743402,9581.723461356576,-187500.02235174447,-187500.02235174447,-187500.02235174447,-187500.02235174447
não,1218.3712385143326,-10870.43563967176,6322.168567439147,9627.321020045403,-187500.02235174447,-187500.02235174447,-187500.02235174447,-187500.02235174447
não,1298.5469458755192,-10882.527933422081,6385.960446114594,9612.926496616185,-187500.02235174447,-187500.02235174447,-187500.02235174447,-187500.02235174447
não,1513.2354513687435,-10825.9556682057,6909.550059980162,9560.288138423937,-187500.02235174447,-187500.02235174447,-187500.02235174447,-187500.02235174447
não,1484.2228870657548,-10812.9022494438,6894.932019106391,9580.360004944803,-187500.02235174447,-187500.02235174447,-187500.02235174447,-187500.02235174447
não,1268.8861809833265,-10849.33559290595,6419.599821519831,9632.48427301458,-187500.02235174447,-187500.02235174447,-187500.02235174447,-187500.02235174447
não,1264.9299222147372,-10881.231532243673,6321.207442427569,9616.5698309624,-187500.02235174447,-187500.02235174447,-187500.02235174447,-187500.02235174447
não,1508.6086402664948,-10830.783645008045,6860.778553578682,9585.366795702792,-187500.02235174447,-187500.02235174447,-187500.02235174447,-187500.02235174447
não,1494.9517244043022,-10808.9012871863,6961.361403627563,9596.967351075096,-187500.02235174447,-187500.02235174447,-187500.02235174447,-187500.02235174447
não,1294.2107074511896,-10840.886633501845,6510.7055319196625,9649.158674378237,-187500.02235174447,-187500.02235174447,-187500.02235174447,-187500.02235174447
não,1257.5314948000307,-10870.010956527109,6296.508764804455,9651.416200568223,-187500.02235174447,-187500.02235174447,-187500.02235174447,-187500.02235174447
não,1463.5251717001406,-10845.446389370727,6770.164581556867,9587.512563170501,-187500.02235174447,-187500.02235174447,-187500.02235174447,-187500.02235174447
não,1538.6270330699722,-10808.677769741747,6993.838488321125,9611.250115782037,-187500.02235174447,-187500.02235174447,-187500.02235174447,-187500.02235174447
não,1354.158086080323,-10838.494996845127,6605.052245265513,9641.536729518977,-187500.02235174447,-187500.02235174447,-187500.02235174447,-187500.02235174447
não,1237.0125933900588,-10866.278215203074,6285.891686188184,9679.288825903992,-187500.02235174447,-187500.02235174447,-187500.02235174447,-187500.02235174447
não,1418.6205170894286,-10849.112075461397,6678.5224292901075,9603.829336622875,-187500.02235174447,-187500.02235174447,-187500.02235174447,-187500.02235174447
não,1541.1974836823326,-10801.368749304862,7007.964790816879,9611.652447182232,-187500.02235174447,-187500.02235174447,-187500.02235174447,-187500.02235174447
não,1382.4330428162866,-10816.724397745658,6689.050100928557,9658.747572749564,-187500.02235174447,-187500.02235174447,-187500.02235174447,-187500.02235174447
não,1223.489787994598,-10857.091648231943,6278.29209307338,9698.913657535752,-187500.02235174447,-187500.02235174447,-187500.02235174447,-187500.02235174447
não,1389.6079527864401,-10850.743752806635,6582.9016665103045,9661.966223951129,-187500.02235174447,-187500.02235174447,-187500.02235174447,-187500.02235174447
não,1546.1595709514108,-10808.208383108185,6999.202906990398,9619.252040297037,-187500.02235174447,-187500.02235174447,-187500.02235174447,-187500.02235174447
não,1419.0899037229901,-10801.212287093675,6788.4036050323975,9665.967186208629,-187500.02235174447,-187500.02235174447,-187500.02235174447,-187500.02235174447
não,1220.4052472597657,-10850.140255706341,6315.016009213449,9703.808689571464,-187500.02235174447,-187500.02235174447,-187500.02235174447,-187500.02235174447
não,1341.2164260407003,-10859.840912799944,6491.527735177009,9655.260700614537,-187500.02235174447,-187500.02235174447,-187500.02235174447,-187500.02235174447
não,1525.9088904749026,-10807.113147629876,6970.525618854239,9615.206374550626,-187500.02235174447,-187500.02235174447,-187500.02235174447,-187500.02235174447
não,1444.8838168244145,-10798.70889171468,6852.575463363584,9663.016755940527,-187500.02235174447,-187500.02235174447,-187500.02235174447,-187500.02235174447
não,1260.4819250681312,-10835.81278751049,6370.873018607262,9720.527794424033,-187500.02235174447,-187500.02235174447,-187500.02235174447,-187500.02235174447
não,1308.3817134358542,-10857.113999976398,6397.69511195363,9693.571590610933,-187500.02235174447,-187500.02235174447,-187500.02235174447,-187500.02235174447
não,1514.1965763803216,-10807.582534263436,6922.402313041964,9648.599880766855,-187500.02235174447,-187500.02235174447,-187500.02235174447,-187500.02235174447
não,1450.5388081716071,-10785.789583419513,6920.658876974449,9659.10520066085,-187500.02235174447,-187500.02235174447,-187500.02235174447,-187500.02235174447
não,1236.8561311788717,-10818.065502412976,6444.6114235653195,9713.241125731603,-187500.02235174447,-187500.02235174447,-187500.02235174447,-187500.02235174447
não,1231.4917125095978,-10848.396819638827,6340.385239170223,9731.97188758515,-187500.02235174447,-187500.02235174447,-187500.02235174447,-187500.02235174447
não,1438.222996976733,-10805.973208662655,6844.97587024878,9660.401601839258,-187500.02235174447,-187500.02235174447,-187500.02235174447,-187500.02235174447
não,1443.1850842458111,-10775.70894667017,6960.936720482912,9670.169314166227,-187500.02235174447,-187500.02235174447,-187500.02235174447,-187500.02235174447
não,1243.8298754489274,-10804.542697017516,6523.691895448196,9722.561803169467,-187500.02235174447,-187500.02235174447,-187500.02235174447,-187500.02235174447
não,1171.0525955024477,-10840.596060823926,6278.9626454070385,9721.824195602441,-187500.02235174447,-187500.02235174447,-187500.02235174447,-187500.02235174447
não,1376.6662927468174,-10806.129670873843,6740.749685853682,9652.332622090891,-187500.02235174447,-187500.02235174447,-187500.02235174447,-187500.02235174447
não,1438.5806248880178,-10771.216246034652,6985.121307983555,9662.614424540332,-187500.02235174447,-187500.02235174447,-187500.02235174447,-187500.02235174447
não,1262.001843691092,-10789.254103810084,6610.170794745779,9713.68816062071,-187500.02235174447,-187500.02235174447,-187500.02235174447,-187500.02235174447
não,1137.659089286219,-10831.700066530713,6251.71586891602,9723.992314814606,-187500.02235174447,-187500.02235174447,-187500.02235174447,-187500.02235174447
não,1328.8559113569154,-10819.160737891287,6643.296080028544,9668.984671710095,-187500.02235174447,-187500.02235174447,-187500.02235174447,-187500.02235174447
não,1443.2074359902665,-10764.42131572024,7000.745177357814,9668.537636820989,-187500.02235174447,-187500.02235174447,-187500.02235174447,-187500.02235174447
não,1299.4410156537315,-10770.232769278618,6709.770168038627,9715.498651921589,-187500.02235174447,-187500.02235174447,-187500.02235174447,-187500.02235174447
não,1136.0721154298922,-10817.819633223968,6270.8042586808515,9713.598753642887,-187500.02235174447,-187500.02235174447,-187500.02235174447,-187500.02235174447
não,1291.0144079940806,-10811.851717454401,6561.958081955681,9684.854410273363,-187500.02235174447,-187500.02235174447,-187500.02235174447,-187500.02235174447
não,1461.312348999065,-10761.31442324095,7008.612991406083,9681.255779416058,-187500.02235174447,-187500.02235174447,-187500.02235174447,-187500.02235174447
não,1336.0308213270691,-10759.03454530651,6801.3229133275645,9714.023436787538,-187500.02235174447,-187500.02235174447,-187500.02235174447,-187500.02235174447
não,1160.4802203750874,-10792.785679434024,6350.890559064217,9746.768742414564,-187500.02235174447,-187500.02235174447,-187500.02235174447,-187500.02235174447
não,1244.165151615757,-10798.775946948046,6482.654092628252,9712.414111186758,-187500.02235174447,-187500.02235174447,-187500.02235174447,-187500.02235174447
não,1440.5922818889956,-10763.79546687549,6982.19322945991,9688.609503341855,-187500.02235174447,-187500.02235174447,-187500.02235174447,-187500.02235174447
não,1358.6731384602951,-10743.880062565811,6886.3713009800085,9703.987503527105,-187500.02235174447,-187500.02235174447,-187500.02235174447,-187500.02235174447
não,1149.9078452477272,-10772.244426279596,6381.288931523434,9743.88536737983,-187500.02235174447,-187500.02235174447,-187500.02235174447,-187500.02235174447
não,1198.6346481602966,-10787.331853786929,6407.8651556807945,9723.835852603419,-187500.02235174447,-187500.02235174447,-187500.02235174447,-187500.02235174447
não,1403.5554413265518,-10742.181329987208,6911.472310003318,9688.900076019774,-187500.02235174447,-187500.02235174447,-187500.02235174447,-187500.02235174447
não,1376.3310165799876,-10720.92482101021,6940.574281284128,9701.908791292763,-187500.02235174447,-187500.02235174447,-187500.02235174447,-187500.02235174447
não,1176.2158484716235,-10761.359126729862,6446.51132184402,9736.106960309382,-187500.02235174447,-187500.02235174447,-187500.02235174447,-187500.02235174447
não,1165.6881768331739,-10790.014063121565,6341.63693685972,9743.997126102106,-187500.02235174447,-187500.02235174447,-187500.02235174447,-187500.02235174447
não,1379.2143916147222,-10746.361106200351,6846.562844105107,9690.10707022036,-187500.02235174447,-187500.02235174447,-187500.02235174447,-187500.02235174447
não,1401.7896535145824,-10715.336884896384,6990.373967930552,9703.898096549285,-187500.02235174447,-187500.02235174447,-187500.02235174447,-187500.02235174447
não,1191.1021102788582,-10734.671143850224,6553.039735918014,9744.086533079926,-187500.02235174447,-187500.02235174447,-187500.02235174447,-187500.02235174447
não,1114.8603099418058,-10773.138496057809,6288.037453655894,9751.328498283447,-187500.02235174447,-187500.02235174447,-187500.02235174447,-187500.02235174447
não,1330.6664026577953,-10743.388324187796,6762.0508983195905,9703.853393060373,-187500.02235174447,-187500.02235174447,-187500.02235174447,-187500.02235174447
não,1406.5505750835628,-10705.725634780603,7023.566308446683,9700.411224414256,-187500.02235174447,-187500.02235174447,-187500.02235174447,-187500.02235174447
não,1233.1233898548353,-10729.0832077364,6658.964652891714,9737.381009743334,-187500.02235174447,-187500.02235174447,-187500.02235174447,-187500.02235174447
não,1106.4784057710656,-10764.51072269806,6289.892648445684,9755.59768147441,-187500.02235174447,-187500.02235174447,-187500.02235174447,-187500.02235174447
não,1297.384655163843,-10756.017059805043,6663.077373871491,9713.151718753781,-187500.02235174447,-187500.02235174447,-187500.02235174447,-187500.02235174447
não,1412.5855460864957,-10711.939419739178,7031.165901561488,9706.289733206002,-187500.02235174447,-187500.02235174447,-187500.02235174447,-187500.02235174447
não,1266.8968757268044,-10717.505004108549,6744.258909733166,9739.303259766491,-187500.02235174447,-187500.02235174447,-187500.02235174447,-187500.02235174447
não,1107.819510438384,-10761.269719752041,6300.867354973239,9762.034983877538,-187500.02235174447,-187500.02235174447,-187500.02235174447,-187500.02235174447
não,1244.5227795270418,-10752.351373714373,6559.432334832231,9715.096320521394,-187500.02235174447,-187500.02235174447,-187500.02235174447,-187500.02235174447
não,1403.4436826042752,-10711.537088338982,7005.461395437885,9697.840773801896,-187500.02235174447,-187500.02235174447,-187500.02235174447,-187500.02235174447
não,1295.5294603740526,-10712.632323817292,6826.401570606419,9745.561748213977,-187500.02235174447,-187500.02235174447,-187500.02235174447,-187500.02235174447
não,1106.2772400709678,-10747.232824234108,6344.632070616731,9778.821143963474,-187500.02235174447,-187500.02235174447,-187500.02235174447,-187500.02235174447
não,1194.745444625073,-10760.398001718284,6472.640511112275,9733.089474807915,-187500.02235174447,-187500.02235174447,-187500.02235174447,-187500.02235174447
não,1393.9441912107698,-10716.700341308158,6974.973616000845,9689.235352186603,-187500.02235174447,-187500.02235174447,-187500.02235174447,-187500.02235174447
não,1317.8812048293598,-10714.107538951343,6882.705614889338,9724.953439826184,-187500.02235174447,-187500.02235174447,-187500.02235174447,-187500.02235174447
não,1123.5327867904648,-10753.22309174813,6394.811736918895,9765.186579845737,-187500.02235174447,-187500.02235174447,-187500.02235174447,-187500.02235174447
não,1160.1896476971683,-10766.924711099233,6385.200486803114,9736.732809154131,-187500.02235174447,-187500.02235174447,-187500.02235174447,-187500.02235174447
não,1379.0132259146246,-10725.931611768201,6921.731760708304,9689.749442309076,-187500.02235174447,-187500.02235174447,-187500.02235174447,-187500.02235174447
não,1352.8169814130047,-10707.938457481678,6962.076659450133,9700.902962792274,-187500.02235174447,-187500.02235174447,-187500.02235174447,-187500.02235174447
não,1139.782505009473,-10743.053048020965,6454.669708570208,9745.226472047147,-187500.02235174447,-187500.02235174447,-187500.02235174447,-187500.02235174447
não,1129.0760194153809,-10767.818780877446,6331.77981755493,9744.6006232024,-187500.02235174447,-187500.02235174447,-187500.02235174447,-187500.02235174447
não,1329.4594084572088,-10738.135664240797,6804.161584873389,9698.310160435458,-187500.02235174447,-187500.02235174447,-187500.02235174447,-187500.02235174447
não,1368.9549409097363,-10712.051178461454,6969.363328142564,9706.4908989061,-187500.02235174447,-187500.02235174447,-187500.02235174447,-187500.02235174447
não,1173.7124530926292,-10732.771245571525,6548.0329451600255,9751.97669887265,-187500.02235174447,-187500.02235174447,-187500.02235174447,-187500.02235174447
não,1084.8419171383282,-10769.852789622879,6271.139534847682,9757.162303586281,-187500.02235174447,-187500.02235174447,-187500.02235174447,-187500.02235174447
não,1294.3224661734662,-10752.016097547543,6721.303668177566,9690.218828942638,-187500.02235174447,-187500.02235174447,-187500.02235174447,-187500.02235174447
não,1372.0171299001133,-10715.247477918563,6991.759776086781,9681.836924771897,-187500.02235174447,-187500.02235174447,-187500.02235174447,-187500.02235174447
não,1201.42861621721,-10731.050161248466,6633.528367701575,9729.02145731705,-187500.02235174447,-187500.02235174447,-187500.02235174447,-187500.02235174447
não,1074.4483559666105,-10771.819743134945,6260.477752742499,9754.055411106994,-187500.02235174447,-187500.02235174447,-187500.02235174447,-187500.02235174447
não,1252.9940906756033,-10755.592376660392,6628.767446132594,9709.77660534103,-187500.02235174447,-187500.02235174447,-187500.02235174447,-187500.02235174447
não,1378.0521009030463,-10714.398111629262,6995.917200555468,9690.554105109466,-187500.02235174447,-187500.02235174447,-187500.02235174447,-187500.02235174447
não,1228.3177647969444,-10726.69157107968,6716.386284397398,9723.433521203224,-187500.02235174447,-187500.02235174447,-187500.02235174447,-187500.02235174447
não,1061.1714197601582,-10770.456286723173,6267.9208836461175,9748.065143592972,-187500.02235174447,-187500.02235174447,-187500.02235174447,-187500.02235174447
não,1208.3129535094445,-10771.573873945938,6521.2108518136565,9714.135195509816,-187500.02235174447,-187500.02235174447,-187500.02235174447,-187500.02235174447
não,1391.3066853650434,-10723.428216389206,6978.929874769435,9678.998253226073,-187500.02235174447,-187500.02235174447,-187500.02235174447,-187500.02235174447
não,1290.679131827251,-10718.9802192426,6807.469643052775,9715.29748622149,-187500.02235174447,-187500.02235174447,-187500.02235174447,-187500.02235174447
não,1092.5532689754093,-10762.566120930449,6318.547584837388,9750.389725016323,-187500.02235174447,-187500.02235174447,-187500.02235174447,-187500.02235174447
não,1166.4704878891098,-10777.094754826398,6423.17610063268,9713.934029809718,-187500.02235174447,-187500.02235174447,-187500.02235174447,-187500.02235174447
não,1366.0045106416358,-10730.804292059456,6932.259432346754,9675.86900900233,-187500.02235174447,-187500.02235174447,-187500.02235174447,-187500.02235174447
não,1305.1407104898346,-10719.40490238725,6871.060356028123,9703.763986082553,-187500.02235174447,-187500.02235174447,-187500.02235174447,-187500.02235174447
não,1107.2607168270013,-10758.006365061567,6381.043062334426,9739.191501044215,-187500.02235174447,-187500.02235174447,-187500.02235174447,-187500.02235174447
não,1132.8758159727831,-10784.336720029918,6339.602928114286,9720.572497912945,-187500.02235174447,-187500.02235174447,-187500.02235174447,-187500.02235174447
não,1341.5069987186193,-10741.60018463137,6861.940844290358,9672.560950822945,-187500.02235174447,-187500.02235174447,-187500.02235174447,-187500.02235174447
não,1329.8840916018596,-10720.589544843382,6926.380923555008,9690.44234638719,-187500.02235174447,-187500.02235174447,-187500.02235174447,-187500.02235174447
não,1133.3228508618893,-10751.122027769332,6470.51709538902,9745.36058251388,-187500.02235174447,-187500.02235174447,-187500.02235174447,-187500.02235174447
não,1097.4930045000322,-10782.570932217948,6293.983017681006,9738.431541732734,-187500.02235174447,-187500.02235174447,-187500.02235174447,-187500.02235174447
não,1316.2718792285775,-10748.931556812711,6790.884648666936,9683.088622461393,-187500.02235174447,-187500.02235174447,-187500.02235174447,-187500.02235174447
não,1352.5934639684515,-10724.299934422963,6963.66363330646,9685.435555629201,-187500.02235174447,-187500.02235174447,-187500.02235174447,-187500.02235174447
não,1177.6687118612185,-10743.723600354624,6549.642270760807,9739.571480699955,-187500.02235174447,-187500.02235174447,-187500.02235174447,-187500.02235174447
não,1087.434719495144,-10776.111278070364,6257.057935840838,9747.081666836937,-187500.02235174447,-187500.02235174447,-187500.02235174447,-187500.02235174447
não,1285.3370649024325,-10756.08411503841,6705.948019736769,9695.940875523196,-187500.02235174447,-187500.02235174447,-187500.02235174447,-187500.02235174447
não,1378.5885427699736,-10717.21443143063,7019.6771049114595,9685.323796906925,-187500.02235174447,-187500.02235174447,-187500.02235174447,-187500.02235174447
não,1200.132215038802,-10735.296992694974,6640.099780571435,9741.627841189844,-187500.02235174447,-187500.02235174447,-187500.02235174447,-187500.02235174447
não,1064.6359401507307,-10777.854714137879,6244.4739037125,9767.578216502454,-187500.02235174447,-187500.02235174447,-187500.02235174447,-187500.02235174447
não,1234.3080323109666,-10761.85086510788,6592.199992203712,9714.805747843475,-187500.02235174447,-187500.02235174447,-187500.02235174447,-187500.02235174447
não,1373.7605659676274,-10720.075454720909,6982.729671326837,9695.87382028983,-187500.02235174447,-187500.02235174447,-187500.02235174447,-187500.02235174447
não,1244.7239452271397,-10729.016152503033,6727.405694413865,9717.510308922567,-187500.02235174447,-187500.02235174447,-187500.02235174447,-187500.02235174447
não,1078.6728356686635,-10772.691461168703,6277.174505850614,9752.22256806166,-187500.02235174447,-187500.02235174447,-187500.02235174447,-187500.02235174447
não,1210.8387006328942,-10770.9927285901,6503.66473241624,9716.124500766338,-187500.02235174447,-187500.02235174447,-187500.02235174447,-187500.02235174447
não,1381.740138738172,-10726.848033290868,6969.340976398108,9695.20326795617,-187500.02235174447,-187500.02235174447,-187500.02235174447,-187500.02235174447
não,1284.5771055909522,-10727.36212341334,6814.689256511839,9734.072951563949,-187500.02235174447,-187500.02235174447,-187500.02235174447,-187500.02235174447
não,1090.9439433746272,-10766.32121399894,6326.057770974371,9767.086478124438,-187500.02235174447,-187500.02235174447,-187500.02235174447,-187500.02235174447
não,1166.8951710337606,-10771.462115223661,6410.055626637415,9730.92135559575,-187500.02235174447,-187500.02235174447,-187500.02235174447,-187500.02235174447
não,1379.2143916147222,-10732.726542082613,6926.425627043918,9686.888419018796,-187500.02235174447,-187500.02235174447,-187500.02235174447,-187500.02235174447
não,1325.8831293443598,-10724.411693145239,6883.800850367648,9711.140061752803,-187500.02235174447,-187500.02235174447,-187500.02235174447,-187500.02235174447
não,1127.55610079242,-10761.292071496497,6398.008036376004,9758.235187320137,-187500.02235174447,-187500.02235174447,-187500.02235174447,-187500.02235174447
não,1142.978804466582,-10786.169563075253,6337.479512391033,9741.06904757846,-187500.02235174447,-187500.02235174447,-187500.02235174447,-187500.02235174447
$SILENCE,1355.2756733030885,-10740.594356130881,6861.002071023235,9696.074985989928,-187500.02235174447,-187500.02235174447,-187500.02235174447,-187500.02235174447
$SILENCE,1346.8937691323483,-10719.717826809625,6938.853196961069,9713.464643176156,-187500.02235174447,-187500.02235174447,-187500.02235174447,-187500.02235174447
$SILENCE,1148.2538161580344,-10752.46313243665,6475.300368702456,9748.422771504256,-187500.02235174447,-187500.02235174447,-187500.02235174447,-187500.02235174447
$SILENCE,1118.6824582436632,-10779.285225783018,6289.7585379789525,9747.573405214955,-187500.02235174447,-187500.02235174447,-187500.02235174447,-187500.02235174447
$SILENCE,1344.5915394534516,-10742.22603347612,6791.599904489506,9701.618218614843,-187500.02235174447,-187500.02235174447,-187500.02235174447,-187500.02235174447
$SILENCE,1387.8868684633815,-10716.186251185687,6981.880305037535,9707.49672740659,-187500.02235174447,-187500.02235174447,-187500.02235174447,-187500.02235174447
$SILENCE,1198.2546685045563,-10745.914071311245,6572.105773938391,9750.88146339434,-187500.02235174447,-187500.02235174447,-187500.02235174447,-187500.02235174447
$SILENCE,1100.3763795347668,-10781.855676395378,6260.701270187053,9755.955309385696,-187500.02235174447,-187500.02235174447,-187500.02235174447,-187500.02235174447
$SILENCE,1297.2058412082006,-10757.067591794443,6690.458260829242,9700.813555814453,-187500.02235174447,-187500.02235174447,-187500.02235174447,-187500.02235174447
$SILENCE,1396.3358278674875,-10719.561364598438,6998.152375000999,9700.321817436436,-187500.02235174447,-187500.02235174447,-187500.02235174447,-187500.02235174447
$SILENCE,1233.8833491663158,-10734.31351593894,6667.3689088069095,9746.232300547636,-187500.02235174447,-187500.02235174447,-187500.02235174447,-187500.02235174447
$SILENCE,1079.8127746358841,-10775.820705392445,6260.030717853394,9762.638480977832,-187500.02235174447,-187500.02235174447,-187500.02235174447,-187500.02235174447
$SILENCE,1248.2778725955336,-10763.728411642125,6581.560561842985,9703.115785493348,-187500.02235174447,-187500.02235174447,-187500.02235174447,-187500.02235174447
$SILENCE,1405.2765256496104,-10720.50013786556,6989.368139430063,9683.692119561687,-187500.02235174447,-187500.02235174447,-187500.02235174447,-187500.02235174447
$SILENCE,1284.0630154684802,-10728.904393780756,6753.266662748655,9729.937878839717,-187500.02235174447,-187500.02235174447,-187500.02235174447,-187500.02235174447
$SILENCE,1113.1168738742917,-10771.238597779107,6291.613732768743,9762.16909434427,-187500.02235174447,-187500.02235174447,-187500.02235174447,-187500.02235174447
$SILENCE,1229.5918142308967,-10776.424202492739,6495.461642201143,9717.644419389298,-187500.02235174447,-187500.02235174447,-187500.02235174447,-187500.02235174447
$SILENCE,1406.3047058945544,-10734.917013039234,6967.7316507973255,9684.809706784452,-187500.02235174447,-187500.02235174447,-187500.02235174447,-187500.02235174447
$SILENCE,1311.4439024262313,-10734.469978150128,6829.687277041349,9724.97579157064,-187500.02235174447,-187500.02235174447,-187500.02235174447,-187500.02235174447
$SILENCE,1115.2402895975458,-10766.902359354777,6340.027611258938,9764.448972278711,-187500.02235174447,-187500.02235174447,-187500.02235174447,-187500.02235174447
$SILENCE,1174.6735781042073,-10774.926635614233,6399.796175932429,9729.759064884074,-187500.02235174447,-187500.02235174447,-187500.02235174447,-187500.02235174447
$SILENCE,1382.388339327376,-10730.021981003521,6918.334295551097,9692.185782454704,-187500.02235174447,-187500.02235174447,-187500.02235174447,-187500.02235174447
$SILENCE,1344.6362429423623,-10720.656600076747,6895.826088884603,9709.01664602955,-187500.02235174447,-187500.02235174447,-187500.02235174447,-187500.02235174447
$SILENCE,1150.46663885911,-10755.36885921584,6412.804891205417,9748.601585459899,-187500.02235174447,-187500.02235174447,-187500.02235174447,-187500.02235174447
$SILENCE,1156.1886854396685,-10781.833324650923,6337.390105413211,9742.566614456966,-187500.02235174447,-187500.02235174447,-187500.02235174447,-187500.02235174447
$SILENCE,1375.0122636571245,-10741.555481142459,6864.980681536279,9697.930180779718,-187500.02235174447,-187500.02235174447,-187500.02235174447,-187500.02235174447
$SILENCE,1371.6595019888284,-10718.957867498144,6954.544121568695,9713.978733298629,-187500.02235174447,-187500.02235174447,-187500.02235174447,-187500.02235174447
$SILENCE,1176.4617176606318,-10749.713867868646,6496.221601512623,9755.26240530758,-187500.02235174447,-187500.02235174447,-187500.02235174447,-187500.02235174447
$SILENCE,1119.17419662168,-10785.074327596943,6275.4981250164665,9745.762913914075,-187500.02235174447,-187500.02235174447,-187500.02235174447,-187500.02235174447
$SILENCE,1330.934623591259,-10751.45730393616,6763.950796598291,9692.006968499061,-187500.02235174447,-187500.02235174447,-187500.02235174447,-187500.02235174447
$SILENCE,1386.0093219291357,-10718.287315164485,6975.398299145496,9689.682387075709,-187500.02235174447,-187500.02235174447,-187500.02235174447,-187500.02235174447
$SILENCE,1218.035962347503,-10746.02583003352,6588.3554921574,9745.382934258334,-187500.02235174447,-187500.02235174447,-187500.02235174447,-187500.02235174447
$SILENCE,1112.558080262909,-10784.783754919024,6261.014194609427,9760.470361765667,-187500.02235174447,-187500.02235174447,-187500.02235174447,-187500.02235174447
$SILENCE,1306.5712221349743,-10757.961661572655,6677.158972878334,9708.837832073908,-187500.02235174447,-187500.02235174447,-187500.02235174447,-187500.02235174447
$SILENCE,1408.0257902176131,-10721.282448921496,7002.935648314435,9700.165355225248,-187500.02235174447,-187500.02235174447,-187500.02235174447,-187500.02235174447
$SILENCE,1250.3789365743323,-10738.046257262977,6678.880057201392,9735.570518442455,-187500.02235174447,-187500.02235174447,-187500.02235174447,-187500.02235174447
$SILENCE,1107.014847637993,-10779.32992927193,6265.730412689497,9755.821198918962,-187500.02235174447,-187500.02235174447,-187500.02235174447,-187500.02235174447
$SILENCE,1260.3478146013993,-10766.142400043298,6575.637349562329,9704.032207016016,-187500.02235174447,-187500.02235174447,-187500.02235174447,-187500.02235174447
$SILENCE,1409.8139297740377,-10724.74696931207,6988.250552207298,9684.139154450793,-187500.02235174447,-187500.02235174447,-187500.02235174447,-187500.02235174447
$SILENCE,1294.97066676267,-10730.424312403717,6764.420183231853,9722.427692702735,-187500.02235174447,-187500.02235174447,-187500.02235174447,-187500.02235174447
$SILENCE,1115.821434953384,-10775.03839433651,6295.81586072634,9754.480094251645,-187500.02235174447,-187500.02235174447,-187500.02235174447,-187500.02235174447
$SILENCE,1221.455779249165,-10778.949949616188,6476.820287325417,9721.086588035416,-187500.02235174447,-187500.02235174447,-187500.02235174447,-187500.02235174447
$SILENCE,1405.1424151828785,-10730.9831060151,6960.087354193611,9690.397642898279,-187500.02235174447,-187500.02235174447,-187500.02235174447,-187500.02235174447
$SILENCE,1331.35930673591,-10721.818890788423,6842.740695803249,9716.236259488614,-187500.02235174447,-187500.02235174447,-187500.02235174447,-187500.02235174447
$SILENCE,1139.1119526758139,-10765.315385498452,6354.243320732513,9759.620995476365,-187500.02235174447,-187500.02235174447,-187500.02235174447,-187500.02235174447
$SILENCE,1185.6929881206738,-10782.995615362599,6390.45314675011,9731.346038740401,-187500.02235174447,-187500.02235174447,-187500.02235174447,-187500.02235174447
$SILENCE,1398.9062784798477,-10736.772207829024,6913.79689142667,9689.794145797987,-187500.02235174447,-187500.02235174447,-187500.02235174447,-187500.02235174447
$SILENCE,1358.2708070600995,-10724.054065233955,6903.246868043765,9709.240163474104,-187500.02235174447,-187500.02235174447,-187500.02235174447,-187500.02235174447
$SILENCE,1160.0108337415259,-10761.60499591887,6417.766978474496,9749.562710471477,-187500.02235174447,-187500.02235174447,-187500.02235174447,-187500.02235174447
$SILENCE,1155.7640022950177,-10791.779850933535,6317.63116331472,9738.073913821449,-187500.02235174447,-187500.02235174447,-187500.02235174447,-187500.02235174447
$SILENCE,1368.7984786985492,-10741.667239864737,6836.415152122397,9681.255779416058,-187500.02235174447,-187500.02235174447,-187500.02235174447,-187500.02235174447
$SILENCE,1379.7284817371944,-10718.063797719931,6948.665612776949,9689.525924864522,-187500.02235174447,-187500.02235174447,-187500.02235174447,-187500.02235174447
$SILENCE,1190.3197992229223,-10745.534091655505,6507.777453396017,9742.588966201421,-187500.02235174447,-187500.02235174447,-187500.02235174447,-187500.02235174447
$SILENCE,1134.5074933180206,-10777.027699593033,6279.968473907527,9753.161341328781,-187500.02235174447,-187500.02235174447,-187500.02235174447,-187500.02235174447
$SILENCE,1351.3641180234097,-10749.915033568745,6761.2909390081095,9700.344169180891,-187500.02235174447,-187500.02235174447,-187500.02235174447,-187500.02235174447
$SILENCE,1410.8197582745265,-10718.35437039785,6988.38466267403,9697.572552868432,-187500.02235174447,-187500.02235174447,-187500.02235174447,-187500.02235174447
$SILENCE,1239.2701195800448,-10740.996687531077,6608.561469144996,9746.992259859117,-187500.02235174447,-187500.02235174447,-187500.02235174447,-187500.02235174447
$SILENCE,1128.0031356815261,-10787.644778209304,6259.851903897751,9748.132198826337,-187500.02235174447,-187500.02235174447,-187500.02235174447,-187500.02235174447
$SILENCE,1318.8199780964826,-10772.020908835044,6659.098763358446,9696.879648790318,-187500.02235174447,-187500.02235174447,-187500.02235174447,-187500.02235174447
$SILENCE,1425.8848340374034,-10723.674085578214,6996.274828466753,9693.01279699955,-187500.02235174447,-187500.02235174447,-187500.02235174447,-187500.02235174447
$SILENCE,1277.648064809807,-10736.571042128926,6694.302760875555,9741.292565023014,-187500.02235174447,-187500.02235174447,-187500.02235174447,-187500.02235174447
$SILENCE,1124.1586356352134,-10779.464039738661,6271.38540403669,9764.02428913406,-187500.02235174447,-187500.02235174447,-187500.02235174447,-187500.02235174447
$SILENCE,1266.9639309601703,-10769.606920433871,6559.72290751015,9707.16145123976,-187500.02235174447,-187500.02235174447,-187500.02235174447,-187500.02235174447
$SILENCE,1416.385342643898,-10725.126948967809,6980.986235259323,9677.433631114201,-187500.02235174447,-187500.02235174447,-187500.02235174447,-187500.02235174447
$SILENCE,1305.2971727010217,-10731.050161248466,6772.757383913682,9713.241125731603,-187500.02235174447,-187500.02235174447,-187500.02235174447,-187500.02235174447
$SILENCE,1133.076981672881,-10770.344528000895,6305.740035264496,9757.005841375094,-187500.02235174447,-187500.02235174447,-187500.02235174447,-187500.02235174447
$SILENCE,1238.5995672463855,-10781.27453103954,6467.454906398643,9718.247916489592,-187500.02235174447,-187500.02235174447,-187500.02235174447,-187500.02235174447
$SILENCE,1419.8722147789258,-10742.047219520477,6954.767639013248,9680.048785215473,-187500.02235174447,-187500.02235174447,-187500.02235174447,-187500.02235174447
$SILENCE,1346.223216798689,-10726.512757124037,6858.655137855428,9713.464643176156,-187500.02235174447,-187500.02235174447,-187500.02235174447,-187500.02235174447
$SILENCE,1159.5414471079646,-10769.539865200504,6374.002262831004,9756.044716363516,-187500.02235174447,-187500.02235174447,-187500.02235174447,-187500.02235174447
$SILENCE,1197.2488400040675,-10788.583551476426,6382.205353046103,9730.899003851295,-187500.02235174447,-187500.02235174447,-187500.02235174447,-187500.02235174447
$SILENCE,1406.125891938912,-10738.247422963075,6899.514126719729,9679.713509048643,-187500.02235174447,-187500.02235174447,-187500.02235174447,-187500.02235174447
$SILENCE,1375.2581328461329,-10720.790710543479,6906.733740178793,9690.554105109466,-187500.02235174447,-187500.02235174447,-187500.02235174447,-187500.02235174447
$SILENCE,1185.9835607985926,-10756.665260394248,6436.877719983783,9749.696820938208,-187500.02235174447,-187500.02235174447,-187500.02235174447,-187500.02235174447
$SILENCE,1184.5083456645425,-10788.918827643256,6325.118997707248,9745.338230769425,-187500.02235174447,-187500.02235174447,-187500.02235174447,-187500.02235174447
$SILENCE,1397.9451534682696,-10754.228920248619,6838.873844012481,9683.110974205849,-187500.02235174447,-187500.02235174447,-187500.02235174447,-187500.02235174447
$SILENCE,1407.3552378839538,-10729.038504247488,6962.0990111945885,9686.575494596422,-187500.02235174447,-187500.02235174447,-187500.02235174447,-187500.02235174447
$SILENCE,1217.6559826917628,-10753.893644081789,6524.943593137693,9733.625916674842,-187500.02235174447,-187500.02235174447,-187500.02235174447,-187500.02235174447
$SILENCE,1147.4715051020987,-10788.985882876621,6272.659453470642,9730.094341050904,-187500.02235174447,-187500.02235174447,-187500.02235174447,-187500.02235174447
$SILENCE,1356.8179436705045,-10762.789638375001,6743.141322510401,9672.449192100668,-187500.02235174447,-187500.02235174447,-187500.02235174447,-187500.02235174447
$SILENCE,1428.3658776719426,-10723.338809411385,6992.631494120538,9674.684366546198,-187500.02235174447,-187500.02235174447,-187500.02235174447,-187500.02235174447
$SILENCE,1263.521762314053,-10745.265870722042,6623.604193163418,9731.189576529214,-187500.02235174447,-187500.02235174447,-187500.02235174447,-187500.02235174447
$SILENCE,1146.9350632351714,-10790.774022433046,6269.6866714580865,9749.40624826029,-187500.02235174447,-187500.02235174447,-187500.02235174447,-187500.02235174447
$SILENCE,1330.6216991688848,-10773.89845536929,6658.964652891714,9692.498706877079,-187500.02235174447,-187500.02235174447,-187500.02235174447,-187500.02235174447
$SILENCE,1442.3133662120542,-10734.067646749932,7006.981314060845,9672.493895589578,-187500.02235174447,-187500.02235174447,-187500.02235174447,-187500.02235174447
$SILENCE,1294.7695010625723,-10745.847016077878,6708.585525582496,9707.072044261939,-187500.02235174447,-187500.02235174447,-187500.02235174447,-187500.02235174447
$SILENCE,1140.1177811763027,-10786.661301453269,6278.806183195852,9741.06904757846,-187500.02235174447,-187500.02235174447,-187500.02235174447,-187500.02235174447
$SILENCE,1289.1145097153794,-10783.688519440713,6557.0183464310585,9705.529773894523,-187500.02235174447,-187500.02235174447,-187500.02235174447,-187500.02235174447
$SILENCE,1447.610729647962,-10737.755684585058,6998.889982568024,9671.82334325592,-187500.02235174447,-187500.02235174447,-187500.02235174447,-187500.02235174447
$SILENCE,1330.353478235421,-10735.721675839624,6797.992503403724,9698.846602302385,-187500.02235174447,-187500.02235174447,-187500.02235174447,-187500.02235174447
$SILENCE,1148.3432231358556,-10775.641891436802,6317.005314469971,9738.967983599661,-187500.02235174447,-187500.02235174447,-187500.02235174447,-187500.02235174447
$SILENCE,1247.7637824730614,-10786.817763664456,6456.189627193168,9704.613352371854,-187500.02235174447,-187500.02235174447,-187500.02235174447,-187500.02235174447
$SILENCE,1446.1131627694563,-10743.678896865715,6956.667537291949,9667.777677509508,-187500.02235174447,-187500.02235174447,-187500.02235174447,-187500.02235174447
$SILENCE,1379.8625922039262,-10738.247422963075,6870.546265905651,9701.059425003461,-187500.02235174447,-187500.02235174447,-187500.02235174447,-187500.02235174447
$SILENCE,1178.6074851283415,-10777.407679248772,6374.270483764468,9738.230376032636,-187500.02235174447,-187500.02235174447,-187500.02235174447,-187500.02235174447
$SILENCE,1210.90575586626,-10797.725414958646,6373.7563936419965,9704.859221560862,-187500.02235174447,-187500.02235174447,-187500.02235174447,-187500.02235174447
$SILENCE,1427.2259387047218,-10750.429123691216,6912.098158848066,9665.810723997442,-187500.02235174447,-187500.02235174447,-187500.02235174447,-187500.02235174447
$SILENCE,1403.9130692378367,-10722.400036144261,6946.229272631321,9686.910770763252,-187500.02235174447,-187500.02235174447,-187500.02235174447,-187500.02235174447
$SILENCE,1210.5481279549751,-10761.403830218773,6466.382022664789,9734.765855642063,-187500.02235174447,-187500.02235174447,-187500.02235174447,-187500.02235174447
$SILENCE,1193.0690637909252,-10795.937275402222,6322.146215694692,9722.20417525818,-187500.02235174447,-187500.02235174447,-187500.02235174447,-187500.02235174447
$SILENCE,1409.903336751859,-10762.834341863912,6839.365582390497,9669.364651365835,-187500.02235174447,-187500.02235174447,-187500.02235174447,-187500.02235174447
$SILENCE,1429.1034852389678,-10735.229937461609,6985.210714961376,9672.650357800765,-187500.02235174447,-187500.02235174447,-187500.02235174447,-187500.02235174447
$SILENCE,1239.873616680338,-10762.432010463717,6548.703497493684,9713.241125731603,-187500.02235174447,-187500.02235174447,-187500.02235174447,-187500.02235174447
$SILENCE,1160.5472756084532,-10802.620446994359,6278.3815000512,9720.63955314631,-187500.02235174447,-187500.02235174447,-187500.02235174447,-187500.02235174447
$SILENCE,1365.3786617968872,-10771.953853601677,6743.498950421686,9666.257758886548,-187500.02235174447,-187500.02235174447,-187500.02235174447,-187500.02235174447
$SILENCE,1440.1675987443446,-10728.07737923591,7001.080453524644,9664.15669490775,-187500.02235174447,-187500.02235174447,-187500.02235174447,-187500.02235174447
$SILENCE,1280.3302741444438,-10749.445646935183,6638.803379393027,9719.164338012259,-187500.02235174447,-187500.02235174447,-187500.02235174447,-187500.02235174447
$SILENCE,1156.680423817685,-10798.865353925867,6273.352357548757,9736.26342252057,-187500.02235174447,-187500.02235174447,-187500.02235174447,-187500.02235174447
$SILENCE,1335.2708620155886,-10785.476658997139,6650.98508012117,9672.359785122846,-187500.02235174447,-187500.02235174447,-187500.02235174447,-187500.02235174447
$SILENCE,1463.7486891446936,-10736.280469451007,7020.548822945217,9655.551273292456,-187500.02235174447,-187500.02235174447,-187500.02235174447,-187500.02235174447
$SILENCE,1321.1892630087452,-10747.433989934205,6737.352220696476,9699.226581958126,-187500.02235174447,-187500.02235174447,-187500.02235174447,-187500.02235174447
$SILENCE,1150.980728981582,-10791.8469061669,6285.802279210363,9727.45683520518,-187500.02235174447,-187500.02235174447,-187500.02235174447,-187500.02235174447
$SILENCE,1290.96970450517,-10788.494144498605,6546.445971303699,9687.804840541463,-187500.02235174447,-187500.02235174447,-187500.02235174447,-187500.02235174447
$SILENCE,1461.2005902767887,-10740.616707875337,6995.447813921906,9661.698003017666,-187500.02235174447,-187500.02235174447,-187500.02235174447,-187500.02235174447
$SILENCE,1353.9792721246806,-10741.22020497563,6811.53766054364,9692.901038277274,-187500.02235174447,-187500.02235174447,-187500.02235174447,-187500.02235174447
$SILENCE,1165.777583810995,-10788.203571820686,6330.237547187513,9729.960230584173,-187500.02235174447,-187500.02235174447,-187500.02235174447,-187500.02235174447
$SILENCE,1249.3954598182988,-10799.513554515072,6456.837827782372,9694.219791200137,-187500.02235174447,-187500.02235174447,-187500.02235174447,-187500.02235174447
$SILENCE,1442.3133662120542,-10751.502007425071,6961.316700138653,9650.231558112093,-187500.02235174447,-187500.02235174447,-187500.02235174447,-187500.02235174447
$SILENCE,1382.32128409401,-10737.353353184862,6891.847478371558,9679.534695093,-187500.02235174447,-187500.02235174447,-187500.02235174447,-187500.02235174447
$SILENCE,1195.6395144032854,-10778.793487405,6409.31801907039,9730.295506751003,-187500.02235174447,-187500.02235174447,-187500.02235174447,-187500.02235174447
$SILENCE,1219.4217705037322,-10805.570877262458,6376.796230887918,9701.34999768138,-187500.02235174447,-187500.02235174447,-187500.02235174447,-187500.02235174447
$SILENCE,1428.768209072138,-10760.487408696104,6895.714330162326,9641.402619052245,-187500.02235174447,-187500.02235174447,-187500.02235174447,-187500.02235174447
$SILENCE,1409.188080929289,-10735.766379328536,6945.312851108653,9654.6795552587,-187500.02235174447,-187500.02235174447,-187500.02235174447,-187500.02235174447
$SILENCE,1222.2827937940115,-10766.812952376957,6480.910656560738,9705.418015172245,-187500.02235174447,-187500.02235174447,-187500.02235174447,-187500.02235174447
$SILENCE,1194.2090027581457,-10801.972246405156,6308.288134132402,9699.673616847233,-187500.02235174447,-187500.02235174447,-187500.02235174447,-187500.02235174447
$SILENCE,1411.0209239746243,-10767.617615177347,6817.572631546573,9645.895319687763,-187500.02235174447,-187500.02235174447,-187500.02235174447,-187500.02235174447
$SILENCE,1435.898415553381,-10736.12400723982,6985.054252750189,9649.96333717863,-187500.02235174447,-187500.02235174447,-187500.02235174447,-187500.02235174447
$SILENCE,1246.869712694849,-10764.93540584271,6569.311805881478,9698.645436602288,-187500.02235174447,-187500.02235174447,-187500.02235174447,-187500.02235174447
$SILENCE,1159.787316296973,-10801.99459814961,6277.152154106159,9700.366520925347,-187500.02235174447,-187500.02235174447,-187500.02235174447,-187500.02235174447
$SILENCE,1369.6701967323063,-10779.665205438758,6736.659316618361,9641.112046374326,-187500.02235174447,-187500.02235174447,-187500.02235174447,-187500.02235174447
$SILENCE,1461.0888315545121,-10743.947117799178,7023.365142746586,9629.824415424397,-187500.02235174447,-187500.02235174447,-187500.02235174447,-187500.02235174447
$SILENCE,1296.8929167858264,-10764.957757587166,6666.206618095233,9674.550256079467,-187500.02235174447,-187500.02235174447,-187500.02235174447,-187500.02235174447
$SILENCE,1166.5822466113862,-10808.275438341552,6282.002482652961,9695.695006334186,-187500.02235174447,-187500.02235174447,-187500.02235174447,-187500.02235174447
$SILENCE,1345.6644231873065,-10792.919789900756,6642.2455480391445,9645.984726665583,-187500.02235174447,-187500.02235174447,-187500.02235174447,-187500.02235174447
$SILENCE,1474.5222299721515,-10747.881024823311,7016.3913984765295,9622.671857198698,-187500.02235174447,-187500.02235174447,-187500.02235174447,-187500.02235174447
$SILENCE,1332.5886526809518,-10757.045240049987,6746.650546389884,9655.90890120374,-187500.02235174447,-187500.02235174447,-187500.02235174447,-187500.02235174447
$SILENCE,1162.0224907425036,-10797.747766703102,6300.129747406215,9676.62896831381,-187500.02235174447,-187500.02235174447,-187500.02235174447,-187500.02235174447
$SILENCE,1291.7967190500165,-10794.573818990448,6540.433352045221,9632.28310731448,-187500.02235174447,-187500.02235174447,-187500.02235174447,-187500.02235174447
$SILENCE,1464.0839653115231,-10751.300841724973,7009.261191995286,9608.992589592051,-187500.02235174447,-187500.02235174447,-187500.02235174447,-187500.02235174447
$SILENCE,1372.3971095558536,-10755.994708060589,6843.92533825938,9638.496892273057,-187500.02235174447,-187500.02235174447,-187500.02235174447,-187500.02235174447
$SILENCE,1181.781432840995,-10802.173412105252,6341.838102559817,9668.559988565445,-187500.02235174447,-187500.02235174447,-187500.02235174447,-187500.02235174447
$SILENCE,1253.5305325425306,-10810.108281386887,6435.89424322775,9633.445398026157,-187500.02235174447,-187500.02235174447,-187500.02235174447,-187500.02235174447
$SILENCE,1455.769116374149,-10760.666222651747,6960.959072227368,9604.388130234258,-187500.02235174447,-187500.02235174447,-187500.02235174447,-187500.02235174447
$SILENCE,1410.1492059408672,-10748.350411456873,6910.2653158027315,9628.595069479356,-187500.02235174447,-187500.02235174447,-187500.02235174447,-187500.02235174447
