WORD,Channel_1,Channel_2,Channel_3,Channel_4,Channel_5,Channel_6,Channel_7,Channel_8
$SILENCE,228.39012484432757,-10470.16059996612,6142.237024573926,9927.639058546909,-187500.02235174447,-187500.02235174447,-187500.02235174447,-187500.02235174447
$SILENCE,71.99496889054404,-10490.165411253622,5796.589648317057,9959.333832184533,-187500.02235174447,-187500.02235174447,-187500.02235174447,-187500.02235174447
$SILENCE,15.400351929706567,-10518.350961011764,5567.394860672339,9962.954814786293,-187500.02235174447,-187500.02235174447,-187500.02235174447,-187500.02235174447
$SILENCE,181.89849637728886,-10496.580361912294,5934.3434493951145,9925.537994568109,-187500.02235174447,-187500.02235174447,-187500.02235174447,-187500.02235174447
$SILENCE,252.30649141150613,-10468.394812154153,6160.051364904805,9919.525375309631,-187500.02235174447,-187500.02235174447,-187500.02235174447,-187500.02235174447
$SILENCE,119.89475725826708,-10483.728108850493,5872.049137598174,9951.264852436168,-187500.02235174447,-187500.02235174447,-187500.02235174447,-187500.02235174447
$SILENCE,0.5140901224720624,-10516.585173199794,5561.762221069601,9964.787657831628,-187500.02235174447,-187500.02235174447,-187500.02235174447,-187500.02235174447
$SILENCE,150.13666750629753,-10505.051673060856,5853.3407274890815,9929.024866703137,-187500.02235174447,-187500.02235174447,-187500.02235174447,-187500.02235174447
$SILENCE,258.8332007924558,-10470.473524388495,6162.5547602838,9915.993799685693,-187500.02235174447,-187500.02235174447,-187500.02235174447,-187500.02235174447
$SILENCE,147.58856863839253,-10478.02841401439,5950.74962982531,9944.447570377299,-187500.02235174447,-187500.02235174447,-187500.02235174447,-187500.02235174447
$SILENCE,13.433398417639545,-10512.785376642392,5586.684416137268,9960.272605451657,-187500.02235174447,-187500.02235174447,-187500.02235174447,-187500.02235174447
$SILENCE,121.48173111459388,-10514.864088876735,5768.784078214655,9929.15897716987,-187500.02235174447,-187500.02235174447,-187500.02235174447,-187500.02235174447
$SILENCE,258.2073519477072,-10480.688271604571,6133.184568069526,9906.337846081,-187500.02235174447,-187500.02235174447,-187500.02235174447,-187500.02235174447
$SILENCE,178.54573470899282,-10480.21888497101,6009.691179953955,9931.751779526685,-187500.02235174447,-187500.02235174447,-187500.02235174447,-187500.02235174447
$SILENCE,28.632584647248347,-10512.159527797643,5627.386942790383,9961.16667522987,-187500.02235174447,-187500.02235174447,-187500.02235174447,-187500.02235174447
$SILENCE,88.19998362064167,-10516.875745877713,5703.964019294264,9942.97235524325,-187500.02235174447,-187500.02235174447,-187500.02235174447,-187500.02235174447
$SILENCE,250.2948344105285,-10482.431707672085,6097.846460085686,9913.15512813987,-187500.02235174447,-187500.02235174447,-187500.02235174447,-187500.02235174447
$SILENCE,213.59327001491428,-10475.904998291135,6061.01078522334,9925.985029457215,-187500.02235174447,-187500.02235174447,-187500.02235174447,-187500.02235174447
$SILENCE,53.823000648379406,-10505.208135272043,5685.300312674083,9952.024811747648,-187500.02235174447,-187500.02235174447,-187500.02235174447,-187500.02235174447
$SILENCE,69.64803572273681,-10520.56378371284,5654.49960881467,9944.939308755316,-187500.02235174447,-187500.02235174447,-187500.02235174447,-187500.02235174447
$SILENCE,237.44258134872692,-10492.221771743509,6042.615299536622,9912.462224061755,-187500.02235174447,-187500.02235174447,-187500.02235174447,-187500.02235174447
$SILENCE,237.53198832654815,-10478.274283203398,6078.6239598541215,9920.710017765763,-187500.02235174447,-187500.02235174447,-187500.02235174447,-187500.02235174447
$SILENCE,86.30008534194057,-10500.715434636526,5741.626708701457,9950.191968702313,-187500.02235174447,-187500.02235174447,-187500.02235174447,-187500.02235174447
$SILENCE,67.47991651057202,-10519.468548234528,5653.426725080815,9941.184215686824,-187500.02235174447,-187500.02235174447,-187500.02235174447,-187500.02235174447
$SILENCE,223.94212769772147,-10494.568704911317,6008.573592731189,9908.81888971554,-187500.02235174447,-187500.02235174447,-187500.02235174447,-187500.02235174447
$SILENCE,236.90613948179956,-10480.822382071303,6079.8533057991635,9913.736273495708,-187500.02235174447,-187500.02235174447,-187500.02235174447,-187500.02235174447
$SILENCE,102.8850797277784,-10500.380158469696,5777.367148085493,9945.766323300162,-187500.02235174447,-187500.02235174447,-187500.02235174447,-187500.02235174447
$SILENCE,61.55670422991565,-10524.117711081233,5630.315021314028,9947.845035534507,-187500.02235174447,-187500.02235174447,-187500.02235174447,-187500.02235174447
$SILENCE,204.54081351051494,-10498.0779287908,5961.411411930491,9918.92187820934,-187500.02235174447,-187500.02235174447,-187500.02235174447,-187500.02235174447
$SILENCE,237.3978778598163,-10474.027451756889,6108.709407890965,9921.782901499619,-187500.02235174447,-187500.02235174447,-187500.02235174447,-187500.02235174447
$SILENCE,118.10661770184252,-10492.735861865982,5841.58370990559,9946.056895978081,-187500.02235174447,-187500.02235174447,-187500.02235174447,-187500.02235174447
$SILENCE,45.28463426645211,-10519.826176145814,5619.20620431974,9949.342602413011,-187500.02235174447,-187500.02235174447,-187500.02235174447,-187500.02235174447
$SILENCE,181.56322021045926,-10506.169260283621,5893.506812275268,9919.123043909436,-187500.02235174447,-187500.02235174447,-187500.02235174447,-187500.02235174447
$SILENCE,248.50669485410393,-10477.894303547657,6113.358570737669,9913.468052562244,-187500.02235174447,-187500.02235174447,-187500.02235174447,-187500.02235174447
$SILENCE,140.8383418128898,-10490.143059509166,5900.279390845227,9938.01026797417,-187500.02235174447,-187500.02235174447,-187500.02235174447,-187500.02235174447
$SILENCE,37.14859928472034,-10516.629876688705,5623.721256699712,9953.097695481503,-187500.02235174447,-187500.02235174447,-187500.02235174447,-187500.02235174447
$SILENCE,136.25623419955184,-10507.756234139948,5825.468102153314,9926.275602135134,-187500.02235174447,-187500.02235174447,-187500.02235174447,-187500.02235174447
$SILENCE,244.37162212987212,-10479.011890770424,6111.190451525504,9912.417520572844,-187500.02235174447,-187500.02235174447,-187500.02235174447,-187500.02235174447
$SILENCE,167.50397294807112,-10485.248027473453,5959.042127018229,9930.030695203626,-187500.02235174447,-187500.02235174447,-187500.02235174447,-187500.02235174447
$SILENCE,53.53242797046042,-10513.299466764864,5655.974823948721,9950.907224524883,-187500.02235174447,-187500.02235174447,-187500.02235174447,-187500.02235174447
$SILENCE,115.69262930066935,-10513.120652809223,5758.56933099858,9933.897546994394,-187500.02235174447,-187500.02235174447,-187500.02235174447,-187500.02235174447
$SILENCE,243.54460758502574,-10485.35978619573,6088.056396014261,9912.462224061755,-187500.02235174447,-187500.02235174447,-187500.02235174447,-187500.02235174447
$SILENCE,191.57680172643683,-10479.861257059725,6022.744598715854,9926.72263702424,-187500.02235174447,-187500.02235174447,-187500.02235174447,-187500.02235174447
$SILENCE,53.35361401481796,-10506.906867850646,5682.573399850536,9952.337736170022,-187500.02235174447,-187500.02235174447,-187500.02235174447,-187500.02235174447
$SILENCE,86.07656789738749,-10514.506460965451,5698.4878419027145,9942.748837798696,-187500.02235174447,-187500.02235174447,-187500.02235174447,-187500.02235174447
$SILENCE,224.56797654247006,-10487.974940297001,6038.077895412194,9916.194965385792,-187500.02235174447,-187500.02235174447,-187500.02235174447,-187500.02235174447
$SILENCE,209.9052321797886,-10477.022585513902,6064.430602125001,9920.911183465862,-187500.02235174447,-187500.02235174447,-187500.02235174447,-187500.02235174447
$SILENCE,77.13587011526468,-10499.709606136037,5743.727772680256,9948.046201234603,-187500.02235174447,-187500.02235174447,-187500.02235174447,-187500.02235174447
$SILENCE,61.51200074100504,-10517.076911577811,5642.966108675731,9945.92278551135,-187500.02235174447,-187500.02235174447,-187500.02235174447,-187500.02235174447
$SILENCE,208.27355483455122,-10490.947722309556,5996.213078047404,9916.083206663514,-187500.02235174447,-187500.02235174447,-187500.02235174447,-187500.02235174447
$SILENCE,232.81577024647837,-10474.116858734711,6106.92126833454,9917.58077354202,-187500.02235174447,-187500.02235174447,-187500.02235174447,-187500.02235174447
$SILENCE,101.9463064606555,-10493.272303732909,5812.884070024976,9946.861558778472,-187500.02235174447,-187500.02235174447,-187500.02235174447,-187500.02235174447
$SILENCE,37.126247540265034,-10517.255725533454,5618.245079308162,9952.516550125665,-187500.02235174447,-187500.02235174447,-187500.02235174447,-187500.02235174447
$SILENCE,184.91598187875533,-10498.346149724264,5930.610708071078,9916.53024155262,-187500.02235174447,-187500.02235174447,-187500.02235174447,-187500.02235174447
$SILENCE,247.7914390315341,-10474.608597112727,6121.159329552571,9909.936476938305,-187500.02235174447,-187500.02235174447,-187500.02235174447,-187500.02235174447
$SILENCE,132.27762368650718,-10490.03130078689,5871.78091666471,9937.786750529618,-187500.02235174447,-187500.02235174447,-187500.02235174447,-187500.02235174447
$SILENCE,43.60825343230408,-10515.646399932672,5615.004076362143,9949.610823346475,-187500.02235174447,-187500.02235174447,-187500.02235174447,-187500.02235174447
$SILENCE,160.32906297791757,-10504.448175960562,5867.019995095729,9923.168709655847,-187500.02235174447,-187500.02235174447,-187500.02235174447,-187500.02235174447
$SILENCE,249.62428207686926,-10474.966225024013,6119.684114418521,9910.227049616224,-187500.02235174447,-187500.02235174447,-187500.02235174447,-187500.02235174447
$SILENCE,156.52926642051537,-10483.21401872802,5924.396923112503,9935.216299917258,-187500.02235174447,-187500.02235174447,-187500.02235174447,-187500.02235174447
$SILENCE,44.77054414398005,-10513.679446420605,5631.097332369964,9952.069515236559,-187500.02235174447,-187500.02235174447,-187500.02235174447,-187500.02235174447
$SILENCE,144.79460058147916,-10509.36555974073,5810.514785112713,9926.72263702424,-187500.02235174447,-187500.02235174447,-187500.02235174447,-187500.02235174447
$SILENCE,255.90512226881057,-10480.017719270912,6108.7317596354205,9908.081282148514,-187500.02235174447,-187500.02235174447,-187500.02235174447,-187500.02235174447
$SILENCE,168.9791880821214,-10484.778640839892,5977.795240616231,9926.700285279785,-187500.02235174447,-187500.02235174447,-187500.02235174447,-187500.02235174447
$SILENCE,40.45665746410578,-10511.310161508341,5661.2721873846285,9950.124913468948,-187500.02235174447,-187500.02235174447,-187500.02235174447,-187500.02235174447
$SILENCE,105.45553034013872,-10510.997237085967,5750.410944272393,9931.572965571042,-187500.02235174447,-187500.02235174447,-187500.02235174447,-187500.02235174447
$SILENCE,240.63888080583584,-10479.50362914844,6085.329483190713,9909.623552515932,-187500.02235174447,-187500.02235174447,-187500.02235174447,-187500.02235174447
$SILENCE,194.88485990582228,-10477.536675636373,6022.789302204765,9925.873270734939,-187500.02235174447,-187500.02235174447,-187500.02235174447,-187500.02235174447
$SILENCE,63.23308506406368,-10504.22465851601,5705.573344895047,9948.895567523905,-187500.02235174447,-187500.02235174447,-187500.02235174447,-187500.02235174447
$SILENCE,94.19025113466397,-10516.629876688705,5705.618048383957,9934.25517490568,-187500.02235174447,-187500.02235174447,-187500.02235174447,-187500.02235174447
$SILENCE,225.23852887612927,-10489.517210664417,6037.38499133408,9907.835412959506,-187500.02235174447,-187500.02235174447,-187500.02235174447,-187500.02235174447
$SILENCE,210.82165370245622,-10477.871951803203,6068.655081827054,9918.698360764785,-187500.02235174447,-187500.02235174447,-187500.02235174447,-187500.02235174447
$SILENCE,65.46825950959439,-10502.503574192951,5730.808464385088,9948.225015190246,-187500.02235174447,-187500.02235174447,-187500.02235174447,-187500.02235174447
$SILENCE,55.90171288272296,-10518.999161600967,5646.698849999768,9946.034544233626,-187500.02235174447,-187500.02235174447,-187500.02235174447,-187500.02235174447
$SILENCE,207.44654028970484,-10493.831097344291,5995.3860635025585,9913.177479884325,-187500.02235174447,-187500.02235174447,-187500.02235174447,-187500.02235174447
$SILENCE,228.90421496679963,-10475.659129102127,6095.052492028773,9918.497195064689,-187500.02235174447,-187500.02235174447,-187500.02235174447,-187500.02235174447
$SILENCE,100.78401574897954,-10495.46277468953,5808.346665900549,9942.748837798696,-187500.02235174447,-187500.02235174447,-187500.02235174447,-187500.02235174447
$SILENCE,43.16121854319794,-10520.049693590367,5632.617250992925,9944.559329099577,-187500.02235174447,-187500.02235174447,-187500.02235174447,-187500.02235174447
$SILENCE,185.31831327895085,-10499.441385202574,5939.0373157307295,9912.931610695316,-187500.02235174447,-187500.02235174447,-187500.02235174447,-187500.02235174447
$SILENCE,236.23558714814035,-10474.250969201443,6110.229326513926,9909.936476938305,-187500.02235174447,-187500.02235174447,-187500.02235174447,-187500.02235174447
$SILENCE,119.85005376935646,-10488.377271697196,5865.880056128509,9938.077323207537,-187500.02235174447,-187500.02235174447,-187500.02235174447,-187500.02235174447
$SILENCE,35.51692193948292,-10514.729978410003,5621.307268298539,9943.575852343542,-187500.02235174447,-187500.02235174447,-187500.02235174447,-187500.02235174447
$SILENCE,159.68086238871365,-10505.811632372337,5868.405803251959,9914.049197918082,-187500.02235174447,-187500.02235174447,-187500.02235174447,-187500.02235174447
$SILENCE,242.22585466216265,-10478.520152392406,6112.039817814805,9904.706168735764,-187500.02235174447,-187500.02235174447,-187500.02235174447,-187500.02235174447
$SILENCE,148.1473622497752,-10486.678539118593,5921.513548077768,9929.941288225806,-187500.02235174447,-187500.02235174447,-187500.02235174447,-187500.02235174447
$SILENCE,40.70252665311416,-10513.388873742686,5636.238233594684,9948.739105312718,-187500.02235174447,-187500.02235174447,-187500.02235174447,-187500.02235174447
$SILENCE,132.5234928755156,-10507.778585884404,5812.10175896904,9922.364046855457,-187500.02235174447,-187500.02235174447,-187500.02235174447,-187500.02235174447
$SILENCE,242.24820640661795,-10478.050765758844,6113.000942826384,9907.589543770498,-187500.02235174447,-187500.02235174447,-187500.02235174447,-187500.02235174447
$SILENCE,168.04041481499848,-10483.012853027923,5983.204362774416,9926.834395746517,-187500.02235174447,-187500.02235174447,-187500.02235174447,-187500.02235174447
$SILENCE,49.3750035017733,-10512.561859197838,5665.02728045312,9944.984012244227,-187500.02235174447,-187500.02235174447,-187500.02235174447,-187500.02235174447
$SILENCE,114.2621176555297,-10515.51228946594,5746.141761081429,9925.873270734939,-187500.02235174447,-187500.02235174447,-187500.02235174447,-187500.02235174447
$SILENCE,240.72828778365707,-10483.392832683663,6080.702672088465,9904.080319891014,-187500.02235174447,-187500.02235174447,-187500.02235174447,-187500.02235174447
$SILENCE,187.75465342457932,-10478.766021581414,6026.276174339792,9920.397093343388,-187500.02235174447,-187500.02235174447,-187500.02235174447,-187500.02235174447
$SILENCE,53.26420703699673,-10506.12455679471,5703.964019294264,9944.805198288585,-187500.02235174447,-187500.02235174447,-187500.02235174447,-187500.02235174447
$SILENCE,78.96871316059985,-10519.312086023341,5693.637513355913,9930.857709748472,-187500.02235174447,-187500.02235174447,-187500.02235174447,-187500.02235174447
$SILENCE,226.71374401017954,-10490.9253705651,6043.531721059289,9901.219296600735,-187500.02235174447,-187500.02235174447,-187500.02235174447,-187500.02235174447
$SILENCE,206.77598795604564,-10478.296634947854,6067.515142859834,9916.86551771945,-187500.02235174447,-187500.02235174447,-187500.02235174447,-187500.02235174447
$SILENCE,76.21944859259709,-10500.357806725242,5760.960967655297,9948.49323612371,-187500.02235174447,-187500.02235174447,-187500.02235174447,-187500.02235174447
$SILENCE,62.29431179694078,-10518.820347645325,5657.472390827226,9939.306669152578,-187500.02235174447,-187500.02235174447,-187500.02235174447,-187500.02235174447
$SILENCE,207.11126412287524,-10494.993388055967,5993.75438615732,9908.930648437816,-187500.02235174447,-187500.02235174447,-187500.02235174447,-187500.02235174447
$SILENCE,222.57867128594773,-10475.457963402028,6095.946561806984,9914.540936296098,-187500.02235174447,-187500.02235174447,-187500.02235174447,-187500.02235174447
$SILENCE,95.73252150208015,-10497.072100290312,5815.0074857482305,9943.709962810275,-187500.02235174447,-187500.02235174447,-187500.02235174447,-187500.02235174447
$SILENCE,40.63547141974824,-10518.485071478495,5646.967070933231,9937.92086099635,-187500.02235174447,-187500.02235174447,-187500.02235174447,-187500.02235174447
$SILENCE,161.1113740338533,-10496.870934590213,5923.435798100924,9915.658523518863,-187500.02235174447,-187500.02235174447,-187500.02235174447,-187500.02235174447
$SILENCE,221.01404917407623,-10477.737841336471,6104.551983422278,9919.01128518716,-187500.02235174447,-187500.02235174447,-187500.02235174447,-187500.02235174447
$SILENCE,117.70428630164699,-10495.082795033788,5866.528256717713,9938.569061585553,-187500.02235174447,-187500.02235174447,-187500.02235174447,-187500.02235174447
$SILENCE,40.65782316420355,-10522.240164546987,5625.844672422966,9951.06368673607,-187500.02235174447,-187500.02235174447,-187500.02235174447,-187500.02235174447
$SILENCE,162.25131300107398,-10509.253801018454,5869.813963152643,9924.599221300987,-187500.02235174447,-187500.02235174447,-187500.02235174447,-187500.02235174447
$SILENCE,241.97998547315427,-10478.631911114682,6122.321620264247,9917.603125286476,-187500.02235174447,-187500.02235174447,-187500.02235174447,-187500.02235174447
$SILENCE,141.39713542427248,-10487.796126341358,5937.69621106341,9940.87129126445,-187500.02235174447,-187500.02235174447,-187500.02235174447,-187500.02235174447
$SILENCE,30.59953815931537,-10518.663885434138,5644.128399387408,9956.472808894254,-187500.02235174447,-187500.02235174447,-187500.02235174447,-187500.02235174447
$SILENCE,116.43023686769449,-10514.37235049872,5800.456500107825,9929.91893648135,-187500.02235174447,-187500.02235174447,-187500.02235174447,-187500.02235174447
$SILENCE,224.41151433128292,-10481.448230916052,6104.753149122375,9918.966581698249,-187500.02235174447,-187500.02235174447,-187500.02235174447,-187500.02235174447
$SILENCE,151.6118826403478,-10482.83403907228,5984.791336630743,9934.501044094688,-187500.02235174447,-187500.02235174447,-187500.02235174447,-187500.02235174447
$SILENCE,29.794875358924315,-10510.438443474584,5668.6706147993345,9956.763381572173,-187500.02235174447,-187500.02235174447,-187500.02235174447,-187500.02235174447
$SILENCE,88.49055629856066,-10516.98750459999,5738.206891799795,9936.088017951015,-187500.02235174447,-187500.02235174447,-187500.02235174447,-187500.02235174447
$SILENCE,222.7574852415902,-10485.449193173552,6075.24884644137,9912.953962439771,-187500.02235174447,-187500.02235174447,-187500.02235174447,-187500.02235174447
$SILENCE,172.68957766170237,-10478.698966348049,6029.6065842636335,9931.841186504505,-187500.02235174447,-187500.02235174447,-187500.02235174447,-187500.02235174447
$SILENCE,38.35559348530692,-10505.36459748323,5708.479071674236,9953.276509437146,-187500.02235174447,-187500.02235174447,-187500.02235174447,-187500.02235174447
$SILENCE,58.181590817164285,-10519.446196490073,5685.590885352002,9941.2959744091,-187500.02235174447,-187500.02235174447,-187500.02235174447,-187500.02235174447
$SILENCE,201.03158963103172,-10490.321873464809,6034.635726766077,9914.92091595184,-187500.02235174447,-187500.02235174447,-187500.02235174447,-187500.02235174447
$SILENCE,189.6098482143698,-10477.26845470291,6071.6949190729765,9926.588526557509,-187500.02235174447,-187500.02235174447,-187500.02235174447,-187500.02235174447
$SILENCE,62.78605017495754,-10501.900077092658,5763.754935712211,9954.729372826741,-187500.02235174447,-187500.02235174447,-187500.02235174447,-187500.02235174447
$SILENCE,41.66365166469237,-10522.195461058076,5644.910710443343,9947.040372734114,-187500.02235174447,-187500.02235174447,-187500.02235174447,-187500.02235174447
$SILENCE,183.75369116707935,-10498.256742746442,5975.3141969816925,9913.512756051154,-187500.02235174447,-187500.02235174447,-187500.02235174447,-187500.02235174447
$SILENCE,203.26676407656242,-10480.017719270912,6089.822183826231,9919.72654100973,-187500.02235174447,-187500.02235174447,-187500.02235174447,-187500.02235174447
$SILENCE,83.41671030720596,-10498.480260190996,5816.080369482085,9946.503930867188,-187500.02235174447,-187500.02235174447,-187500.02235174447,-187500.02235174447
$SILENCE,27.40323870220646,-10521.79312965788,5629.465655024726,9952.985936759227,-187500.02235174447,-187500.02235174447,-187500.02235174447,-187500.02235174447
$SILENCE,163.07832754592033,-10501.36363522573,5926.922670235953,9923.414578844855,-187500.02235174447,-187500.02235174447,-187500.02235174447,-187500.02235174447
$SILENCE,218.10832239488633,-10474.78741106837,6120.444073730001,9917.021979930638,-187500.02235174447,-187500.02235174447,-187500.02235174447,-187500.02235174447
$SILENCE,106.46135884062754,-10489.159582753133,5883.046195870184,9936.691515051309,-187500.02235174447,-187500.02235174447,-187500.02235174447,-187500.02235174447
$SILENCE,13.522805395460773,-10517.054559833356,5627.364591045927,9951.086038480526,-187500.02235174447,-187500.02235174447,-187500.02235174447,-187500.02235174447
$SILENCE,133.01523125353233,-10508.024455073411,5856.693489157377,9919.771244498641,-187500.02235174447,-187500.02235174447,-187500.02235174447,-187500.02235174447
$SILENCE,233.95570921369904,-10482.610521627728,6115.414931227557,9907.47778504822,-187500.02235174447,-187500.02235174447,-187500.02235174447,-187500.02235174447
$SILENCE,137.46322840013843,-10490.858315331736,5937.986783741329,9926.968506213248,-187500.02235174447,-187500.02235174447,-187500.02235174447,-187500.02235174447
$SILENCE,26.71033462409194,-10517.881574378202,5645.111876143441,9948.806160546084,-187500.02235174447,-187500.02235174447,-187500.02235174447,-187500.02235174447
$SILENCE,103.89090822826722,-10514.685274921094,5794.779157016177,9929.114273680958,-187500.02235174447,-187500.02235174447,-187500.02235174447,-187500.02235174447
$SILENCE,222.57867128594773,-10484.130440250688,6104.35081772218,9911.165822883348,-187500.02235174447,-187500.02235174447,-187500.02235174447,-187500.02235174447
$SILENCE,162.22896125661867,-10486.298559462854,5993.486165223857,9928.823701003039,-187500.02235174447,-187500.02235174447,-187500.02235174447,-187500.02235174447
$SILENCE,42.15539004270912,-10514.014722587433,5678.594789337491,9947.621518089953,-187500.02235174447,-187500.02235174447,-187500.02235174447,-187500.02235174447
$SILENCE,98.48178607008292,-10522.329571524808,5733.267156275172,9927.549651569087,-187500.02235174447,-187500.02235174447,-187500.02235174447,-187500.02235174447
$SILENCE,225.12677015385273,-10488.533733908384,6071.8737330286185,9904.974389669227,-187500.02235174447,-187500.02235174447,-187500.02235174447,-187500.02235174447
$SILENCE,180.91501962125537,-10479.995367526457,6039.217834379415,9918.698360764785,-187500.02235174447,-187500.02235174447,-187500.02235174447,-187500.02235174447
$SILENCE,50.3137767688962,-10506.862164361735,5722.001877069697,9943.35233489899,-187500.02235174447,-187500.02235174447,-187500.02235174447,-187500.02235174447
$SILENCE,63.411899019706134,-10523.827138403314,5682.752213806179,9933.092884194004,-187500.02235174447,-187500.02235174447,-187500.02235174447,-187500.02235174447
$SILENCE,206.26189783357358,-10496.535658423383,6029.025438907795,9905.86845944744,-187500.02235174447,-187500.02235174447,-187500.02235174447,-187500.02235174447
$SILENCE,198.61760122985856,-10480.375347182196,6076.4558406419565,9916.753758997174,-187500.02235174447,-187500.02235174447,-187500.02235174447,-187500.02235174447
$SILENCE,67.43521302166141,-10502.168298026121,5777.56831378559,9942.480616865232,-187500.02235174447,-187500.02235174447,-187500.02235174447,-187500.02235174447
$SILENCE,33.8628928497902,-10520.22850754601,5650.655108768357,9937.92086099635,-187500.02235174447,-187500.02235174447,-187500.02235174447,-187500.02235174447
$SILENCE,178.12105156434197,-10497.854411346247,5976.677653393466,9908.52831703762,-187500.02235174447,-187500.02235174447,-187500.02235174447,-187500.02235174447
$SILENCE,217.1024938943975,-10479.101297748244,6102.562678165756,9909.914125193849,-187500.02235174447,-187500.02235174447,-187500.02235174447,-187500.02235174447
$SILENCE,95.53135580198239,-10498.45790844654,5832.888881312476,9935.77509352864,-187500.02235174447,-187500.02235174447,-187500.02235174447,-187500.02235174447
$SILENCE,28.587881158337733,-10524.005952358955,5626.314059056528,9937.809102274074,-187500.02235174447,-187500.02235174447,-187500.02235174447,-187500.02235174447
$SILENCE,163.36890022383932,-10506.392777728173,5908.415425826958,9904.90733443586,-187500.02235174447,-187500.02235174447,-187500.02235174447,-187500.02235174447
$SILENCE,224.76914224256782,-10479.078946003789,6116.465463216957,9906.360197825456,-187500.02235174447,-187500.02235174447,-187500.02235174447,-187500.02235174447
$SILENCE,116.25142291205204,-10491.081832776288,5896.770166965744,9932.511738838166,-187500.02235174447,-187500.02235174447,-187500.02235174447,-187500.02235174447
$SILENCE,23.06700027787689,-10519.446196490073,5634.9194806718215,9942.525320354143,-187500.02235174447,-187500.02235174447,-187500.02235174447,-187500.02235174447
$SILENCE,125.23682418308547,-10509.387911485186,5848.400991964459,9912.86455546195,-187500.02235174447,-187500.02235174447,-187500.02235174447,-187500.02235174447
$SILENCE,220.2764416070511,-10479.816553570814,6117.515995206356,9904.19207861329,-187500.02235174447,-187500.02235174447,-187500.02235174447,-187500.02235174447
$SILENCE,132.9034725312558,-10487.572608896806,5951.196664714416,9926.253250390679,-187500.02235174447,-187500.02235174447,-187500.02235174447,-187500.02235174447
$SILENCE,19.87070082076798,-10514.618219687727,5648.196416878273,9942.97235524325,-187500.02235174447,-187500.02235174447,-187500.02235174447,-187500.02235174447
$SILENCE,100.09111167086503,-10514.349998754264,5778.104755652518,9918.273677620135,-187500.02235174447,-187500.02235174447,-187500.02235174447,-187500.02235174447
$SILENCE,222.60102303040304,-10484.845696073258,6095.566582151245,9902.001607656672,-187500.02235174447,-187500.02235174447,-187500.02235174447,-187500.02235174447
$SILENCE,160.61963565583656,-10486.969111796512,6002.873897895086,9919.123043909436,-187500.02235174447,-187500.02235174447,-187500.02235174447,-187500.02235174447
$SILENCE,31.04657304842151,-10514.394702243175,5685.054443485074,9940.11133195297,-187500.02235174447,-187500.02235174447,-187500.02235174447,-187500.02235174447
$SILENCE,69.6033322338262,-10520.31791452383,5722.828891614544,9923.235764889212,-187500.02235174447,-187500.02235174447,-187500.02235174447,-187500.02235174447
$SILENCE,208.27355483455122,-10490.053652531346,6066.598721337166,9898.447680288278,-187500.02235174447,-187500.02235174447,-187500.02235174447,-187500.02235174447
$SILENCE,181.58557195491457,-10481.649396616149,6050.237244395882,9915.412654329855,-187500.02235174447,-187500.02235174447,-187500.02235174447,-187500.02235174447
$SILENCE,53.86770413729002,-10506.213963772532,5734.027115586653,9943.307631410078,-187500.02235174447,-187500.02235174447,-187500.02235174447,-187500.02235174447
$SILENCE,47.810381389901806,-10520.876708135213,5675.197324180284,9931.796483015596,-187500.02235174447,-187500.02235174447,-187500.02235174447,-187500.02235174447
$SILENCE,192.29205754900667,-10492.579399654795,6022.342267315658,9905.935514680805,-187500.02235174447,-187500.02235174447,-187500.02235174447,-187500.02235174447
$SILENCE,192.22500231564075,-10477.536675636373,6083.094308745183,9913.669218262341,-187500.02235174447,-187500.02235174447,-187500.02235174447,-187500.02235174447
$SILENCE,62.003739119021795,-10501.631856159194,5787.760709257211,9938.591413330008,-187500.02235174447,-187500.02235174447,-187500.02235174447,-187500.02235174447
$SILENCE,30.465427692583525,-10522.351923269263,5643.97193717622,9933.025828960637,-187500.02235174447,-187500.02235174447,-187500.02235174447,-187500.02235174447
$SILENCE,178.03164458652074,-10499.217867758021,5968.8545428341085,9905.689645491797,-187500.02235174447,-187500.02235174447,-187500.02235174447,-187500.02235174447
$SILENCE,209.41349380177186,-10477.626082614193,6114.856137616174,9910.271753105135,-187500.02235174447,-187500.02235174447,-187500.02235174447,-187500.02235174447
$SILENCE,83.14848937374228,-10494.591056655772,5848.423343708914,9934.031657461126,-187500.02235174447,-187500.02235174447,-187500.02235174447,-187500.02235174447
$SILENCE,13.478101906550158,-10516.898097622168,5627.833977679489,9942.480616865232,-187500.02235174447,-187500.02235174447,-187500.02235174447,-187500.02235174447
$SILENCE,144.3028622034624,-10503.107071293243,5899.720597233844,9912.506927550665,-187500.02235174447,-187500.02235174447,-187500.02235174447,-187500.02235174447
$SILENCE,206.79833970050095,-10478.967187281512,6113.515032948856,9902.068662890037,-187500.02235174447,-187500.02235174447,-187500.02235174447,-187500.02235174447
$SILENCE,100.82871923789016,-10490.143059509166,5905.062664158662,9928.689590536307,-187500.02235174447,-187500.02235174447,-187500.02235174447,-187500.02235174447
$SILENCE,13.098122250809938,-10519.066216834333,5636.439399294782,9942.055933720581,-187500.02235174447,-187500.02235174447,-187500.02235174447,-187500.02235174447
$SILENCE,123.38162939329499,-10512.383045242197,5835.660497624934,9914.38447408491,-187500.02235174447,-187500.02235174447,-187500.02235174447,-187500.02235174447
$SILENCE,226.73609575463485,-10480.867085560214,6114.677323660532,9901.44281404529,-187500.02235174447,-187500.02235174447,-187500.02235174447,-187500.02235174447
$SILENCE,150.31548146194,-10488.578437397295,5958.505685151302,9920.553555554576,-187500.02235174447,-187500.02235174447,-187500.02235174447,-187500.02235174447
$SILENCE,34.891073094734324,-10519.647362190171,5650.275129112617,9937.138549940413,-187500.02235174447,-187500.02235174447,-187500.02235174447,-187500.02235174447
$SILENCE,104.36029486182868,-10521.770777913425,5766.817124702588,9914.63034327392,-187500.02235174447,-187500.02235174447,-187500.02235174447,-187500.02235174447
$SILENCE,232.16756965727447,-10491.685329876582,6094.851326328675,9896.883058176405,-187500.02235174447,-187500.02235174447,-187500.02235174447,-187500.02235174447
$SILENCE,169.9626648381549,-10484.823344328803,6014.47445326739,9917.67018051984,-187500.02235174447,-187500.02235174447,-187500.02235174447,-187500.02235174447
$SILENCE,31.80653235990195,-10510.12551905221,5694.084548245019,9943.44174187681,-187500.02235174447,-187500.02235174447,-187500.02235174447,-187500.02235174447
$SILENCE,66.96582638809996,-10518.730940667503,5712.234164742728,9928.644887047398,-187500.02235174447,-187500.02235174447,-187500.02235174447,-187500.02235174447
$SILENCE,205.88191817783334,-10487.773774596903,6058.038003210784,9905.399072813878,-187500.02235174447,-187500.02235174447,-187500.02235174447,-187500.02235174447
$SILENCE,172.24254277259624,-10478.520152392406,6057.121581688116,9918.765415998152,-187500.02235174447,-187500.02235174447,-187500.02235174447,-187500.02235174447
$SILENCE,38.310889996396305,-10502.347111981764,5742.029040101653,9944.358163399478,-187500.02235174447,-187500.02235174447,-187500.02235174447,-187500.02235174447
$SILENCE,38.08737255184324,-10521.949591869068,5669.4305741108155,9937.876157507439,-187500.02235174447,-187500.02235174447,-187500.02235174447,-187500.02235174447
$SILENCE,185.4971272345933,-10494.635760144683,6016.933145157474,9910.003532171671,-187500.02235174447,-187500.02235174447,-187500.02235174447,-187500.02235174447
$SILENCE,189.45338600318266,-10478.967187281512,6087.452898913968,9912.752796739675,-187500.02235174447,-187500.02235174447,-187500.02235174447,-187500.02235174447
$SILENCE,59.07566059537657,-10500.424861958607,5789.459441835814,9935.261003406167,-187500.02235174447,-187500.02235174447,-187500.02235174447,-187500.02235174447
$SILENCE,14.819206573868582,-10520.474376735017,5637.691096984279,9939.954869741783,-187500.02235174447,-187500.02235174447,-187500.02235174447,-187500.02235174447
$SILENCE,157.02100479853212,-10499.9778270695,5956.270510705771,9910.048235660583,-187500.02235174447,-187500.02235174447,-187500.02235174447,-187500.02235174447
$SILENCE,197.56706924045912,-10476.776716324892,6113.82795737123,9906.449604803278,-187500.02235174447,-187500.02235174447,-187500.02235174447,-187500.02235174447
$SILENCE,81.6509224952367,-10493.36171071073,5857.364041491037,9934.881023750428,-187500.02235174447,-187500.02235174447,-187500.02235174447,-187500.02235174447
$SILENCE,8.560718126382605,-10520.139100568187,5628.795102691067,9942.927651754339,-187500.02235174447,-187500.02235174447,-187500.02235174447,-187500.02235174447
$SILENCE,141.35243193536186,-10509.142042296176,5887.360082550059,9913.266886862146,-187500.02235174447,-187500.02235174447,-187500.02235174447,-187500.02235174447
$SILENCE,209.77112171305677,-10481.738803593971,6110.7881201253085,9902.895677434883,-187500.02235174447,-187500.02235174447,-187500.02235174447,-187500.02235174447
$SILENCE,104.91908847321135,-10487.55025715235,5906.314361848159,9930.589488815009,-187500.02235174447,-187500.02235174447,-187500.02235174447,-187500.02235174447
$SILENCE,5.252659946997159,-10516.272248777419,5632.483140526193,9948.046201234603,-187500.02235174447,-187500.02235174447,-187500.02235174447,-187500.02235174447
$SILENCE,106.41665535171693,-10510.17022254112,5821.7577125737325,9918.899526464884,-187500.02235174447,-187500.02235174447,-187500.02235174447,-187500.02235174447
$SILENCE,212.25216534759588,-10479.056594259333,6113.44797771549,9904.795575713584,-187500.02235174447,-187500.02235174447,-187500.02235174447,-187500.02235174447
$SILENCE,134.95983302114405,-10484.622178628704,5970.03918529024,9926.00738120167,-187500.02235174447,-187500.02235174447,-187500.02235174447,-187500.02235174447
$SILENCE,15.400351929706567,-10514.640571432183,5655.974823948721,9942.413561631867,-187500.02235174447,-187500.02235174447,-187500.02235174447,-187500.02235174447
$SILENCE,79.16987886069762,-10517.300429022363,5752.914339651387,9919.659485776363,-187500.02235174447,-187500.02235174447,-187500.02235174447,-187500.02235174447
$SILENCE,211.4698542916601,-10490.50068742045,6082.781384322809,9895.653712231364,-187500.02235174447,-187500.02235174447,-187500.02235174447,-187500.02235174447
$SILENCE,158.4962199325824,-10484.286902461876,6018.676581224988,9914.719750251741,-187500.02235174447,-187500.02235174447,-187500.02235174447,-187500.02235174447
$SILENCE,28.051439291410365,-10507.443309717573,5703.718150105256,9946.749800056195,-187500.02235174447,-187500.02235174447,-187500.02235174447,-187500.02235174447
talvez,63.14367808624245,-10522.240164546987,5706.266248973161,9932.243517904702,-187500.02235174447,-187500.02235174447,-187500.02235174447,-187500.02235174447
talvez,206.10543562238644,-10491.46181243203,6051.310128129737,9904.616761757941,-187500.02235174447,-187500.02235174447,-187500.02235174447,-187500.02235174447
talvez,180.78090915452353,-10479.794201826358,6061.4801718569015,9916.262020619157,-187500.02235174447,-187500.02235174447,-187500.02235174447,-187500.02235174447
talvez,51.47606748057216,-10507.622123673216,5742.967813368776,9940.06662846406,-187500.02235174447,-187500.02235174447,-187500.02235174447,-187500.02235174447
talvez,42.55772144290465,-10525.347057026274,5653.963166947743,9936.311535395567,-187500.02235174447,-187500.02235174447,-187500.02235174447,-187500.02235174447
talvez,182.68080743322463,-10496.401547956651,5996.5036507253235,9907.47778504822,-187500.02235174447,-187500.02235174447,-187500.02235174447,-187500.02235174447
talvez,192.7614441825681,-10478.542504136862,6088.235209969904,9914.362122340455,-187500.02235174447,-187500.02235174447,-187500.02235174447,-187500.02235174447
talvez,62.271960052485476,-10500.31310323633,5804.233944920772,9942.704134309786,-187500.02235174447,-187500.02235174447,-187500.02235174447,-187500.02235174447
talvez,14.193357729119985,-10523.737731425492,5637.177006861807,9942.63707907642,-187500.02235174447,-187500.02235174447,-187500.02235174447,-187500.02235174447
talvez,155.54578966448184,-10500.22369625851,5944.6699553334665,9911.031712416616,-187500.02235174447,-187500.02235174447,-187500.02235174447,-187500.02235174447
talvez,207.35713331188362,-10479.54833263735,6116.756035894876,9909.712959493752,-187500.02235174447,-187500.02235174447,-187500.02235174447,-187500.02235174447
talvez,90.81513772191259,-10497.206210757044,5868.137582318495,9936.512701095666,-187500.02235174447,-187500.02235174447,-187500.02235174447,-187500.02235174447
talvez,10.930003038645154,-10523.067179091833,5618.580355474992,9944.604032588486,-187500.02235174447,-187500.02235174447,-187500.02235174447,-187500.02235174447
talvez,131.54001611948206,-10507.242144017477,5867.019995095729,9913.95979094026,-187500.02235174447,-187500.02235174447,-187500.02235174447,-187500.02235174447
talvez,210.57578451344784,-10480.196533226554,6110.16227128056,9906.024921658627,-187500.02235174447,-187500.02235174447,-187500.02235174447,-187500.02235174447
talvez,109.59060306437053,-10490.165411253622,5917.445530586902,9926.879099235428,-187500.02235174447,-187500.02235174447,-187500.02235174447,-187500.02235174447
talvez,4.827976802346326,-10519.490899978984,5638.629870251402,9940.960698242272,-187500.02235174447,-187500.02235174447,-187500.02235174447,-187500.02235174447
talvez,103.510928572527,-10519.1332720677,5816.616811349012,9914.116253151447,-187500.02235174447,-187500.02235174447,-187500.02235174447,-187500.02235174447
talvez,209.860528690878,-10494.12167002221,6114.118530049149,9893.731462208207,-187500.02235174447,-187500.02235174447,-187500.02235174447,-187500.02235174447
talvez,140.39130692378367,-10490.657149631637,5983.986673830352,9912.752796739675,-187500.02235174447,-187500.02235174447,-187500.02235174447,-187500.02235174447
talvez,27.135017768742774,-10516.98750459999,5664.513190330647,9933.025828960637,-187500.02235174447,-187500.02235174447,-187500.02235174447,-187500.02235174447
talvez,82.07560563988753,-10520.74259766848,5748.846322160522,9916.10555840797,-187500.02235174447,-187500.02235174447,-187500.02235174447,-187500.02235174447
talvez,203.26676407656242,-10489.874838575703,6093.733739105909,9893.083261619004,-187500.02235174447,-187500.02235174447,-187500.02235174447,-187500.02235174447
talvez,160.88785658930024,-10488.779603097391,6037.9437849454625,9904.01326465765,-187500.02235174447,-187500.02235174447,-187500.02235174447,-187500.02235174447
talvez,41.10485805330969,-10517.009856344444,5714.3352287215275,9927.706113780274,-187500.02235174447,-187500.02235174447,-187500.02235174447,-187500.02235174447
talvez,47.85508487881242,-10526.375237271219,5702.444100671304,9914.540936296098,-187500.02235174447,-187500.02235174447,-187500.02235174447,-187500.02235174447
talvez,195.37659828383903,-10498.390853213174,6054.953462475952,9886.444793515777,-187500.02235174447,-187500.02235174447,-187500.02235174447,-187500.02235174447
talvez,182.79256615550116,-10488.69019611957,6075.6288260971105,9896.681892476308,-187500.02235174447,-187500.02235174447,-187500.02235174447,-187500.02235174447
talvez,47.34099475634036,-10510.326684752308,5767.152400869418,9923.638096289409,-187500.02235174447,-187500.02235174447,-187500.02235174447,-187500.02235174447
talvez,31.158331770698044,-10528.476301250017,5661.316890873539,9917.603125286476,-187500.02235174447,-187500.02235174447,-187500.02235174447,-187500.02235174447
talvez,175.3717869963392,-10504.895210849669,6001.108110083117,9885.751889437663,-187500.02235174447,-187500.02235174447,-187500.02235174447,-187500.02235174447
talvez,191.06271160396477,-10487.907885063636,6102.607381654666,9890.490459262188,-187500.02235174447,-187500.02235174447,-187500.02235174447,-187500.02235174447
talvez,63.03191936396592,-10510.349036496764,5816.527404371191,9913.982142684716,-187500.02235174447,-187500.02235174447,-187500.02235174447,-187500.02235174447
talvez,9.343029182318352,-10531.493786751484,5637.981669662198,9921.15705265487,-187500.02235174447,-187500.02235174447,-187500.02235174447,-187500.02235174447
talvez,155.16581000874163,-10511.354864997253,5938.769094797265,9891.33982555149,-187500.02235174447,-187500.02235174447,-187500.02235174447,-187500.02235174447
talvez,205.65840073328027,-10493.607579899739,6119.460596973968,9883.181438825302,-187500.02235174447,-187500.02235174447,-187500.02235174447,-187500.02235174447
talvez,84.4895940410607,-10504.470527705018,5882.934437147908,9910.696436249786,-187500.02235174447,-187500.02235174447,-187500.02235174447,-187500.02235174447
talvez,7.353723925796023,-10530.555013484362,5632.013753892631,9921.224107888236,-187500.02235174447,-187500.02235174447,-187500.02235174447,-187500.02235174447
talvez,127.15907420624188,-10519.043865089878,5866.058870084152,9889.931665650805,-187500.02235174447,-187500.02235174447,-187500.02235174447,-187500.02235174447
talvez,221.5281392965483,-10486.700890863049,6125.204995298982,9883.784935925596,-187500.02235174447,-187500.02235174447,-187500.02235174447,-187500.02235174447
talvez,121.8617107703341,-10498.03322530189,5942.300670421204,9904.90733443586,-187500.02235174447,-187500.02235174447,-187500.02235174447,-187500.02235174447
talvez,6.660819847681505,-10529.415074517141,5646.184759877296,9918.273677620135,-187500.02235174447,-187500.02235174447,-187500.02235174447,-187500.02235174447
talvez,106.61782105181469,-10522.106054080255,5817.421474149403,9898.96177041075,-187500.02235174447,-187500.02235174447,-187500.02235174447,-187500.02235174447
talvez,219.3600200843835,-10489.986597297979,6130.100027334694,9884.05315685906,-187500.02235174447,-187500.02235174447,-187500.02235174447,-187500.02235174447
talvez,130.1095044743424,-10501.497745692463,6000.638723449555,9897.643017487886,-187500.02235174447,-187500.02235174447,-187500.02235174447,-187500.02235174447
talvez,8.337200681829534,-10536.500577509472,5672.939797990299,9909.444738560289,-187500.02235174447,-187500.02235174447,-187500.02235174447,-187500.02235174447
talvez,66.65290196572566,-10533.952478641568,5743.459551746792,9898.782956455107,-187500.02235174447,-187500.02235174447,-187500.02235174447,-187500.02235174447
talvez,189.5651447254592,-10497.429728201596,6098.271143230337,9881.058023102049,-187500.02235174447,-187500.02235174447,-187500.02235174447,-187500.02235174447
talvez,153.24355998558522,-10488.489030419472,6058.954424733452,9892.636226729897,-187500.02235174447,-187500.02235174447,-187500.02235174447,-187500.02235174447
talvez,58.98625361755534,-10480.040071015366,5772.740336983245,9946.660393078375,-187500.02235174447,-187500.02235174447,-187500.02235174447,-187500.02235174447
talvez,86.7024167421361,-10516.65222843316,5728.394475983915,9919.525375309631,-187500.02235174447,-187500.02235174447,-187500.02235174447,-187500.02235174447
talvez,195.5777639839368,-10538.489882765994,6032.936994187474,9853.163046021826,-187500.02235174447,-187500.02235174447,-187500.02235174447,-187500.02235174447
talvez,192.13559533781952,-10498.703777635548,6097.913515319052,9883.472011503221,-187500.02235174447,-187500.02235174447,-187500.02235174447,-187500.02235174447
talvez,68.6869107111586,-10506.348074239264,5822.6964858408555,9922.744026511196,-187500.02235174447,-187500.02235174447,-187500.02235174447,-187500.02235174447
talvez,60.97555887407767,-10493.607579899739,5728.394475983915,9942.502968609688,-187500.02235174447,-187500.02235174447,-187500.02235174447,-187500.02235174447
talvez,156.41750769823884,-10502.414167215129,6044.448142581957,9892.72563370772,-187500.02235174447,-187500.02235174447,-187500.02235174447,-187500.02235174447
talvez,164.59824616888122,-10510.952533597057,6105.714274133954,9888.881133661405,-187500.02235174447,-187500.02235174447,-187500.02235174447,-187500.02235174447
talvez,24.676325878658997,-10511.421920230618,5793.996845960241,9893.351482552467,-187500.02235174447,-187500.02235174447,-187500.02235174447,-187500.02235174447
talvez,28.07379103586567,-10480.509457648928,5641.535597030592,9923.906317222873,-187500.02235174447,-187500.02235174447,-187500.02235174447,-187500.02235174447
talvez,156.77513560952374,-10477.715489592016,5946.636908845533,9872.206732297747,-187500.02235174447,-187500.02235174447,-187500.02235174447,-187500.02235174447
talvez,202.28328732052893,-10512.785376642392,6166.488667307934,9855.241758256168,-187500.02235174447,-187500.02235174447,-187500.02235174447,-187500.02235174447
talvez,95.73252150208015,-10498.815536357824,5895.07143438714,9918.20662238677,-187500.02235174447,-187500.02235174447,-187500.02235174447,-187500.02235174447
talvez,34.220520761075115,-10449.127608433677,5684.450946384782,9967.268701466168,-187500.02235174447,-187500.02235174447,-187500.02235174447,-187500.02235174447
talvez,57.712204183602836,-10579.684147797127,5772.963854427798,9849.206787253235,-187500.02235174447,-187500.02235174447,-187500.02235174447,-187500.02235174447
talvez,102.5498035609488,-10606.819165565868,6002.650380450533,9799.496507584632,-187500.02235174447,-187500.02235174447,-187500.02235174447,-187500.02235174447
talvez,117.14549269026432,-10520.854356390759,6012.127520099583,9930.745951026196,-187500.02235174447,-187500.02235174447,-187500.02235174447,-187500.02235174447
talvez,5.900860536201065,-10569.335290114319,5692.408167410871,9925.58269805702,-187500.02235174447,-187500.02235174447,-187500.02235174447,-187500.02235174447
talvez,72.21848633509713,-10597.81141255038,5761.072726377574,9872.519656720122,-187500.02235174447,-187500.02235174447,-187500.02235174447,-187500.02235174447
talvez,213.72738048164612,-10537.662868221149,6102.719140376943,9867.28934851758,-187500.02235174447,-187500.02235174447,-187500.02235174447,-187500.02235174447
talvez,164.26297000205162,-10491.193591498566,6044.358735604136,9927.951982969284,-187500.02235174447,-187500.02235174447,-187500.02235174447,-187500.02235174447
talvez,94.16789939020866,-10475.614425613216,5816.728570071289,10006.808937407606,-187500.02235174447,-187500.02235174447,-187500.02235174447,-187500.02235174447
talvez,63.724823442080435,-10531.85141466277,5734.809426642589,9926.320305624045,-187500.02235174447,-187500.02235174447,-187500.02235174447,-187500.02235174447
talvez,197.67882796273565,-10526.934030882601,6029.673639496999,9848.066848286015,-187500.02235174447,-187500.02235174447,-187500.02235174447,-187500.02235174447
talvez,175.3494352518839,-10554.069048651345,6020.755293459331,9849.43030469779,-187500.02235174447,-187500.02235174447,-187500.02235174447,-187500.02235174447
talvez,30.063096292388,-10595.687996827126,5720.146682279907,9926.230898646225,-187500.02235174447,-187500.02235174447,-187500.02235174447,-187500.02235174447
talvez,58.20394256161959,-10578.857133252279,5708.523775163148,9955.422276904856,-187500.02235174447,-187500.02235174447,-187500.02235174447,-187500.02235174447
talvez,202.08212162043117,-10522.195461058076,6081.999073266873,9891.116308106937,-187500.02235174447,-187500.02235174447,-187500.02235174447,-187500.02235174447
talvez,208.4970722791043,-10492.333530465787,6158.866722448674,9914.093901406992,-187500.02235174447,-187500.02235174447,-187500.02235174447,-187500.02235174447
talvez,96.35837034682875,-10516.518117966429,5861.946149104375,9962.708945597285,-187500.02235174447,-187500.02235174447,-187500.02235174447,-187500.02235174447
talvez,43.22827377656386,-10545.485978780507,5713.776435110144,9966.77696308815,-187500.02235174447,-187500.02235174447,-187500.02235174447,-187500.02235174447
talvez,187.95581912467708,-10525.905850637657,6023.839834194164,9921.738198010707,-187500.02235174447,-187500.02235174447,-187500.02235174447,-187500.02235174447
talvez,211.4698542916601,-10510.326684752308,6174.244722633925,9957.948024028305,-187500.02235174447,-187500.02235174447,-187500.02235174447,-187500.02235174447
talvez,112.9657164771219,-10521.144929068676,5928.979030725841,10008.574725219576,-187500.02235174447,-187500.02235174447,-187500.02235174447,-187500.02235174447
talvez,5.006790757988782,-10544.010763646456,5712.658847887379,10004.238486795246,-187500.02235174447,-187500.02235174447,-187500.02235174447,-187500.02235174447
talvez,127.98608875108825,-10525.771740170925,5984.836040119653,10015.682579956363,-187500.02235174447,-187500.02235174447,-187500.02235174447,-187500.02235174447
talvez,252.1947326892296,-10486.007986784934,6216.891851054651,10001.131594315959,-187500.02235174447,-187500.02235174447,-187500.02235174447,-187500.02235174447
talvez,133.95400452065522,-10505.208135272043,5969.547446912223,10015.995504378738,-187500.02235174447,-187500.02235174447,-187500.02235174447,-187500.02235174447
talvez,17.34495369731828,-10526.934030882601,5704.075778016541,10052.51825481871,-187500.02235174447,-187500.02235174447,-187500.02235174447,-187500.02235174447
talvez,103.510928572527,-10519.043865089878,5913.9139549629635,10025.629106238974,-187500.02235174447,-187500.02235174447,-187500.02235174447,-187500.02235174447
talvez,193.18612732721894,-10494.389890955674,6183.297179138324,10011.79337642114,-187500.02235174447,-187500.02235174447,-187500.02235174447,-187500.02235174447
talvez,116.87727175680062,-10486.991463540968,6039.754276246343,10051.043039684659,-187500.02235174447,-187500.02235174447,-187500.02235174447,-187500.02235174447
talvez,6.414950658673127,-10516.60752494425,5741.961984868287,10083.006034255748,-187500.02235174447,-187500.02235174447,-187500.02235174447,-187500.02235174447
talvez,75.99593114804401,-10518.060388333844,5866.1929805508835,10041.163568635413,-187500.02235174447,-187500.02235174447,-187500.02235174447,-187500.02235174447
talvez,215.49316829361538,-10489.092527519766,6168.7238417534645,9988.145230787424,-187500.02235174447,-187500.02235174447,-187500.02235174447,-187500.02235174447
talvez,170.83438287191188,-10482.275245460898,6100.998056053884,10031.999353408737,-187500.02235174447,-187500.02235174447,-187500.02235174447,-187500.02235174447
talvez,37.48387545154994,-10515.467585977029,5787.559543557113,10053.613490297019,-187500.02235174447,-187500.02235174447,-187500.02235174447,-187500.02235174447
talvez,67.70343395512509,-10529.0350948614,5806.692636810856,10009.64760895343,-187500.02235174447,-187500.02235174447,-187500.02235174447,-187500.02235174447
talvez,158.11624027684215,-10500.715434636526,6148.875492677152,9993.330835501056,-187500.02235174447,-187500.02235174447,-187500.02235174447,-187500.02235174447
talvez,112.94336473266658,-10478.542504136862,6144.963937397473,9996.705948913806,-187500.02235174447,-187500.02235174447,-187500.02235174447,-187500.02235174447
talvez,-18.820168831368548,-10500.760138125437,5827.5691661321125,10037.69904824484,-187500.02235174447,-187500.02235174447,-187500.02235174447,-187500.02235174447
talvez,1.4752151340502662,-10528.073969849822,5749.986261127742,10003.098547828025,-187500.02235174447,-187500.02235174447,-187500.02235174447,-187500.02235174447
talvez,127.31553641742903,-10509.544373696372,6092.459689671957,9953.008288503683,-187500.02235174447,-187500.02235174447,-187500.02235174447,-187500.02235174447
talvez,143.43114416970542,-10482.945797794557,6176.03286219035,9974.868294580972,-187500.02235174447,-187500.02235174447,-187500.02235174447,-187500.02235174447
talvez,19.915404309678593,-10505.588114927783,5853.20661702235,9979.36099521649,-187500.02235174447,-187500.02235174447,-187500.02235174447,-187500.02235174447
talvez,-19.155444998198153,-10524.452987248062,5696.69970234629,9985.999463319715,-187500.02235174447,-187500.02235174447,-187500.02235174447,-187500.02235174447
talvez,87.82000396490145,-10485.046861773357,6025.650325495044,9981.3055969841,-187500.02235174447,-187500.02235174447,-187500.02235174447,-187500.02235174447
talvez,160.3961182112835,-10464.326794663286,6199.569249101788,9994.537829701643,-187500.02235174447,-187500.02235174447,-187500.02235174447,-187500.02235174447
talvez,55.29821578242967,-10487.416146685619,5939.484350619835,9989.3075214991,-187500.02235174447,-187500.02235174447,-187500.02235174447,-187500.02235174447
talvez,-49.30794826840738,-10532.387856529696,5680.271170171639,9972.744878857719,-187500.02235174447,-187500.02235174447,-187500.02235174447,-187500.02235174447
talvez,96.8501087248455,-10499.664902647126,5966.2170369883825,9982.132611528947,-187500.02235174447,-187500.02235174447,-187500.02235174447,-187500.02235174447
talvez,164.08415604640913,-10464.237387685465,6192.6178565761875,9979.45040219431,-187500.02235174447,-187500.02235174447,-187500.02235174447,-187500.02235174447
talvez,43.340032498840394,-10470.272358688399,5979.941008083941,10008.060635097103,-187500.02235174447,-187500.02235174447,-187500.02235174447,-187500.02235174447
talvez,-42.37890748726219,-10496.245085745464,5701.3041617040835,10031.328801075078,-187500.02235174447,-187500.02235174447,-187500.02235174447,-187500.02235174447
talvez,85.67423649719197,-10491.730033365493,5903.274524602238,9988.860486609994,-187500.02235174447,-187500.02235174447,-187500.02235174447,-187500.02235174447
talvez,140.54776913497082,-10477.648434358649,6175.831696490252,9958.730335084241,-187500.02235174447,-187500.02235174447,-187500.02235174447,-187500.02235174447
talvez,70.20682933411949,-10486.186800740577,6023.951592916441,9988.301692998612,-187500.02235174447,-187500.02235174447,-187500.02235174447,-187500.02235174447
talvez,-27.98438405804444,-10513.679446420605,5716.659810144879,9988.50285869871,-187500.02235174447,-187500.02235174447,-187500.02235174447,-187500.02235174447
talvez,18.976631042555695,-10489.852486831247,5819.00844800573,9972.54371315762,-187500.02235174447,-187500.02235174447,-187500.02235174447,-187500.02235174447
talvez,146.76155409354618,-10448.68057354457,6143.734591452431,9951.331907669533,-187500.02235174447,-187500.02235174447,-187500.02235174447,-187500.02235174447
talvez,102.77332100550187,-10446.199529910033,6088.704596603465,10004.93139087336,-187500.02235174447,-187500.02235174447,-187500.02235174447,-187500.02235174447
talvez,-43.116515054287326,-10475.860294802225,5774.260255606206,10022.499862015231,-187500.02235174447,-187500.02235174447,-187500.02235174447,-187500.02235174447
talvez,-0.9834767560335107,-10501.095414292266,5787.671302279389,9997.041225080637,-187500.02235174447,-187500.02235174447,-187500.02235174447,-187500.02235174447
talvez,142.80529532495683,-10510.773719641415,6117.158367295071,9943.642907576908,-187500.02235174447,-187500.02235174447,-187500.02235174447,-187500.02235174447
talvez,103.66739078371415,-10510.12551905221,6100.886297331607,9950.750762313695,-187500.02235174447,-187500.02235174447,-187500.02235174447,-187500.02235174447
talvez,-8.381904170740148,-10488.019643785912,5792.119299425995,9996.638893680441,-187500.02235174447,-187500.02235174447,-187500.02235174447,-187500.02235174447
talvez,-35.136942283742705,-10498.03322530189,5715.251650244195,9995.230733779757,-187500.02235174447,-187500.02235174447,-187500.02235174447,-187500.02235174447
talvez,125.86267302783406,-10468.685384832072,6064.989395736385,10006.674826940874,-187500.02235174447,-187500.02235174447,-187500.02235174447,-187500.02235174447
talvez,144.68284185920263,-10443.83024499777,6167.919178953073,9989.352224988012,-187500.02235174447,-187500.02235174447,-187500.02235174447,-187500.02235174447
talvez,1.6987325786033367,-10470.607634855227,5872.898503887475,9982.758460373696,-187500.02235174447,-187500.02235174447,-187500.02235174447,-187500.02235174447
talvez,-50.93962561364479,-10508.69500740707,5692.721091833245,9979.562160916586,-187500.02235174447,-187500.02235174447,-187500.02235174447,-187500.02235174447
talvez,91.1057103998316,-10511.287809763886,6009.668828209499,9924.308648623068,-187500.02235174447,-187500.02235174447,-187500.02235174447,-187500.02235174447
talvez,126.71203931713573,-10473.200437212043,6183.654807049609,9916.843165974995,-187500.02235174447,-187500.02235174447,-187500.02235174447,-187500.02235174447
talvez,35.338107983840466,-10491.774736854404,5899.564135022657,9959.132666484436,-187500.02235174447,-187500.02235174447,-187500.02235174447,-187500.02235174447
talvez,-55.23116054906375,-10514.88644062119,5642.004983664154,9961.569006630065,-187500.02235174447,-187500.02235174447,-187500.02235174447,-187500.02235174447
talvez,53.06304133689897,-10477.849600058747,5960.56204564119,9980.098602783513,-187500.02235174447,-187500.02235174447,-187500.02235174447,-187500.02235174447
talvez,145.71102210414674,-10469.0206609989,6195.992969988939,9974.465963180777,-187500.02235174447,-187500.02235174447,-187500.02235174447,-187500.02235174447
talvez,59.65680595121455,-10505.901039350158,5964.540656154234,9951.734239069729,-187500.02235174447,-187500.02235174447,-187500.02235174447,-187500.02235174447
talvez,-48.816209890390624,-10510.304333007853,5708.188498996317,10000.483393726754,-187500.02235174447,-187500.02235174447,-187500.02235174447,-187500.02235174447
talvez,55.63349194925928,-10491.55121940985,5930.074266204151,9975.091812025525,-187500.02235174447,-187500.02235174447,-187500.02235174447,-187500.02235174447
talvez,136.47975164410494,-10480.88943730467,6155.8715886916625,9916.127910152425,-187500.02235174447,-187500.02235174447,-187500.02235174447,-187500.02235174447
talvez,50.09025932434313,-10494.345187466764,5991.51921171179,9930.902413237383,-187500.02235174447,-187500.02235174447,-187500.02235174447,-187500.02235174447
talvez,-82.41088180671714,-10544.591909002294,5660.3334141175055,9939.843111019507,-187500.02235174447,-187500.02235174447,-187500.02235174447,-187500.02235174447
talvez,51.81134364740177,-10526.576402971317,5814.649857836946,9960.965509529771,-187500.02235174447,-187500.02235174447,-187500.02235174447,-187500.02235174447
talvez,196.67299946224685,-10464.080925474278,6206.140661971648,9990.156887788402,-187500.02235174447,-187500.02235174447,-187500.02235174447,-187500.02235174447
talvez,125.90737651674469,-10468.037184242867,6128.714219178465,9964.273567709157,-187500.02235174447,-187500.02235174447,-187500.02235174447,-187500.02235174447
talvez,-72.41965203519489,-10559.165246387154,5711.675371131346,9910.718787994241,-187500.02235174447,-187500.02235174447,-187500.02235174447,-187500.02235174447
talvez,-17.747285097513807,-10526.822272160325,5763.844342690032,9961.88193105244,-187500.02235174447,-187500.02235174447,-187500.02235174447,-187500.02235174447
talvez,180.19976379868555,-10450.133436934166,6169.170876642571,9972.253140479701,-187500.02235174447,-187500.02235174447,-187500.02235174447,-187500.02235174447
talvez,70.83267817886808,-10543.921356668634,6114.230288771426,9899.744081466686,-187500.02235174447,-187500.02235174447,-187500.02235174447,-187500.02235174447
talvez,-46.98336684505544,-10531.382028029208,5745.672374447868,9946.235709933724,-187500.02235174447,-187500.02235174447,-187500.02235174447,-187500.02235174447
talvez,-34.8016661169131,-10516.361655755241,5639.099256884963,9965.54761714311,-187500.02235174447,-187500.02235174447,-187500.02235174447,-187500.02235174447
talvez,96.80540523593488,-10548.972850915534,6012.731017199876,9902.3368838235,-187500.02235174447,-187500.02235174447,-187500.02235174447,-187500.02235174447
talvez,149.26494947254056,-10520.31791452383,6159.201998615504,9927.035561446615,-187500.02235174447,-187500.02235174447,-187500.02235174447,-187500.02235174447
talvez,-38.48970395203876,-10563.479133067029,5803.541040842658,9921.022942188138,-187500.02235174447,-187500.02235174447,-187500.02235174447,-187500.02235174447
talvez,-59.88032339576762,-10580.064127452866,5608.991457103665,9932.601145815986,-187500.02235174447,-187500.02235174447,-187500.02235174447,-187500.02235174447
talvez,111.73637053208,-10506.169260283621,5994.46964197989,9943.86642502146,-187500.02235174447,-187500.02235174447,-187500.02235174447,-187500.02235174447
talvez,150.31548146194,-10494.345187466764,6169.908484209595,9931.371799870945,-187500.02235174447,-187500.02235174447,-187500.02235174447,-187500.02235174447
talvez,-19.80364558740206,-10572.352775615786,5870.082184086106,9921.67114277734,-187500.02235174447,-187500.02235174447,-187500.02235174447,-187500.02235174447
talvez,-73.51488751350493,-10595.129203215743,5621.329620042994,9940.334849397523,-187500.02235174447,-187500.02235174447,-187500.02235174447,-187500.02235174447
talvez,76.08533812586523,-10551.56565327235,5926.006248713285,9946.347468656,-187500.02235174447,-187500.02235174447,-187500.02235174447,-187500.02235174447
talvez,171.1920107831968,-10477.402565169641,6184.481821594456,9972.588416646531,-187500.02235174447,-187500.02235174447,-187500.02235174447,-187500.02235174447
talvez,13.813378073379765,-10541.730885712015,5892.098652374584,9915.658523518863,-187500.02235174447,-187500.02235174447,-187500.02235174447,-187500.02235174447
talvez,-84.89192544125622,-10584.66858681066,5614.78055891759,9929.15897716987,-187500.02235174447,-187500.02235174447,-187500.02235174447,-187500.02235174447
talvez,78.8122509494127,-10525.548222726373,5860.537989203691,9968.810971833584,-187500.02235174447,-187500.02235174447,-187500.02235174447,-187500.02235174447
talvez,150.33783320639532,-10533.058408863355,6129.027143600839,9918.050160175582,-187500.02235174447,-187500.02235174447,-187500.02235174447,-187500.02235174447
talvez,73.24666658004125,-10538.176958343622,6019.347133558647,9949.92374776885,-187500.02235174447,-187500.02235174447,-187500.02235174447,-187500.02235174447
talvez,-22.21763398857522,-10545.195406102588,5720.9736968247535,9986.40179471991,-187500.02235174447,-187500.02235174447,-187500.02235174447,-187500.02235174447
talvez,26.24094799053049,-10544.211929346553,5784.43029933337,9954.841131549018,-187500.02235174447,-187500.02235174447,-187500.02235174447,-187500.02235174447
talvez,151.05308902896513,-10514.417053987629,6119.080617318227,9927.3931893579,-187500.02235174447,-187500.02235174447,-187500.02235174447,-187500.02235174447
talvez,105.85786174033424,-10514.439405732084,6101.936829321007,9963.73712584223,-187500.02235174447,-187500.02235174447,-187500.02235174447,-187500.02235174447
talvez,2.548098867905005,-10530.17503382862,5786.017273189696,9989.799259877118,-187500.02235174447,-187500.02235174447,-187500.02235174447,-187500.02235174447
talvez,17.166139741675824,-10547.65409799267,5772.4497643053255,9976.634082392942,-187500.02235174447,-187500.02235174447,-187500.02235174447,-187500.02235174447
talvez,127.69551607316924,-10540.948574656079,6073.550113862767,9931.371799870945,-187500.02235174447,-187500.02235174447,-187500.02235174447,-187500.02235174447
talvez,130.82476029691225,-10495.641588645172,6096.192430995993,9961.501951396698,-187500.02235174447,-187500.02235174447,-187500.02235174447,-187500.02235174447
talvez,6.683171592136811,-10524.31887678133,5814.493395625758,9986.155925530902,-187500.02235174447,-187500.02235174447,-187500.02235174447,-187500.02235174447
talvez,-15.601517629804329,-10541.619126989739,5704.880440816933,9989.396928476921,-187500.02235174447,-187500.02235174447,-187500.02235174447,-187500.02235174447
talvez,99.39820759275051,-10541.619126989739,6033.920470943507,9938.054971463082,-187500.02235174447,-187500.02235174447,-187500.02235174447,-187500.02235174447
talvez,154.62936814181427,-10490.858315331736,6172.188362144037,9954.639965848919,-187500.02235174447,-187500.02235174447,-187500.02235174447,-187500.02235174447
talvez,38.04266906293262,-10510.281981263397,5889.930533162419,9982.177315017858,-187500.02235174447,-187500.02235174447,-187500.02235174447,-187500.02235174447
talvez,-27.69381138012545,-10541.842644434291,5681.567571350047,9978.377518460455,-187500.02235174447,-187500.02235174447,-187500.02235174447,-187500.02235174447
talvez,108.58477456388171,-10532.36550478524,6010.294677054248,9943.642907576908,-187500.02235174447,-187500.02235174447,-187500.02235174447,-187500.02235174447
talvez,172.443708472694,-10506.191612028077,6186.538182084344,9944.82755003304,-187500.02235174447,-187500.02235174447,-187500.02235174447,-187500.02235174447
talvez,45.46344822209456,-10514.282943520897,5931.616536571567,9983.987806318737,-187500.02235174447,-187500.02235174447,-187500.02235174447,-187500.02235174447
talvez,-40.85898886430131,-10540.859167678258,5686.1049754744745,9985.999463319715,-187500.02235174447,-187500.02235174447,-187500.02235174447,-187500.02235174447
talvez,79.23693409406354,-10537.975792643523,5928.576699325646,9947.174483200846,-187500.02235174447,-187500.02235174447,-187500.02235174447,-187500.02235174447
talvez,185.25125804558493,-10504.26936200492,6201.46914738049,9947.129779711937,-187500.02235174447,-187500.02235174447,-187500.02235174447,-187500.02235174447
talvez,111.69166704316939,-10470.0711929883,6007.612467719611,9992.16854478938,-187500.02235174447,-187500.02235174447,-187500.02235174447,-187500.02235174447
talvez,-40.72487839756947,-10530.219737317531,5680.0029492381755,9982.40083246241,-187500.02235174447,-187500.02235174447,-187500.02235174447,-187500.02235174447
talvez,32.767657371480155,-10556.61714751925,5824.551680630646,9929.4942533367,-187500.02235174447,-187500.02235174447,-187500.02235174447,-187500.02235174447
talvez,172.91309510625544,-10485.896228062658,6184.727690783464,9947.956794256783,-187500.02235174447,-187500.02235174447,-187500.02235174447,-187500.02235174447
talvez,99.48761457057174,-10495.976864812,6067.291625415281,9960.16084672938,-187500.02235174447,-187500.02235174447,-187500.02235174447,-187500.02235174447
talvez,-21.345915954818246,-10531.046751862377,5734.854130131499,9976.343509715023,-187500.02235174447,-187500.02235174447,-187500.02235174447,-187500.02235174447
talvez,33.16998877167568,-10534.041885619388,5810.738302557266,9965.189989231825,-187500.02235174447,-187500.02235174447,-187500.02235174447,-187500.02235174447
talvez,175.9752840966325,-10484.108088506233,6187.499307095923,9958.663279850874,-187500.02235174447,-187500.02235174447,-187500.02235174447,-187500.02235174447
talvez,132.12116147532004,-10481.31412044932,6115.146710294093,9958.283300195135,-187500.02235174447,-187500.02235174447,-187500.02235174447,-187500.02235174447
talvez,-8.113683237276463,-10530.219737317531,5774.550828284125,9960.11614324047,-187500.02235174447,-187500.02235174447,-187500.02235174447,-187500.02235174447
talvez,14.260412962485907,-10526.710513438049,5779.177639386373,9970.442649178822,-187500.02235174447,-187500.02235174447,-187500.02235174447,-187500.02235174447
talvez,157.89272283228908,-10502.570629426316,6121.539309208311,9942.659430820875,-187500.02235174447,-187500.02235174447,-187500.02235174447,-187500.02235174447
talvez,145.01811802603223,-10489.78543159788,6151.445943289512,9942.704134309786,-187500.02235174447,-187500.02235174447,-187500.02235174447,-187500.02235174447
talvez,3.911555279678736,-10507.08568180629,5833.6711923684115,9967.179294488347,-187500.02235174447,-187500.02235174447,-187500.02235174447,-187500.02235174447
$SILENCE,-26.64327939072602,-10535.740618197993,5710.133100763929,9957.21041646128,-187500.02235174447,-187500.02235174447,-187500.02235174447,-187500.02235174447
$SILENCE,129.23778644058544,-10507.577420184305,6047.845607739164,9938.233785418724,-187500.02235174447,-187500.02235174447,-187500.02235174447,-187500.02235174447
$SILENCE,143.49819940307134,-10483.795164083858,6184.325359383269,9938.434951118821,-187500.02235174447,-187500.02235174447,-187500.02235174447,-187500.02235174447
$SILENCE,24.609270645293076,-10501.0283590589,5920.753588766288,9970.420297434366,-187500.02235174447,-187500.02235174447,-187500.02235174447,-187500.02235174447
$SILENCE,-33.12528528276507,-10533.75131294147,5684.965036507254,9966.754611343697,-187500.02235174447,-187500.02235174447,-187500.02235174447,-187500.02235174447
$SILENCE,107.82481525240127,-10510.505498707951,5973.883685336553,9932.556442327075,-187500.02235174447,-187500.02235174447,-187500.02235174447,-187500.02235174447
$SILENCE,166.7216618921354,-10463.700945818538,6197.624647334176,9941.58654708702,-187500.02235174447,-187500.02235174447,-187500.02235174447,-187500.02235174447
$SILENCE,47.89978836772303,-10490.45598393154,5966.708775366399,9966.955777043793,-187500.02235174447,-187500.02235174447,-187500.02235174447,-187500.02235174447
$SILENCE,-24.095180522821014,-10510.572553941316,5733.736542908734,9988.636969165442,-187500.02235174447,-187500.02235174447,-187500.02235174447,-187500.02235174447
$SILENCE,62.875457152778765,-10528.722170439027,5927.995553969808,9940.49131160871,-187500.02235174447,-187500.02235174447,-187500.02235174447,-187500.02235174447
$SILENCE,158.76444086604607,-10486.0750420183,6175.429365090056,9938.904337752383,-187500.02235174447,-187500.02235174447,-187500.02235174447,-187500.02235174447
$SILENCE,61.26613155199666,-10494.166373511121,6014.742674200854,9955.712849582775,-187500.02235174447,-187500.02235174447,-187500.02235174447,-187500.02235174447
$SILENCE,-36.52275043997174,-10518.261554033943,5727.433350972337,9978.668091138374,-187500.02235174447,-187500.02235174447,-187500.02235174447,-187500.02235174447
$SILENCE,48.816209890390624,-10523.916545381135,5867.019995095729,9960.764343829673,-187500.02235174447,-187500.02235174447,-187500.02235174447,-187500.02235174447
$SILENCE,164.08415604640913,-10487.013815285423,6165.12521089616,9942.25709942068,-187500.02235174447,-187500.02235174447,-187500.02235174447,-187500.02235174447
$SILENCE,100.87342272680077,-10476.866123302714,6049.05260193975,9941.363029642467,-187500.02235174447,-187500.02235174447,-187500.02235174447,-187500.02235174447
$SILENCE,-17.523767652960736,-10496.848582845758,5737.84926388851,9964.072402009058,-187500.02235174447,-187500.02235174447,-187500.02235174447,-187500.02235174447
$SILENCE,-2.6598575901815407,-10540.166263600144,5769.544037526136,9929.516605081155,-187500.02235174447,-187500.02235174447,-187500.02235174447,-187500.02235174447
$SILENCE,173.18131603971912,-10500.670731147615,6142.795818185308,9927.259078891168,-187500.02235174447,-187500.02235174447,-187500.02235174447,-187500.02235174447
$SILENCE,154.60701639735896,-10488.958417053034,6145.969765897962,9953.120047225959,-187500.02235174447,-187500.02235174447,-187500.02235174447,-187500.02235174447
$SILENCE,-3.7103895795809723,-10511.332513252797,5792.186354659361,9974.667128880874,-187500.02235174447,-187500.02235174447,-187500.02235174447,-187500.02235174447
$SILENCE,-6.794930314413347,-10522.597792458271,5724.505272448692,9956.048125749603,-187500.02235174447,-187500.02235174447,-187500.02235174447,-187500.02235174447
$SILENCE,141.73241159110208,-10496.043920045367,6086.692939602487,9929.673067292342,-187500.02235174447,-187500.02235174447,-187500.02235174447,-187500.02235174447
$SILENCE,169.06859505994262,-10454.290861402853,6175.138792412137,9963.759477586686,-187500.02235174447,-187500.02235174447,-187500.02235174447,-187500.02235174447
$SILENCE,2.7045610790921546,-10498.79318461337,5857.676965913412,9968.565102644576,-187500.02235174447,-187500.02235174447,-187500.02235174447,-187500.02235174447
$SILENCE,-44.055288321410224,-10538.646344977182,5705.953324550787,9963.4018496754,-187500.02235174447,-187500.02235174447,-187500.02235174447,-187500.02235174447
$SILENCE,98.14650990325332,-10515.333475510297,6007.321895041692,9931.975296971237,-187500.02235174447,-187500.02235174447,-187500.02235174447,-187500.02235174447
$SILENCE,125.81796953892345,-10481.448230916052,6163.962920184484,9931.371799870945,-187500.02235174447,-187500.02235174447,-187500.02235174447,-187500.02235174447
$SILENCE,15.892090307723322,-10492.445289188063,5905.017960669752,9963.44655316431,-187500.02235174447,-187500.02235174447,-187500.02235174447,-187500.02235174447
$SILENCE,-47.51980871198282,-10517.523946466918,5692.028187755131,9969.749745100708,-187500.02235174447,-187500.02235174447,-187500.02235174447,-187500.02235174447
$SILENCE,88.98229467657741,-10505.565763183327,5972.631987647055,9939.35137264149,-187500.02235174447,-187500.02235174447,-187500.02235174447,-187500.02235174447
$SILENCE,158.29505423248463,-10475.077983746289,6193.824850776774,9934.881023750428,-187500.02235174447,-187500.02235174447,-187500.02235174447,-187500.02235174447
$SILENCE,48.682099423658784,-10484.689233862071,5959.511513651791,9961.434896163333,-187500.02235174447,-187500.02235174447,-187500.02235174447,-187500.02235174447
$SILENCE,-43.74236389903592,-10512.986542342489,5687.3343214195165,9975.82941959255,-187500.02235174447,-187500.02235174447,-187500.02235174447,-187500.02235174447
$SILENCE,50.917273869189486,-10509.589077185283,5897.93245767742,9945.855730277985,-187500.02235174447,-187500.02235174447,-187500.02235174447,-187500.02235174447
$SILENCE,144.9063593037557,-10477.961358781024,6190.896772253129,9941.988878487216,-187500.02235174447,-187500.02235174447,-187500.02235174447,-187500.02235174447
$SILENCE,57.6004454613263,-10495.954513067545,6020.755293459331,9954.036468748625,-187500.02235174447,-187500.02235174447,-187500.02235174447,-187500.02235174447
$SILENCE,-55.54408497143805,-10524.698856437071,5693.9727895227425,9965.748782843208,-187500.02235174447,-187500.02235174447,-187500.02235174447,-187500.02235174447
$SILENCE,26.732686368547245,-10518.328609267308,5819.477834639291,9945.095770966504,-187500.02235174447,-187500.02235174447,-187500.02235174447,-187500.02235174447
$SILENCE,162.20660951216334,-10485.449193173552,6152.74234446792,9925.068607934549,-187500.02235174447,-187500.02235174447,-187500.02235174447,-187500.02235174447
$SILENCE,104.27088788400745,-10483.45988791703,6076.187619708493,9950.77311405815,-187500.02235174447,-187500.02235174447,-187500.02235174447,-187500.02235174447
$SILENCE,-34.64520390572595,-10509.767891140926,5743.146627324418,9975.672957381363,-187500.02235174447,-187500.02235174447,-187500.02235174447,-187500.02235174447
$SILENCE,3.7327413240362795,-10515.981676099502,5765.09604037953,9966.665204365874,-187500.02235174447,-187500.02235174447,-187500.02235174447,-187500.02235174447
$SILENCE,129.55071086295973,-10486.946760052057,6121.4946057194,9942.458265120777,-187500.02235174447,-187500.02235174447,-187500.02235174447,-187500.02235174447
$SILENCE,99.39820759275051,-10475.636777357671,6111.279858503325,9937.719695296251,-187500.02235174447,-187500.02235174447,-187500.02235174447,-187500.02235174447
$SILENCE,-24.3634014562847,-10495.306312478342,5794.041549449152,9969.235654978234,-187500.02235174447,-187500.02235174447,-187500.02235174447,-187500.02235174447
$SILENCE,-26.017430545977422,-10515.959324355046,5724.125292792952,9960.20555021829,-187500.02235174447,-187500.02235174447,-187500.02235174447,-187500.02235174447
$SILENCE,120.72177180311344,-10499.709606136037,6077.5063726313565,9930.120102181447,-187500.02235174447,-187500.02235174447,-187500.02235174447,-187500.02235174447
$SILENCE,130.1318562187977,-10472.239312200465,6142.281728062836,9948.135608212426,-187500.02235174447,-187500.02235174447,-187500.02235174447,-187500.02235174447
$SILENCE,-9.991229771522256,-10495.283960733886,5840.577881405102,9978.712794627285,-187500.02235174447,-187500.02235174447,-187500.02235174447,-187500.02235174447
$SILENCE,-56.81813440539055,-10523.357751769752,5683.422766139837,9978.243407993723,-187500.02235174447,-187500.02235174447,-187500.02235174447,-187500.02235174447
$SILENCE,99.93464945967787,-10494.83692584478,6009.668828209499,9943.978183743739,-187500.02235174447,-187500.02235174447,-187500.02235174447,-187500.02235174447
$SILENCE,123.35927764883968,-10471.747573822448,6159.783143971342,9937.496177851699,-187500.02235174447,-187500.02235174447,-187500.02235174447,-187500.02235174447
$SILENCE,10.371209427262476,-10482.11878324971,5906.269658359249,9969.526227656153,-187500.02235174447,-187500.02235174447,-187500.02235174447,-187500.02235174447
$SILENCE,-61.55670422991565,-10507.353902739753,5683.556876606569,9983.272550496167,-187500.02235174447,-187500.02235174447,-187500.02235174447,-187500.02235174447
$SILENCE,59.567398973393324,-10492.35588221024,5944.915824522474,9948.604994845986,-187500.02235174447,-187500.02235174447,-187500.02235174447,-187500.02235174447
$SILENCE,149.734336106102,-10466.181989453076,6171.271940621369,9932.288221393612,-187500.02235174447,-187500.02235174447,-187500.02235174447,-187500.02235174447
$SILENCE,71.95026540163343,-10469.601806354738,5975.023624303773,9971.426125934855,-187500.02235174447,-187500.02235174447,-187500.02235174447,-187500.02235174447
$SILENCE,-59.00860536201065,-10511.108995808245,5681.455812627771,9982.423184206866,-187500.02235174447,-187500.02235174447,-187500.02235174447,-187500.02235174447
$SILENCE,20.85417757680149,-10508.60560042925,5872.1832480649055,9954.483503637732,-187500.02235174447,-187500.02235174447,-187500.02235174447,-187500.02235174447
$SILENCE,133.5293213760044,-10470.719393577505,6173.685929022543,9950.370782657956,-187500.02235174447,-187500.02235174447,-187500.02235174447,-187500.02235174447
$SILENCE,64.01539611999942,-10476.396736669152,6027.214947606915,9971.850809079506,-187500.02235174447,-187500.02235174447,-187500.02235174447,-187500.02235174447
$SILENCE,-34.77931437245779,-10504.179955027099,5706.802690840089,9986.066518553082,-187500.02235174447,-187500.02235174447,-187500.02235174447,-187500.02235174447
$SILENCE,43.652956921214695,-10504.805803871848,5801.0376454636635,9954.282337937635,-187500.02235174447,-187500.02235174447,-187500.02235174447,-187500.02235174447
$SILENCE,160.35141472237288,-10467.746611564948,6136.626736715643,9942.63707907642,-187500.02235174447,-187500.02235174447,-187500.02235174447,-187500.02235174447
$SILENCE,102.48274832758288,-10464.796181296848,6072.231360939903,9977.036413793137,-187500.02235174447,-187500.02235174447,-187500.02235174447,-187500.02235174447
$SILENCE,-30.867759092779053,-10493.40641419964,5747.885197148943,10009.155870575414,-187500.02235174447,-187500.02235174447,-187500.02235174447,-187500.02235174447
$SILENCE,2.3916366567178557,-10504.962266083034,5751.930862895354,9988.88283835445,-187500.02235174447,-187500.02235174447,-187500.02235174447,-187500.02235174447
$SILENCE,143.09586800287582,-10470.026489499389,6104.887259589107,9958.149189728403,-187500.02235174447,-187500.02235174447,-187500.02235174447,-187500.02235174447
$SILENCE,116.74316129006878,-10460.12466670569,6109.82699511373,9971.292015468123,-187500.02235174447,-187500.02235174447,-187500.02235174447,-187500.02235174447
$SILENCE,-15.266241462974724,-10485.762117595927,5788.9453517133425,9999.522268715176,-187500.02235174447,-187500.02235174447,-187500.02235174447,-187500.02235174447
$SILENCE,-28.67728813615896,-10503.442347460074,5701.326513448538,9991.520344200177,-187500.02235174447,-187500.02235174447,-187500.02235174447,-187500.02235174447
$SILENCE,114.08330369988725,-10478.31898669231,6047.443276338969,9968.430992177844,-187500.02235174447,-187500.02235174447,-187500.02235174447,-187500.02235174447
$SILENCE,126.15324570575306,-10461.555178350829,6132.044629102305,9980.657396394898,-187500.02235174447,-187500.02235174447,-187500.02235174447,-187500.02235174447
$SILENCE,-0.15646221118714942,-10483.348129194752,5838.454465681847,9997.376501247467,-187500.02235174447,-187500.02235174447,-187500.02235174447,-187500.02235174447
$SILENCE,-39.048497563421435,-10503.218830015521,5670.481106100215,9999.723434415273,-187500.02235174447,-187500.02235174447,-187500.02235174447,-187500.02235174447
$SILENCE,110.95405947614425,-10482.454059416541,5986.04303432024,9979.964492316782,-187500.02235174447,-187500.02235174447,-187500.02235174447,-187500.02235174447
$SILENCE,159.63615889980304,-10454.581434080772,6154.172856113059,9979.919788827872,-187500.02235174447,-187500.02235174447,-187500.02235174447,-187500.02235174447
$SILENCE,46.33516625585154,-10470.607634855227,5906.917858948453,10012.55333573262,-187500.02235174447,-187500.02235174447,-187500.02235174447,-187500.02235174447
$SILENCE,-50.38083200226212,-10507.08568180629,5668.447097354781,10012.441577010344,-187500.02235174447,-187500.02235174447,-187500.02235174447,-187500.02235174447
$SILENCE,77.91818117120042,-10495.373367711707,5924.955716723885,9974.622425391964,-187500.02235174447,-187500.02235174447,-187500.02235174447,-187500.02235174447
$SILENCE,151.85775182935618,-10462.382192895675,6155.98334741394,9972.87898932445,-187500.02235174447,-187500.02235174447,-187500.02235174447,-187500.02235174447
$SILENCE,39.74140164153596,-10475.234445957476,5947.46392339038,9995.118975057481,-187500.02235174447,-187500.02235174447,-187500.02235174447,-187500.02235174447
$SILENCE,-58.047480350432444,-10503.107071293243,5659.372289105927,10006.652475196419,-187500.02235174447,-187500.02235174447,-187500.02235174447,-187500.02235174447
$SILENCE,43.02710807646609,-10495.507478178439,5844.668250640422,9983.049033051615,-187500.02235174447,-187500.02235174447,-187500.02235174447,-187500.02235174447
$SILENCE,150.9189785622333,-10465.846713286248,6142.013507129373,9961.569006630065,-187500.02235174447,-187500.02235174447,-187500.02235174447,-187500.02235174447
$SILENCE,70.05036712293233,-10474.362727923719,6003.857374651119,9978.73514637174,-187500.02235174447,-187500.02235174447,-187500.02235174447,-187500.02235174447
$SILENCE,-53.04068959244366,-10506.325722494808,5686.753176063678,9995.342492502034,-187500.02235174447,-187500.02235174447,-187500.02235174447,-187500.02235174447
$SILENCE,8.784235570935676,-10505.454004461051,5784.586761544557,9988.838134865538,-187500.02235174447,-187500.02235174447,-187500.02235174447,-187500.02235174447
$SILENCE,143.47584765861603,-10470.808800555325,6124.914422621063,9962.68659385283,-187500.02235174447,-187500.02235174447,-187500.02235174447,-187500.02235174447
$SILENCE,94.68198951268072,-10467.813666798314,6057.970947977418,9989.978073832759,-187500.02235174447,-187500.02235174447,-187500.02235174447,-187500.02235174447
$SILENCE,-33.97465157206673,-10503.17412652661,5731.881348118943,10017.895402657437,-187500.02235174447,-187500.02235174447,-187500.02235174447,-187500.02235174447
$SILENCE,0.9164215226675896,-10513.232411531499,5727.567461439069,9991.274475011167,-187500.02235174447,-187500.02235174447,-187500.02235174447,-187500.02235174447
$SILENCE,146.2698157155294,-10478.631911114682,6082.423756411524,9958.439762406322,-187500.02235174447,-187500.02235174447,-187500.02235174447,-187500.02235174447
$SILENCE,117.14549269026432,-10469.087716232267,6094.180773995015,9951.466018136265,-187500.02235174447,-187500.02235174447,-187500.02235174447,-187500.02235174447
$SILENCE,-15.087427507332267,-10496.870934590213,5779.892895208943,9979.003367305204,-187500.02235174447,-187500.02235174447,-187500.02235174447,-187500.02235174447
$SILENCE,-32.74530562702485,-10517.36748425573,5680.986425994209,9976.857599837494,-187500.02235174447,-187500.02235174447,-187500.02235174447,-187500.02235174447
$SILENCE,114.75385603354646,-10484.868047817714,6026.3208778287035,9948.292070423613,-187500.02235174447,-187500.02235174447,-187500.02235174447,-187500.02235174447
$SILENCE,139.81016156794567,-10466.964300509013,6129.362419767669,9954.416448404367,-187500.02235174447,-187500.02235174447,-187500.02235174447,-187500.02235174447
$SILENCE,17.635526375237273,-10495.060443289334,5841.270785483216,9977.394041704421,-187500.02235174447,-187500.02235174447,-187500.02235174447,-187500.02235174447
$SILENCE,-44.0105848324996,-10520.876708135213,5658.768792005634,9980.322120228067,-187500.02235174447,-187500.02235174447,-187500.02235174447,-187500.02235174447
$SILENCE,98.70530351463599,-10496.468603190018,5969.882723079053,9959.892625795917,-187500.02235174447,-187500.02235174447,-187500.02235174447,-187500.02235174447
$SILENCE,149.15319075026403,-10468.573626109795,6150.21659734447,9960.227901962746,-187500.02235174447,-187500.02235174447,-187500.02235174447,-187500.02235174447
$SILENCE,38.42264871867284,-10485.739765851471,5910.203565383383,9982.087908040037,-187500.02235174447,-187500.02235174447,-187500.02235174447,-187500.02235174447
$SILENCE,-36.343936484329284,-10517.769815655925,5660.199303650774,9983.45136445181,-187500.02235174447,-187500.02235174447,-187500.02235174447,-187500.02235174447
$SILENCE,80.42157655019481,-10506.146908539165,5897.328960577126,9946.369820400456,-187500.02235174447,-187500.02235174447,-187500.02235174447,-187500.02235174447
$SILENCE,151.5671791514372,-10481.470582660508,6139.286594305825,9929.114273680958,-187500.02235174447,-187500.02235174447,-187500.02235174447,-187500.02235174447
$SILENCE,57.53339022796038,-10490.187762998077,5953.3647839265805,9957.769210072662,-187500.02235174447,-187500.02235174447,-187500.02235174447,-187500.02235174447
$SILENCE,-41.7754103869689,-10515.467585977029,5666.591902564991,9980.702099883807,-187500.02235174447,-187500.02235174447,-187500.02235174447,-187500.02235174447
$SILENCE,46.29046276694093,-10505.454004461051,5835.414628435926,9955.444628649311,-187500.02235174447,-187500.02235174447,-187500.02235174447,-187500.02235174447
$SILENCE,158.16094376575276,-10470.78644881087,6141.879396662641,9938.837282519018,-187500.02235174447,-187500.02235174447,-187500.02235174447,-187500.02235174447
$SILENCE,93.49734705654944,-10481.716451849516,6018.229546335882,9957.21041646128,-187500.02235174447,-187500.02235174447,-187500.02235174447,-187500.02235174447
$SILENCE,-35.82984636185722,-10517.523946466918,5694.665693600857,9965.949948543304,-187500.02235174447,-187500.02235174447,-187500.02235174447,-187500.02235174447
$SILENCE,21.100046765809868,-10523.245993047476,5764.090211879041,9947.532111112132,-187500.02235174447,-187500.02235174447,-187500.02235174447,-187500.02235174447
$SILENCE,155.88106583131145,-10486.566780396317,6099.25461998637,9930.455378348277,-187500.02235174447,-187500.02235174447,-187500.02235174447,-187500.02235174447
$SILENCE,106.81898675191245,-10482.11878324971,6050.728982773899,9947.219186689757,-187500.02235174447,-187500.02235174447,-187500.02235174447,-187500.02235174447
$SILENCE,-13.23223271754178,-10512.31599000883,5732.1272173079515,9966.039355521127,-187500.02235174447,-187500.02235174447,-187500.02235174447,-187500.02235174447
$SILENCE,2.883375034734611,-10527.805748916358,5710.960115308776,9946.816855289562,-187500.02235174447,-187500.02235174447,-187500.02235174447,-187500.02235174447
$SILENCE,148.43793492769422,-10491.595922898761,6066.799887037264,9923.77220675614,-187500.02235174447,-187500.02235174447,-187500.02235174447,-187500.02235174447
$SILENCE,137.59733886687027,-10479.257759959431,6098.4052536970685,9936.266831906656,-187500.02235174447,-187500.02235174447,-187500.02235174447,-187500.02235174447
$SILENCE,6.347895425307206,-10504.425824216107,5787.648950534935,9962.664242108374,-187500.02235174447,-187500.02235174447,-187500.02235174447,-187500.02235174447
$SILENCE,-20.295383965418814,-10522.620144202727,5671.352824133972,9956.383401916433,-187500.02235174447,-187500.02235174447,-187500.02235174447,-187500.02235174447
$SILENCE,128.05314398445415,-10495.932161323091,6009.512365998312,9920.128872409925,-187500.02235174447,-187500.02235174447,-187500.02235174447,-187500.02235174447
$SILENCE,148.1473622497752,-10481.157658238133,6124.087408076216,9925.336828868012,-187500.02235174447,-187500.02235174447,-187500.02235174447,-187500.02235174447
$SILENCE,21.74824735501377,-10502.682388148593,5849.943262331875,9959.892625795917,-187500.02235174447,-187500.02235174447,-187500.02235174447,-187500.02235174447
$SILENCE,-28.409067202695276,-10528.141025083189,5659.484047828204,9964.340622942522,-187500.02235174447,-187500.02235174447,-187500.02235174447,-187500.02235174447
$SILENCE,103.1756524056974,-10511.779548141903,5951.956624025896,9937.652640062886,-187500.02235174447,-187500.02235174447,-187500.02235174447,-187500.02235174447
$SILENCE,156.0151762980433,-10483.102260005744,6133.8551204031855,9935.216299917258,-187500.02235174447,-187500.02235174447,-187500.02235174447,-187500.02235174447
$SILENCE,48.36917500128448,-10493.74169036647,5897.172498365939,9965.234692720735,-187500.02235174447,-187500.02235174447,-187500.02235174447,-187500.02235174447
$SILENCE,-38.42264871867284,-10521.167280813132,5640.194492363274,9973.750707358207,-187500.02235174447,-187500.02235174447,-187500.02235174447,-187500.02235174447
$SILENCE,76.19709684814178,-10511.153699297154,5879.939303390897,9944.20170118829,-187500.02235174447,-187500.02235174447,-187500.02235174447,-187500.02235174447
$SILENCE,155.99282455358798,-10481.045899515855,6136.917309393562,9927.169671913347,-187500.02235174447,-187500.02235174447,-187500.02235174447,-187500.02235174447
$SILENCE,66.33997754335137,-10489.137231008677,5955.13057173855,9946.705096567286,-187500.02235174447,-187500.02235174447,-187500.02235174447,-187500.02235174447
$SILENCE,-31.694773637625413,-10518.842699389781,5658.522922816625,9968.006309033193,-187500.02235174447,-187500.02235174447,-187500.02235174447,-187500.02235174447
$SILENCE,56.28169253846318,-10521.234336046498,5812.727607813788,9946.839207034018,-187500.02235174447,-187500.02235174447,-187500.02235174447,-187500.02235174447
$SILENCE,165.26879850254042,-10486.522076907406,6125.562623210267,9925.113311423458,-187500.02235174447,-187500.02235174447,-187500.02235174447,-187500.02235174447
$SILENCE,96.09014941336507,-10483.88457106168,6009.355903787125,9935.708038295274,-187500.02235174447,-187500.02235174447,-187500.02235174447,-187500.02235174447
$SILENCE,-23.446979933617108,-10515.109958065745,5689.502440631681,9954.662317593375,-187500.02235174447,-187500.02235174447,-187500.02235174447,-187500.02235174447
$SILENCE,25.525692167960667,-10523.625972703216,5750.053316361108,9940.40190463089,-187500.02235174447,-187500.02235174447,-187500.02235174447,-187500.02235174447
$SILENCE,162.81010661245665,-10491.618274643217,6103.769672366342,9916.194965385792,-187500.02235174447,-187500.02235174447,-187500.02235174447,-187500.02235174447
$SILENCE,127.13672246178658,-10484.26455071742,6068.744488804876,9934.590451072509,-187500.02235174447,-187500.02235174447,-187500.02235174447,-187500.02235174447
$SILENCE,-8.538366381927299,-10512.763024897937,5732.864824874977,9959.356183928989,-187500.02235174447,-187500.02235174447,-187500.02235174447,-187500.02235174447
$SILENCE,3.0845407348323746,-10525.79409191538,5713.754083365689,9944.40286688839,-187500.02235174447,-187500.02235174447,-187500.02235174447,-187500.02235174447
$SILENCE,142.76059183604622,-10499.26257124693,6038.681392512488,9914.63034327392,-187500.02235174447,-187500.02235174447,-187500.02235174447,-187500.02235174447
$SILENCE,144.19110348118585,-10484.55512339534,6094.404291439569,9918.67600902033,-187500.02235174447,-187500.02235174447,-187500.02235174447,-187500.02235174447
$SILENCE,8.13603498173177,-10511.08664406379,5770.885142193454,9946.079247722537,-187500.02235174447,-187500.02235174447,-187500.02235174447,-187500.02235174447
$SILENCE,-18.3507821978071,-10530.733827440004,5659.171123405829,9939.932517997328,-187500.02235174447,-187500.02235174447,-187500.02235174447,-187500.02235174447
$SILENCE,127.96373700663294,-10507.17508878411,6002.203345561426,9909.556497282565,-187500.02235174447,-187500.02235174447,-187500.02235174447,-187500.02235174447
$SILENCE,152.7965250964791,-10488.801954841847,6127.5742802112445,9914.943267696293,-187500.02235174447,-187500.02235174447,-187500.02235174447,-187500.02235174447
$SILENCE,35.338107983840466,-10508.359731240242,5857.475800213314,9947.107427967481,-187500.02235174447,-187500.02235174447,-187500.02235174447,-187500.02235174447
$SILENCE,-25.257471234496983,-10537.037019376401,5657.651204782868,9945.766323300162,-187500.02235174447,-187500.02235174447,-187500.02235174447,-187500.02235174447
$SILENCE,108.58477456388171,-10518.17214705612,5941.451304131902,9908.170689126337,-187500.02235174447,-187500.02235174447,-187500.02235174447,-187500.02235174447
$SILENCE,171.34847299438394,-10490.321873464809,6140.3147745507695,9903.789747213095,-187500.02235174447,-187500.02235174447,-187500.02235174447,-187500.02235174447
$SILENCE,61.7131664411028,-10505.454004461051,5910.583545039123,9921.402921843877,-187500.02235174447,-187500.02235174447,-187500.02235174447,-187500.02235174447
$SILENCE,-18.529596153449553,-10535.248879819976,5658.209998394251,9933.58462257202,-187500.02235174447,-187500.02235174447,-187500.02235174447,-187500.02235174447
$SILENCE,88.71407374311373,-10522.530737224906,5887.248323827783,9906.181383869814,-187500.02235174447,-187500.02235174447,-187500.02235174447,-187500.02235174447
$SILENCE,172.8013363839789,-10493.428765944096,6153.6364142461325,9891.786860440596,-187500.02235174447,-187500.02235174447,-187500.02235174447,-187500.02235174447
$SILENCE,83.39435856275065,-10501.609504414739,5983.226714518871,9916.194965385792,-187500.02235174447,-187500.02235174447,-187500.02235174447,-187500.02235174447
$SILENCE,-22.061171777388072,-10536.008839131457,5679.667673071346,9929.24838414769,-187500.02235174447,-187500.02235174447,-187500.02235174447,-187500.02235174447
$SILENCE,65.98234963206644,-10536.098246109277,5806.6702850664005,9902.649808245875,-187500.02235174447,-187500.02235174447,-187500.02235174447,-187500.02235174447
$SILENCE,180.80326089897883,-10502.168298026121,6125.182643554526,9883.293197547579,-187500.02235174447,-187500.02235174447,-187500.02235174447,-187500.02235174447
$SILENCE,108.49536758606048,-10501.385986970185,6028.198424362949,9902.828622201518,-187500.02235174447,-187500.02235174447,-187500.02235174447,-187500.02235174447
$SILENCE,-18.77546534245793,-10528.096321594277,5707.450891429293,9931.371799870945,-187500.02235174447,-187500.02235174447,-187500.02235174447,-187500.02235174447
$SILENCE,32.365325971284626,-10537.104074609766,5763.687880478845,9917.983104942216,-187500.02235174447,-187500.02235174447,-187500.02235174447,-187500.02235174447
$SILENCE,168.91213284875548,-10506.79510912837,6123.126283064638,9888.367043538934,-187500.02235174447,-187500.02235174447,-187500.02235174447,-187500.02235174447
$SILENCE,134.98218476559936,-10501.36363522573,6089.531611148312,9892.032729629604,-187500.02235174447,-187500.02235174447,-187500.02235174447,-187500.02235174447
$SILENCE,0.1788139556424565,-10526.308182037852,5741.112618578985,9907.81306121505,-187500.02235174447,-187500.02235174447,-187500.02235174447,-187500.02235174447
$SILENCE,2.838671545823997,-10541.216795589542,5689.2789231871275,9896.950113409772,-187500.02235174447,-187500.02235174447,-187500.02235174447,-187500.02235174447
$SILENCE,157.6245018988254,-10515.087606321289,6064.877637014108,9877.794668411574,-187500.02235174447,-187500.02235174447,-187500.02235174447,-187500.02235174447
$SILENCE,157.53509492100417,-10501.184821270088,6131.418780257557,9887.00358712716,-187500.02235174447,-187500.02235174447,-187500.02235174447,-187500.02235174447
$SILENCE,33.8628928497902,-10527.649286705171,5821.243622451261,9907.00839841466,-187500.02235174447,-187500.02235174447,-187500.02235174447,-187500.02235174447
$SILENCE,-11.935831539133972,-10545.441275291596,5674.213847424251,9901.845145445484,-187500.02235174447,-187500.02235174447,-187500.02235174447,-187500.02235174447
$SILENCE,133.01523125353233,-10518.596830200771,6006.494880496845,9874.061927087538,-187500.02235174447,-187500.02235174447,-187500.02235174447,-187500.02235174447
$SILENCE,183.9325051227218,-10498.480260190996,6158.531446281844,9877.437040500288,-187500.02235174447,-187500.02235174447,-187500.02235174447,-187500.02235174447
$SILENCE,48.63739593474817,-10520.116748823733,5864.650710183467,9906.67312224783,-187500.02235174447,-187500.02235174447,-187500.02235174447,-187500.02235174447
$SILENCE,-17.36730544177359,-10548.347002070786,5662.747402518678,9903.230953601713,-187500.02235174447,-187500.02235174447,-187500.02235174447,-187500.02235174447
$SILENCE,115.06678045592076,-10528.878632650212,5947.642737346022,9867.71403166223,-187500.02235174447,-187500.02235174447,-187500.02235174447,-187500.02235174447
$SILENCE,188.17933656923017,-10503.643513160172,6172.568341799777,9861.366136236922,-187500.02235174447,-187500.02235174447,-187500.02235174447,-187500.02235174447
$SILENCE,73.67134972469208,-10513.165356298132,5962.149019497517,9885.461316759744,-187500.02235174447,-187500.02235174447,-187500.02235174447,-187500.02235174447
$SILENCE,-46.826904633868295,-10537.729923454515,5670.458754355759,9886.265979560136,-187500.02235174447,-187500.02235174447,-187500.02235174447,-187500.02235174447
$SILENCE,71.03384387896584,-10536.768798442936,5864.7848206501985,9852.33603147698,-187500.02235174447,-187500.02235174447,-187500.02235174447,-187500.02235174447
$SILENCE,182.63610394431402,-10509.164394040632,6147.512036265378,9849.497359931154,-187500.02235174447,-187500.02235174447,-187500.02235174447,-187500.02235174447
$SILENCE,102.03571343847675,-10513.679446420605,5976.7223568823765,9874.95599686575,-187500.02235174447,-187500.02235174447,-187500.02235174447,-187500.02235174447
$SILENCE,-6.61611635877089,-10541.641478734193,5667.485972343204,9894.536125008599,-187500.02235174447,-187500.02235174447,-187500.02235174447,-187500.02235174447
$SILENCE,59.96973037358885,-10542.13321711221,5802.043473964152,9865.90354036135,-187500.02235174447,-187500.02235174447,-187500.02235174447,-187500.02235174447
$SILENCE,179.68567367621347,-10510.103167307756,6151.669460734065,9842.836540083474,-187500.02235174447,-187500.02235174447,-187500.02235174447,-187500.02235174447
$SILENCE,121.34762064786204,-10510.684312663594,6067.403384137558,9862.975461837705,-187500.02235174447,-187500.02235174447,-187500.02235174447,-187500.02235174447
$SILENCE,-25.12336076776514,-10533.863071663747,5713.12823452094,9893.083261619004,-187500.02235174447,-187500.02235174447,-187500.02235174447,-187500.02235174447
$SILENCE,-7.577241370349094,-10536.545280998384,5758.792848443133,9873.86076138744,-187500.02235174447,-187500.02235174447,-187500.02235174447,-187500.02235174447
$SILENCE,135.1386469767865,-10508.426786473607,6104.306114233269,9839.439074926267,-187500.02235174447,-187500.02235174447,-187500.02235174447,-187500.02235174447
$SILENCE,142.78294358050152,-10506.593943428272,6057.680375299499,9857.812208868529,-187500.02235174447,-187500.02235174447,-187500.02235174447,-187500.02235174447
$SILENCE,24.11753226727632,-10532.969001885534,5739.950327867309,9890.222238328724,-187500.02235174447,-187500.02235174447,-187500.02235174447,-187500.02235174447
$SILENCE,29.258433491996946,-10548.414057304151,5688.474260386737,9879.314587034534,-187500.02235174447,-187500.02235174447,-187500.02235174447,-187500.02235174447
$SILENCE,155.99282455358798,-10516.004027843956,6049.790209506776,9848.625641897397,-187500.02235174447,-187500.02235174447,-187500.02235174447,-187500.02235174447
$SILENCE,141.62065286882554,-10499.88842009168,6119.550003951789,9854.57120592251,-187500.02235174447,-187500.02235174447,-187500.02235174447,-187500.02235174447
$SILENCE,15.690924607625558,-10525.190594815087,5825.848081809054,9883.114383591937,-187500.02235174447,-187500.02235174447,-187500.02235174447,-187500.02235174447
$SILENCE,-20.16127349868697,-10548.056429392867,5663.887341485899,9876.945302122273,-187500.02235174447,-187500.02235174447,-187500.02235174447,-187500.02235174447
$SILENCE,129.90833877424464,-10525.592926215282,5973.995444058829,9851.486665187676,-187500.02235174447,-187500.02235174447,-187500.02235174447,-187500.02235174447
$SILENCE,166.20757176966333,-10502.391815470673,6128.647163945099,9864.025993827105,-187500.02235174447,-187500.02235174447,-187500.02235174447,-187500.02235174447
$SILENCE,54.62766344877046,-10518.038036589389,5890.154050606972,9890.892790662383,-187500.02235174447,-187500.02235174447,-187500.02235174447,-187500.02235174447
$SILENCE,-20.98828804353333,-10544.793074702391,5646.2518151106615,9892.457412774254,-187500.02235174447,-187500.02235174447,-187500.02235174447,-187500.02235174447
talvez,95.37489359079524,-10526.866975649236,5899.385321067014,9866.99877583966,-187500.02235174447,-187500.02235174447,-187500.02235174447,-187500.02235174447
talvez,158.42916469921647,-10498.882591591191,6141.544120495811,9858.974499580205,-187500.02235174447,-187500.02235174447,-187500.02235174447,-187500.02235174447
talvez,55.78995416044643,-10514.662923176638,5929.671934803955,9878.152296322858,-187500.02235174447,-187500.02235174447,-187500.02235174447,-187500.02235174447
talvez,-24.51986366747185,-10540.27802232242,5651.59388203548,9896.368968053934,-187500.02235174447,-187500.02235174447,-187500.02235174447,-187500.02235174447
talvez,62.56253273040447,-10529.102150094766,5850.971442576819,9870.731517163696,-187500.02235174447,-187500.02235174447,-187500.02235174447,-187500.02235174447
talvez,162.2960164899846,-10500.782489869893,6145.12039960866,9858.259243757635,-187500.02235174447,-187500.02235174447,-187500.02235174447,-187500.02235174447
talvez,93.31853310090699,-10508.31502775133,5995.944857113941,9883.33790103649,-187500.02235174447,-187500.02235174447,-187500.02235174447,-187500.02235174447
talvez,-19.915404309678593,-10540.836815933802,5681.321702161039,9897.777127954618,-187500.02235174447,-187500.02235174447,-187500.02235174447,-187500.02235174447
talvez,50.67140468018111,-10540.389781044696,5784.7655755002,9874.19603755427,-187500.02235174447,-187500.02235174447,-187500.02235174447,-187500.02235174447
talvez,175.88587711881127,-10505.990446327978,6115.303172505281,9855.174703022803,-187500.02235174447,-187500.02235174447,-187500.02235174447,-187500.02235174447
talvez,114.50798684453808,-10505.386949227686,6044.559901304234,9871.580883452998,-187500.02235174447,-187500.02235174447,-187500.02235174447,-187500.02235174447
talvez,-12.964011784078096,-10531.493786751484,5729.288545762128,9895.3854912979,-187500.02235174447,-187500.02235174447,-187500.02235174447,-187500.02235174447
talvez,26.687982879636632,-10545.105999124766,5735.547034209613,9883.069680103026,-187500.02235174447,-187500.02235174447,-187500.02235174447,-187500.02235174447
talvez,156.0375280424986,-10514.104129565256,6079.428622654513,9862.684889159786,-187500.02235174447,-187500.02235174447,-187500.02235174447,-187500.02235174447
talvez,131.6294230973033,-10504.470527705018,6086.625884369121,9878.174648067314,-187500.02235174447,-187500.02235174447,-187500.02235174447,-187500.02235174447
talvez,10.57237512736024,-10531.158510584655,5765.14074386844,9899.945247166783,-187500.02235174447,-187500.02235174447,-187500.02235174447,-187500.02235174447
talvez,2.793968056913383,-10548.078781137321,5682.483992872714,9892.680930218808,-187500.02235174447,-187500.02235174447,-187500.02235174447,-187500.02235174447
talvez,154.31644371943997,-10521.122577324222,6031.707648242432,9861.276729259102,-187500.02235174447,-187500.02235174447,-187500.02235174447,-187500.02235174447
talvez,162.3183682344399,-10503.956437582545,6121.226384785937,9868.47399097371,-187500.02235174447,-187500.02235174447,-187500.02235174447,-187500.02235174447
talvez,38.08737255184324,-10527.045789604877,5832.82182607911,9894.893752919883,-187500.02235174447,-187500.02235174447,-187500.02235174447,-187500.02235174447
talvez,-4.827976802346326,-10552.727943984026,5662.8368094965,9890.177534839813,-187500.02235174447,-187500.02235174447,-187500.02235174447,-187500.02235174447
talvez,134.87042604332282,-10530.353847784263,5970.575627157167,9859.890921102873,-187500.02235174447,-187500.02235174447,-187500.02235174447,-187500.02235174447
talvez,180.3115225209621,-10505.83398411679,6137.520806493856,9864.584787438487,-187500.02235174447,-187500.02235174447,-187500.02235174447,-187500.02235174447
talvez,72.1514311017312,-10521.949591869068,5883.7390999483,9888.568209239033,-187500.02235174447,-187500.02235174447,-187500.02235174447,-187500.02235174447
talvez,-4.984439013533475,-10551.118618383243,5648.576396534014,9894.513773264143,-187500.02235174447,-187500.02235174447,-187500.02235174447,-187500.02235174447
talvez,106.64017279627,-10538.691048466093,5901.061701901162,9866.641147928376,-187500.02235174447,-187500.02235174447,-187500.02235174447,-187500.02235174447
talvez,192.4261680157385,-10513.277115020408,6142.572300740755,9862.170799037314,-187500.02235174447,-187500.02235174447,-187500.02235174447,-187500.02235174447
talvez,94.0114371790215,-10527.001086115968,5941.183083198439,9882.868514402928,-187500.02235174447,-187500.02235174447,-187500.02235174447,-187500.02235174447
talvez,-15.109779251787574,-10550.805693960869,5660.668690284335,9899.967598911238,-187500.02235174447,-187500.02235174447,-187500.02235174447,-187500.02235174447
talvez,83.34965507384004,-10541.32855431182,5844.265919240227,9874.754831165652,-187500.02235174447,-187500.02235174447,-187500.02235174447,-187500.02235174447
talvez,189.2969237919955,-10510.952533597057,6141.678230962543,9857.812208868529,-187500.02235174447,-187500.02235174447,-187500.02235174447,-187500.02235174447
talvez,112.74219903256882,-10521.27903953541,6003.745615928843,9877.638206200387,-187500.02235174447,-187500.02235174447,-187500.02235174447,-187500.02235174447
talvez,-3.620982601759744,-10544.971888658034,5688.2730946866395,9894.513773264143,-187500.02235174447,-187500.02235174447,-187500.02235174447,-187500.02235174447
talvez,62.003739119021795,-10548.570519515339,5773.14266838344,9869.077488074005,-187500.02235174447,-187500.02235174447,-187500.02235174447,-187500.02235174447
talvez,186.07827259043128,-10520.474376735017,6103.009713054862,9849.09502853096,-187500.02235174447,-187500.02235174447,-187500.02235174447,-187500.02235174447
talvez,145.64396687078082,-10519.759120912448,6050.5054653293455,9872.85493288695,-187500.02235174447,-187500.02235174447,-187500.02235174447,-187500.02235174447
talvez,30.53248292594945,-10544.61426074675,5744.934766880842,9900.124061122426,-187500.02235174447,-187500.02235174447,-187500.02235174447,-187500.02235174447
talvez,44.41291623269513,-10554.650194007183,5736.508159221192,9883.919046392328,-187500.02235174447,-187500.02235174447,-187500.02235174447,-187500.02235174447
talvez,180.28917077650678,-10525.79409191538,6064.497657358367,9858.482761202189,-187500.02235174447,-187500.02235174447,-187500.02235174447,-187500.02235174447
talvez,164.71000489115775,-10515.668751677127,6096.192430995993,9868.362232251435,-187500.02235174447,-187500.02235174447,-187500.02235174447,-187500.02235174447
talvez,36.992137073533186,-10539.875690922225,5787.268970879194,9896.771299454129,-187500.02235174447,-187500.02235174447,-187500.02235174447,-187500.02235174447
talvez,34.086410294343274,-10558.762914986959,5687.311969675061,9892.90444766336,-187500.02235174447,-187500.02235174447,-187500.02235174447,-187500.02235174447
talvez,176.64583643029172,-10531.672600707127,6030.299488341748,9859.533293191587,-187500.02235174447,-187500.02235174447,-187500.02235174447,-187500.02235174447
talvez,184.24542954509613,-10512.338341753286,6126.59080345521,9859.399182724856,-187500.02235174447,-187500.02235174447,-187500.02235174447,-187500.02235174447
talvez,57.04165184994363,-10533.617202474737,5837.515692414724,9884.723709192718,-187500.02235174447,-187500.02235174447,-187500.02235174447,-187500.02235174447
talvez,10.594726871815547,-10555.477208552029,5662.8368094965,9889.886962161894,-187500.02235174447,-187500.02235174447,-187500.02235174447,-187500.02235174447
talvez,152.01421404054332,-10538.378124043718,5961.836095075142,9857.007546068138,-187500.02235174447,-187500.02235174447,-187500.02235174447,-187500.02235174447
talvez,214.15206362629698,-10516.428710988606,6137.476103004945,9853.073639044003,-187500.02235174447,-187500.02235174447,-187500.02235174447,-187500.02235174447
talvez,92.62562902279247,-10537.08172286531,5895.78669020971,9877.884075389395,-187500.02235174447,-187500.02235174447,-187500.02235174447,-187500.02235174447
talvez,13.969840284566914,-10561.690993510603,5658.433515838804,9890.065776117537,-187500.02235174447,-187500.02235174447,-187500.02235174447,-187500.02235174447
talvez,133.5293213760044,-10548.65992649316,5902.402806568481,9855.107647789437,-187500.02235174447,-187500.02235174447,-187500.02235174447,-187500.02235174447
talvez,227.80897948848957,-10512.22658303101,6157.816190459274,9864.070697316016,-187500.02235174447,-187500.02235174447,-187500.02235174447,-187500.02235174447
talvez,122.4652078706274,-10528.431597761108,5971.961435313397,9887.316511549534,-187500.02235174447,-187500.02235174447,-187500.02235174447,-187500.02235174447
talvez,18.283726964441176,-10558.002955675478,5681.008777738664,9886.24362781568,-187500.02235174447,-187500.02235174447,-187500.02235174447,-187500.02235174447
talvez,111.93753623217776,-10552.839702706302,5838.476817426303,9856.51580769012,-187500.02235174447,-187500.02235174447,-187500.02235174447,-187500.02235174447
talvez,228.1666073997745,-10508.717359151526,6161.057193405294,9850.637298898375,-187500.02235174447,-187500.02235174447,-187500.02235174447,-187500.02235174447
talvez,145.21928372613,-10506.526888194907,6068.543323104778,9879.515752734633,-187500.02235174447,-187500.02235174447,-187500.02235174447,-187500.02235174447
talvez,9.633601860237343,-10550.738638727504,5726.919260849865,9896.123098864926,-187500.02235174447,-187500.02235174447,-187500.02235174447,-187500.02235174447
talvez,65.53531474296031,-10566.943653457602,5760.3574705550045,9884.723709192718,-187500.02235174447,-187500.02235174447,-187500.02235174447,-187500.02235174447
talvez,220.2764416070511,-10530.577365228817,6093.5325734058115,9833.985249279172,-187500.02235174447,-187500.02235174447,-187500.02235174447,-187500.02235174447
talvez,153.98116755261034,-10504.69404514957,6094.314884461747,9854.682964644786,-187500.02235174447,-187500.02235174447,-187500.02235174447,-187500.02235174447
talvez,31.538311426438266,-10534.0865891083,5764.112563623496,9880.007491112648,-187500.02235174447,-187500.02235174447,-187500.02235174447,-187500.02235174447
talvez,54.69471868213638,-10572.978624460535,5686.261437685662,9869.301005518557,-187500.02235174447,-187500.02235174447,-187500.02235174447,-187500.02235174447
talvez,199.17639484124123,-10542.22262409003,6102.272105487837,9883.851991158961,-187500.02235174447,-187500.02235174447,-187500.02235174447,-187500.02235174447
talvez,190.8391941594117,-10506.258667261442,6100.483965931412,9853.677136144297,-187500.02235174447,-187500.02235174447,-187500.02235174447,-187500.02235174447
talvez,10.930003038645154,-10587.9989967345,5667.709489787757,9834.23111846818,-187500.02235174447,-187500.02235174447,-187500.02235174447,-187500.02235174447
talvez,3.1068924792876818,-10631.160215277698,5582.705805624224,9823.211708451714,-187500.02235174447,-187500.02235174447,-187500.02235174447,-187500.02235174447
talvez,148.7061558611579,-10594.168078204166,5988.792298888243,9855.062944300525,-187500.02235174447,-187500.02235174447,-187500.02235174447,-187500.02235174447
talvez,196.09185410640887,-10530.823234417825,6130.122379079149,9869.14454330737,-187500.02235174447,-187500.02235174447,-187500.02235174447,-187500.02235174447
talvez,80.3768730612842,-10577.717194285058,5812.6605525804225,9863.71306940473,-187500.02235174447,-187500.02235174447,-187500.02235174447,-187500.02235174447
talvez,77.47114628209428,-10581.628749564738,5670.212885166751,9886.556552238055,-187500.02235174447,-187500.02235174447,-187500.02235174447,-187500.02235174447
talvez,141.71005984664677,-10583.014557720966,5927.12383593605,9878.733441678696,-187500.02235174447,-187500.02235174447,-187500.02235174447,-187500.02235174447
talvez,164.0171008130432,-10564.95434820108,6051.9136252300295,9817.579068848976,-187500.02235174447,-187500.02235174447,-187500.02235174447,-187500.02235174447
talvez,43.16121854319794,-10579.885313497223,5821.310677684627,9809.13010944487,-187500.02235174447,-187500.02235174447,-187500.02235174447,-187500.02235174447
talvez,-13.455750162094851,-10596.537363116428,5621.486082254181,9840.936641804772,-187500.02235174447,-187500.02235174447,-187500.02235174447,-187500.02235174447
talvez,183.03843534450954,-10581.114659442266,5877.25709405626,9858.929796091294,-187500.02235174447,-187500.02235174447,-187500.02235174447,-187500.02235174447
talvez,230.91587196777726,-10559.053487664878,6095.231305984415,9823.278763685079,-187500.02235174447,-187500.02235174447,-187500.02235174447,-187500.02235174447
talvez,61.80257341892403,-10569.111772669767,5915.813853241665,9905.15320362487,-187500.02235174447,-187500.02235174447,-187500.02235174447,-187500.02235174447
talvez,-53.085393081354276,-10589.496563613005,5630.918518414321,9899.028825644114,-187500.02235174447,-187500.02235174447,-187500.02235174447,-187500.02235174447
talvez,6.23613670303067,-10584.243903666009,5752.355546040005,9784.543190544033,-187500.02235174447,-187500.02235174447,-187500.02235174447,-187500.02235174447
talvez,176.64583643029172,-10556.147760885688,6096.773576351831,9860.561473436532,-187500.02235174447,-187500.02235174447,-187500.02235174447,-187500.02235174447
talvez,173.33777825090627,-10557.220644619543,6011.792243932753,9925.649753290387,-187500.02235174447,-187500.02235174447,-187500.02235174447,-187500.02235174447
talvez,36.83567486234604,-10597.319674172364,5673.520943346137,9916.642000274898,-187500.02235174447,-187500.02235174447,-187500.02235174447,-187500.02235174447
talvez,5.1632529691759315,-10587.708424056582,5728.819159128566,9900.19111635579,-187500.02235174447,-187500.02235174447,-187500.02235174447,-187500.02235174447
talvez,140.72658309061327,-10555.074877151834,6053.612357808633,9882.600293469464,-187500.02235174447,-187500.02235174447,-187500.02235174447,-187500.02235174447
talvez,114.41857986671685,-10550.291603838397,6020.352962059136,9912.86455546195,-187500.02235174447,-187500.02235174447,-187500.02235174447,-187500.02235174447
talvez,-10.415912916173092,-10582.52281934295,5726.516929449669,9918.050160175582,-187500.02235174447,-187500.02235174447,-187500.02235174447,-187500.02235174447
talvez,-9.007753015488746,-10603.689921342126,5690.93295227682,9875.514790477133,-187500.02235174447,-187500.02235174447,-187500.02235174447,-187500.02235174447
talvez,160.1949525111857,-10562.89798771119,6057.00982296584,9876.967653866728,-187500.02235174447,-187500.02235174447,-187500.02235174447,-187500.02235174447
talvez,141.75476333555739,-10553.42084806214,6078.422794154024,9872.4302497423,-187500.02235174447,-187500.02235174447,-187500.02235174447,-187500.02235174447
talvez,-1.0281802449441249,-10574.409136105674,5775.601360273524,9891.362177295945,-187500.02235174447,-187500.02235174447,-187500.02235174447,-187500.02235174447
talvez,-44.703488910614126,-10595.062147982377,5667.687138043301,9912.77514848413,-187500.02235174447,-187500.02235174447,-187500.02235174447,-187500.02235174447
talvez,100.3146291154181,-10568.530627313929,5993.888496624052,9866.976424095204,-187500.02235174447,-187500.02235174447,-187500.02235174447,-187500.02235174447
talvez,129.32719341840667,-10551.61035676126,6108.977628824428,9854.012412311127,-187500.02235174447,-187500.02235174447,-187500.02235174447,-187500.02235174447
talvez,13.478101906550158,-10584.467421110561,5845.271747740716,9893.016206385637,-187500.02235174447,-187500.02235174447,-187500.02235174447,-187500.02235174447
talvez,-44.859951121801274,-10613.10000575781,5639.255719096151,9890.713976706742,-187500.02235174447,-187500.02235174447,-187500.02235174447,-187500.02235174447
talvez,81.91914342870038,-10585.652063566693,5924.620440557056,9857.365173979422,-187500.02235174447,-187500.02235174447,-187500.02235174447,-187500.02235174447
talvez,134.62455685431445,-10549.576348015828,6124.109759820672,9867.691679917774,-187500.02235174447,-187500.02235174447,-187500.02235174447,-187500.02235174447
talvez,29.504302681005324,-10555.432505063118,5896.636056499012,9896.19015409829,-187500.02235174447,-187500.02235174447,-187500.02235174447,-187500.02235174447
talvez,-59.165067573197796,-10584.199200177098,5641.4908935416815,9911.121119394436,-187500.02235174447,-187500.02235174447,-187500.02235174447,-187500.02235174447
talvez,50.80551514691295,-10579.438278608117,5849.138599531484,9869.18924679628,-187500.02235174447,-187500.02235174447,-187500.02235174447,-187500.02235174447
talvez,146.20276048216348,-10554.314917840353,6108.329428235224,9855.018240811616,-187500.02235174447,-187500.02235174447,-187500.02235174447,-187500.02235174447
talvez,54.40414600421739,-10553.599662017783,5947.598033857112,9878.576979467509,-187500.02235174447,-187500.02235174447,-187500.02235174447,-187500.02235174447
talvez,-56.974596616577706,-10572.308072126874,5652.465600069238,9897.15127910987,-187500.02235174447,-187500.02235174447,-187500.02235174447,-187500.02235174447
talvez,19.9377560541339,-10562.294490610897,5782.57510454358,9868.742211907174,-187500.02235174447,-187500.02235174447,-187500.02235174447,-187500.02235174447
talvez,148.88496981680035,-10533.281926307909,6094.672512373032,9860.405011225344,-187500.02235174447,-187500.02235174447,-187500.02235174447,-187500.02235174447
talvez,77.11351837080936,-10534.019533874934,6005.846679907641,9874.888941632384,-187500.02235174447,-187500.02235174447,-187500.02235174447,-187500.02235174447
talvez,-50.80551514691295,-10554.717249240548,5685.322664418539,9921.805253244072,-187500.02235174447,-187500.02235174447,-187500.02235174447,-187500.02235174447
talvez,-0.715255822569826,-10565.535493556918,5725.175824782351,9896.704244220764,-187500.02235174447,-187500.02235174447,-187500.02235174447,-187500.02235174447
talvez,133.39521090927255,-10537.037019376401,6061.413116623535,9853.677136144297,-187500.02235174447,-187500.02235174447,-187500.02235174447,-187500.02235174447
talvez,96.09014941336507,-10519.714417423536,6046.504503071846,9882.913217891839,-187500.02235174447,-187500.02235174447,-187500.02235174447,-187500.02235174447
talvez,-14.238061218030598,-10533.438388519096,5748.980432627253,9936.646811562397,-187500.02235174447,-187500.02235174447,-187500.02235174447,-187500.02235174447
talvez,-14.103950751298756,-10559.254653364975,5684.138021962407,9904.52735478012,-187500.02235174447,-187500.02235174447,-187500.02235174447,-187500.02235174447
talvez,120.98999273657714,-10529.348019283774,6029.472473796902,9862.215502526225,-187500.02235174447,-187500.02235174447,-187500.02235174447,-187500.02235174447
talvez,152.863580329845,-10527.381065771708,6089.933942548507,9872.407897997844,-187500.02235174447,-187500.02235174447,-187500.02235174447,-187500.02235174447
talvez,-8.046628003910543,-10548.503464281972,5787.447784834836,9902.96273266825,-187500.02235174447,-187500.02235174447,-187500.02235174447,-187500.02235174447
talvez,-28.409067202695276,-10551.27508059443,5658.724088516723,9913.512756051154,-187500.02235174447,-187500.02235174447,-187500.02235174447,-187500.02235174447
talvez,126.71203931713573,-10521.904888380157,5995.810746647209,9887.025938871615,-187500.02235174447,-187500.02235174447,-187500.02235174447,-187500.02235174447
talvez,143.16292323624174,-10504.425824216107,6132.223443057948,9886.3330347935,-187500.02235174447,-187500.02235174447,-187500.02235174447,-187500.02235174447
talvez,15.042724018421653,-10527.269307049432,5858.459276969347,9920.53120381012,-187500.02235174447,-187500.02235174447,-187500.02235174447,-187500.02235174447
talvez,-35.18164577265332,-10553.286737595408,5640.775637719112,9914.719750251741,-187500.02235174447,-187500.02235174447,-187500.02235174447,-187500.02235174447
talvez,97.92299245870024,-10531.627897218215,5912.774015995743,9869.301005518557,-187500.02235174447,-187500.02235174447,-187500.02235174447,-187500.02235174447
