WORD,Channel_1,Channel_2,Channel_3,Channel_4,Channel_5,Channel_6,Channel_7,Channel_8
não,30515.89793156361,-11776.95533954565,-16020.769300552523,-2339.9147200482753,-187500.02235174447,-187500.02235174447,-187500.02235174447,-187500.02235174447
não,30420.59009320618,-11879.751012295606,-16213.530744735093,-2436.206035161738,-187500.02235174447,-187500.02235174447,-187500.02235174447,-187500.02235174447
não,30311.37946979755,-11927.047303563037,-16498.98487317382,-2470.985349534196,-187500.02235174447,-187500.02235174447,-187500.02235174447,-187500.02235174447
não,30384.82730207769,-11837.640325741808,-16343.930821887354,-2388.529764238568,-187500.02235174447,-187500.02235174447,-187500.02235174447,-187500.02235174447
não,30498.195349955007,-11773.312005199434,-16047.45728343216,-2338.7077258476884,-187500.02235174447,-187500.02235174447,-187500.02235174447,-187500.02235174447
não,30430.067232855232,-11862.294299876012,-16165.9662325342,-2423.6443547778554,-187500.02235174447,-187500.02235174447,-187500.02235174447,-187500.02235174447
não,30299.533045236236,-11935.429207733776,-16501.443565063902,-2492.3536172334693,-187500.02235174447,-187500.02235174447,-187500.02235174447,-187500.02235174447
não,30375.819549062202,-11856.527549806542,-16391.785906766167,-2406.3217528249925,-187500.02235174447,-187500.02235174447,-187500.02235174447,-187500.02235174447
não,30516.121449008162,-11772.820266821416,-16067.104466808376,-2327.4200948977586,-187500.02235174447,-187500.02235174447,-187500.02235174447,-187500.02235174447
não,30487.354753894182,-11824.788072680007,-16085.23173156163,-2378.6502931893224,-187500.02235174447,-187500.02235174447,-187500.02235174447,-187500.02235174447
não,30317.32503382266,-11930.623582675886,-16458.550567454167,-2469.331320444503,-187500.02235174447,-187500.02235174447,-187500.02235174447,-187500.02235174447
não,30326.846876960622,-11884.73545130914,-16455.48837846379,-2441.525750342101,-187500.02235174447,-187500.02235174447,-187500.02235174447,-187500.02235174447
não,30466.567631550748,-11795.395528721278,-16137.646572309324,-2351.55997890949,-187500.02235174447,-187500.02235174447,-187500.02235174447,-187500.02235174447
não,30498.70944007748,-11821.301200544978,-16048.820739843935,-2370.8718861188754,-187500.02235174447,-187500.02235174447,-187500.02235174447,-187500.02235174447
não,30349.19862141593,-11928.41075997481,-16401.598322582046,-2459.0271662506066,-187500.02235174447,-187500.02235174447,-187500.02235174447,-187500.02235174447
não,30333.798269486222,-11881.78502104104,-16469.838198404097,-2424.9631077007184,-187500.02235174447,-187500.02235174447,-187500.02235174447,-187500.02235174447
não,30457.448119812983,-11789.405261207256,-16182.260654242118,-2357.3490807234148,-187500.02235174447,-187500.02235174447,-187500.02235174447,-187500.02235174447
não,30508.186579726527,-11798.658883411752,-16025.999608755066,-2366.6027029279117,-187500.02235174447,-187500.02235174447,-187500.02235174447,-187500.02235174447
não,30353.57956332917,-11921.12409128238,-16359.130008116963,-2473.466393168735,-187500.02235174447,-187500.02235174447,-187500.02235174447,-187500.02235174447
não,30307.356155795595,-11916.094948779935,-16508.12673665604,-2470.359500689447,-187500.02235174447,-187500.02235174447,-187500.02235174447,-187500.02235174447
não,30438.69500621498,-11812.025226596026,-16235.435454301294,-2365.3510052384145,-187500.02235174447,-187500.02235174447,-187500.02235174447,-187500.02235174447
não,30536.819164373777,-11787.639473395286,-15992.606102538837,-2319.2617081715716,-187500.02235174447,-187500.02235174447,-187500.02235174447,-187500.02235174447
não,30409.63773842308,-11907.400120186821,-16265.789123271601,-2442.0621922090286,-187500.02235174447,-187500.02235174447,-187500.02235174447,-187500.02235174447
não,30311.021841886264,-11937.105588567923,-16508.149088400496,-2473.7122623577434,-187500.02235174447,-187500.02235174447,-187500.02235174447,-187500.02235174447
não,30395.44438069396,-11834.958116407171,-16302.289521967117,-2384.394691514336,-187500.02235174447,-187500.02235174447,-187500.02235174447,-187500.02235174447
não,30503.157437224083,-11768.640490608275,-16019.78582379649,-2333.4103624117806,-187500.02235174447,-187500.02235174447,-187500.02235174447,-187500.02235174447
não,30415.44919198146,-11878.87929426185,-16199.627959683892,-2411.753226727632,-187500.02235174447,-187500.02235174447,-187500.02235174447,-187500.02235174447
não,30299.24247255832,-11931.227079776178,-16500.303626096684,-2477.7132246152432,-187500.02235174447,-187500.02235174447,-187500.02235174447,-187500.02235174447
não,30372.265621693805,-11844.569366522952,-16360.314650573095,-2427.265337379615,-187500.02235174447,-187500.02235174447,-187500.02235174447,-187500.02235174447
não,30505.951405280997,-11778.072926768415,-16050.094789277888,-2366.08861280544,-187500.02235174447,-187500.02235174447,-187500.02235174447,-187500.02235174447
não,30457.26930585734,-11864.618881299362,-16139.233546165651,-2415.1506918848386,-187500.02235174447,-187500.02235174447,-187500.02235174447,-187500.02235174447
não,30315.91687392198,-11948.393219517853,-16476.409611273957,-2479.143736260383,-187500.02235174447,-187500.02235174447,-187500.02235174447,-187500.02235174447
não,30363.034351233764,-11866.697593533707,-16395.205723667827,-2412.7367034836657,-187500.02235174447,-187500.02235174447,-187500.02235174447,-187500.02235174447
não,30485.03017247083,-11783.929083815705,-16085.924635639745,-2341.6134526268784,-187500.02235174447,-187500.02235174447,-187500.02235174447,-187500.02235174447
não,30463.21486988245,-11844.859939200871,-16090.171467086253,-2390.876697406375,-187500.02235174447,-187500.02235174447,-187500.02235174447,-187500.02235174447
não,30320.8566094466,-11938.759617657617,-16442.077331790606,-2468.1913814772824,-187500.02235174447,-187500.02235174447,-187500.02235174447,-187500.02235174447
não,30338.71565326639,-11879.21457042868,-16437.629334644,-2421.409180332325,-187500.02235174447,-187500.02235174447,-187500.02235174447,-187500.02235174447
não,30458.9903901804,-11791.148697274768,-16132.840947251434,-2356.700880134211,-187500.02235174447,-187500.02235174447,-187500.02235174447,-187500.02235174447
não,30485.790131782313,-11824.899831402283,-16042.204623485164,-2383.299456036026,-187500.02235174447,-187500.02235174447,-187500.02235174447,-187500.02235174447
não,30335.653464276013,-11940.726571169684,-16400.190162681363,-2476.148602503372,-187500.02235174447,-187500.02235174447,-187500.02235174447,-187500.02235174447
não,30321.393051313527,-11907.98126554266,-16478.98006188632,-2450.421744635313,-187500.02235174447,-187500.02235174447,-187500.02235174447,-187500.02235174447
não,30444.77468070682,-11807.398415493777,-16189.636729912369,-2369.7990023850207,-187500.02235174447,-187500.02235174447,-187500.02235174447,-187500.02235174447
não,30497.569501110258,-11807.733691660607,-16023.227992442608,-2366.3568337389033,-187500.02235174447,-187500.02235174447,-187500.02235174447,-187500.02235174447
não,30352.976066228875,-11927.024951818581,-16338.588754962535,-2465.531523887101,-187500.02235174447,-187500.02235174447,-187500.02235174447,-187500.02235174447
não,30304.115152849576,-11920.11826278189,-16493.77691671573,-2458.7365935726875,-187500.02235174447,-187500.02235174447,-187500.02235174447,-187500.02235174447
não,30423.942854874476,-11817.590810965397,-16236.64244850188,-2364.0099005710963,-187500.02235174447,-187500.02235174447,-187500.02235174447,-187500.02235174447
não,30508.32069019326,-11787.795935606473,-16006.397128867762,-2338.730077592144,-187500.02235174447,-187500.02235174447,-187500.02235174447,-187500.02235174447
não,30383.86617706611,-11903.220343973679,-16271.466466363248,-2442.8668550094194,-187500.02235174447,-187500.02235174447,-187500.02235174447,-187500.02235174447
não,30291.397010254506,-11936.077408322979,-16516.955675715886,-2477.400300192869,-187500.02235174447,-187500.02235174447,-187500.02235174447,-187500.02235174447
não,30390.795217847255,-11837.193290852701,-16308.100975525496,-2386.8086799155094,-187500.02235174447,-187500.02235174447,-187500.02235174447,-187500.02235174447
não,30493.859111530677,-11787.460659439643,-16035.230879215109,-2359.651310402311,-187500.02235174447,-187500.02235174447,-187500.02235174447,-187500.02235174447
não,30408.520151200315,-11886.434183887743,-16210.848535400455,-2453.1486574588607,-187500.02235174447,-187500.02235174447,-187500.02235174447,-187500.02235174447
não,30305.18803658343,-11940.3689432584,-16491.56409401466,-2474.852201324964,-187500.02235174447,-187500.02235174447,-187500.02235174447,-187500.02235174447
não,30384.670839866503,-11855.812293983972,-16339.013438107186,-2389.2226683166828,-187500.02235174447,-187500.02235174447,-187500.02235174447,-187500.02235174447
não,30503.783286068832,-11783.102069270859,-16039.142434494786,-2334.1032664898953,-187500.02235174447,-187500.02235174447,-187500.02235174447,-187500.02235174447
não,30440.058462626752,-11864.68593653273,-16142.63101132286,-2415.7318372406767,-187500.02235174447,-187500.02235174447,-187500.02235174447,-187500.02235174447
não,30291.486417232325,-11952.014202119613,-16492.72638472633,-2477.422651937324,-187500.02235174447,-187500.02235174447,-187500.02235174447,-187500.02235174447
não,30337.754528254813,-11871.056183702492,-16415.903439033442,-2416.1118168964167,-187500.02235174447,-187500.02235174447,-187500.02235174447,-187500.02235174447
não,30477.631745056126,-11783.325586715411,-16090.596150230904,-2367.7426418951322,-187500.02235174447,-187500.02235174447,-187500.02235174447,-187500.02235174447
não,30473.206099653973,-11840.747218221095,-16081.476638493139,-2413.9660494287073,-187500.02235174447,-187500.02235174447,-187500.02235174447,-187500.02235174447
não,30331.09370840713,-11941.687696181261,-16431.05792177414,-2479.3225502160253,-187500.02235174447,-187500.02235174447,-187500.02235174447,-187500.02235174447
não,30341.57667655667,-11887.73058506615,-16435.304753220647,-2428.651145535844,-187500.02235174447,-187500.02235174447,-187500.02235174447,-187500.02235174447
não,30467.104073417675,-11789.561723418443,-16134.763197274591,-2352.0964207764173,-187500.02235174447,-187500.02235174447,-187500.02235174447,-187500.02235174447
não,30483.353791636684,-11817.05436909847,-16047.770207854535,-2375.521048965579,-187500.02235174447,-187500.02235174447,-187500.02235174447,-187500.02235174447
não,30329.931417695454,-11937.038533334558,-16397.86558125801,-2468.3478436884698,-187500.02235174447,-187500.02235174447,-187500.02235174447,-187500.02235174447
não,30306.819713928668,-11908.562410898498,-16485.283253822716,-2447.225445178204,-187500.02235174447,-187500.02235174447,-187500.02235174447,-187500.02235174447
não,30443.388872550593,-11805.744386404085,-16191.469572957705,-2371.274217519071,-187500.02235174447,-187500.02235174447,-187500.02235174447,-187500.02235174447
não,30511.0028995279,-11800.201153779168,-16013.16970743772,-2370.9389413522413,-187500.02235174447,-187500.02235174447,-187500.02235174447,-187500.02235174447
não,30366.610630346615,-11924.007466317114,-16326.652923423402,-2475.3439397029806,-187500.02235174447,-187500.02235174447,-187500.02235174447,-187500.02235174447
não,30315.51454252178,-11916.877259835872,-16489.6418439915,-2463.2739976971147,-187500.02235174447,-187500.02235174447,-187500.02235174447,-187500.02235174447
não,30422.244122295873,-11815.2885812865,-16245.31492535054,-2380.0361013455513,-187500.02235174447,-187500.02235174447,-187500.02235174447,-187500.02235174447
não,30507.8513035597,-11792.802726364462,-16011.672140559214,-2357.974929568163,-187500.02235174447,-187500.02235174447,-187500.02235174447,-187500.02235174447
não,30397.992479561864,-11906.349588197421,-16262.279899392117,-2451.1817039467937,-187500.02235174447,-187500.02235174447,-187500.02235174447,-187500.02235174447
não,30309.434868029937,-11932.74699839914,-16501.331806341626,-2462.0670034965283,-187500.02235174447,-187500.02235174447,-187500.02235174447,-187500.02235174447
não,30395.533787671782,-11839.920203676249,-16309.017397048165,-2378.3820722558585,-187500.02235174447,-187500.02235174447,-187500.02235174447,-187500.02235174447
não,30494.417905142058,-11792.735671131095,-16035.588507126393,-2355.046851044518,-187500.02235174447,-187500.02235174447,-187500.02235174447,-187500.02235174447
não,30414.041032080775,-11883.975491997659,-16205.707634175735,-2445.169084688316,-187500.02235174447,-187500.02235174447,-187500.02235174447,-187500.02235174447
não,30306.573844739658,-11930.936507098259,-16498.91781794045,-2495.5052132016676,-187500.02235174447,-187500.02235174447,-187500.02235174447,-187500.02235174447
não,30374.590203117157,-11855.991107939615,-16359.152359861419,-2416.1565203853274,-187500.02235174447,-187500.02235174447,-187500.02235174447,-187500.02235174447
não,30500.31876567826,-11784.487877427087,-16050.765341611546,-2341.6805078602442,-187500.02235174447,-187500.02235174447,-187500.02235174447,-187500.02235174447
não,30460.42090182554,-11859.209759141178,-16132.706836784702,-2409.76392147111,-187500.02235174447,-187500.02235174447,-187500.02235174447,-187500.02235174447
não,30326.042214160232,-11944.906347382826,-16474.353250784072,-2480.618951394433,-187500.02235174447,-187500.02235174447,-187500.02235174447,-187500.02235174447
não,30369.605764103624,-11865.982337711137,-16400.90541850393,-2414.7930639735537,-187500.02235174447,-187500.02235174447,-187500.02235174447,-187500.02235174447
não,30494.060277230776,-11782.587979148386,-16087.578664729437,-2343.0886677609287,-187500.02235174447,-187500.02235174447,-187500.02235174447,-187500.02235174447
não,30463.03605592681,-11845.910471190271,-16088.606844974382,-2400.107967866417,-187500.02235174447,-187500.02235174447,-187500.02235174447,-187500.02235174447
não,30304.361022038585,-11953.243548064656,-16455.510730208247,-2492.532431189112,-187500.02235174447,-187500.02235174447,-187500.02235174447,-187500.02235174447
não,30347.835165004155,-11890.837477545438,-16438.97043931132,-2424.0913896669617,-187500.02235174447,-187500.02235174447,-187500.02235174447,-187500.02235174447
não,30489.41111438407,-11788.801764106962,-16121.106281412398,-2348.4530864302023,-187500.02235174447,-187500.02235174447,-187500.02235174447,-187500.02235174447
não,30494.194387697506,-11813.72395917463,-16034.60503037036,-2388.4850607496574,-187500.02235174447,-187500.02235174447,-187500.02235174447,-187500.02235174447
não,30343.945961468933,-11932.881108865871,-16380.699441516334,-2487.659750897855,-187500.02235174447,-187500.02235174447,-187500.02235174447,-187500.02235174447
não,30331.406632829505,-11908.115376009391,-16469.59232921509,-2460.077698240006,-187500.02235174447,-187500.02235174447,-187500.02235174447,-187500.02235174447
não,30456.621105268136,-11807.376063749321,-16190.39668922385,-2361.7523743811103,-187500.02235174447,-187500.02235174447,-187500.02235174447,-187500.02235174447
não,30489.18759693952,-11811.086453328902,-16031.498137891072,-2360.008938313596,-187500.02235174447,-187500.02235174447,-187500.02235174447,-187500.02235174447
não,30335.653464276013,-11934.289268766555,-16355.28550807065,-2488.687931142799,-187500.02235174447,-187500.02235174447,-187500.02235174447,-187500.02235174447
não,30295.643841701014,-11925.013294817603,-16509.803117490188,-2475.142774002883,-187500.02235174447,-187500.02235174447,-187500.02235174447,-187500.02235174447
não,30426.848581653667,-11821.882345900816,-16245.046704417075,-2370.0895750629397,-187500.02235174447,-187500.02235174447,-187500.02235174447,-187500.02235174447
não,30520.524742665857,-11795.395528721278,-15997.523486319005,-2340.1605892372836,-187500.02235174447,-187500.02235174447,-187500.02235174447,-187500.02235174447
não,30403.848636609157,-11909.031797532058,-16244.711428250246,-2431.825093248498,-187500.02235174447,-187500.02235174447,-187500.02235174447,-187500.02235174447
não,30313.27936807625,-11935.652725178328,-16493.26282659326,-2464.659805853344,-187500.02235174447,-187500.02235174447,-187500.02235174447,-187500.02235174447
não,30399.57945341819,-11843.764703722562,-16304.725862112746,-2391.9272293957747,-187500.02235174447,-187500.02235174447,-187500.02235174447,-187500.02235174447
não,30526.51501017988,-11786.454830939154,-16008.185268424186,-2342.8427985719204,-187500.02235174447,-187500.02235174447,-187500.02235174447,-187500.02235174447
não,30441.01958763833,-11874.677166304251,-16176.672718128291,-2455.1603144598384,-187500.02235174447,-187500.02235174447,-187500.02235174447,-187500.02235174447
não,30322.555342025204,-11936.479739723176,-16482.221064832338,-2518.0581233570724,-187500.02235174447,-187500.02235174447,-187500.02235174447,-187500.02235174447
não,30408.117819800118,-11856.169921895256,-16329.223374035762,-2418.9728401866964,-187500.02235174447,-187500.02235174447,-187500.02235174447,-187500.02235174447
não,30535.43335621755,-11779.212865735635,-16008.78876552448,-2367.854400617409,-187500.02235174447,-187500.02235174447,-187500.02235174447,-187500.02235174447
não,30480.98450672442,-11863.054259187491,-16080.113182081364,-2446.107857955439,-187500.02235174447,-187500.02235174447,-187500.02235174447,-187500.02235174447
não,30338.380377099562,-11960.954899901737,-16422.63131411449,-2511.8443383984973,-187500.02235174447,-187500.02235174447,-187500.02235174447,-187500.02235174447
não,30376.57950837368,-11874.632462815342,-16359.711153472801,-2453.9086167703413,-187500.02235174447,-187500.02235174447,-187500.02235174447,-187500.02235174447
não,30512.81339082878,-11764.818342306417,-16036.303762948963,-2374.492868720635,-187500.02235174447,-187500.02235174447,-187500.02235174447,-187500.02235174447
não,30519.80948684329,-11808.471299227633,-16001.569152065416,-2406.7464359696432,-187500.02235174447,-187500.02235174447,-187500.02235174447,-187500.02235174447
não,30385.20728173343,-11923.806300617016,-16339.482824740748,-2484.2175822517374,-187500.02235174447,-187500.02235174447,-187500.02235174447,-187500.02235174447
não,30385.7213718559,-11889.652835089308,-16355.821949937577,-2451.807552791542,-187500.02235174447,-187500.02235174447,-187500.02235174447,-187500.02235174447
não,30497.61420459917,-11794.680272898708,-16064.712830151659,-2374.604627442912,-187500.02235174447,-187500.02235174447,-187500.02235174447,-187500.02235174447
não,30524.14572526762,-11811.354674262366,-15968.332108060375,-2402.946639412241,-187500.02235174447,-187500.02235174447,-187500.02235174447,-187500.02235174447
não,30375.77484557329,-11927.293172752044,-16312.839545350022,-2498.679160914321,-187500.02235174447,-187500.02235174447,-187500.02235174447,-187500.02235174447
não,30359.212202931907,-11885.361300153889,-16394.33400563407,-2462.826962808009,-187500.02235174447,-187500.02235174447,-187500.02235174447,-187500.02235174447
não,30481.476245102436,-11787.393604206278,-16116.14419414332,-2400.33148531097,-187500.02235174447,-187500.02235174447,-187500.02235174447,-187500.02235174447
não,30549.313789524294,-11783.772621604518,-15927.607229662804,-2392.5754299849787,-187500.02235174447,-187500.02235174447,-187500.02235174447,-187500.02235174447
não,30404.943872087464,-11908.964742298693,-16239.615230514435,-2488.173841020327,-187500.02235174447,-187500.02235174447,-187500.02235174447,-187500.02235174447
não,30341.509621323305,-11911.043454533035,-16420.86552630252,-2489.626704409922,-187500.02235174447,-187500.02235174447,-187500.02235174447,-187500.02235174447
não,30450.40732030956,-11807.130194560314,-16184.495828687648,-2405.628848746878,-187500.02235174447,-187500.02235174447,-187500.02235174447,-187500.02235174447
não,30546.47511797847,-11769.445153408666,-15936.369113489285,-2360.500676691613,-187500.02235174447,-187500.02235174447,-187500.02235174447,-187500.02235174447
não,30437.957398647955,-11883.796678042017,-16167.91083430181,-2473.041710024084,-187500.02235174447,-187500.02235174447,-187500.02235174447,-187500.02235174447
não,30353.892487751546,-11905.746091097128,-16408.169735451906,-2520.0921321025053,-187500.02235174447,-187500.02235174447,-187500.02235174447,-187500.02235174447
não,30426.982692120397,-11815.780319664516,-16238.631753758402,-2454.0874307259837,-187500.02235174447,-187500.02235174447,-187500.02235174447,-187500.02235174447
não,30541.98241734295,-11768.081696996893,-15951.30007878543,-2395.7717294420877,-187500.02235174447,-187500.02235174447,-187500.02235174447,-187500.02235174447
não,30490.5957568402,-11857.622785284851,-16078.593263458404,-2441.011660219629,-187500.02235174447,-187500.02235174447,-187500.02235174447,-187500.02235174447
não,30376.266583951307,-11915.849079590927,-16380.72179326079,-2489.134966031905,-187500.02235174447,-187500.02235174447,-187500.02235174447,-187500.02235174447
não,30437.823288181222,-11829.303125059978,-16256.826073745022,-2421.878566965886,-187500.02235174447,-187500.02235174447,-187500.02235174447,-187500.02235174447
não,30559.550888484824,-11760.057420737437,-15951.903575885723,-2367.362662239392,-187500.02235174447,-187500.02235174447,-187500.02235174447,-187500.02235174447
não,30512.61222512868,-11837.528567019532,-16028.011265756044,-2446.6666515668217,-187500.02235174447,-187500.02235174447,-187500.02235174447,-187500.02235174447
não,30360.419197132494,-11923.739245383651,-16381.414697338903,-2518.885137901919,-187500.02235174447,-187500.02235174447,-187500.02235174447,-187500.02235174447
não,30397.009002805833,-11852.884215460326,-16323.076644310553,-2438.5976718184556,-187500.02235174447,-187500.02235174447,-187500.02235174447,-187500.02235174447
não,30515.674414119057,-11774.38488893329,-16017.573001095416,-2367.474420961669,-187500.02235174447,-187500.02235174447,-187500.02235174447,-187500.02235174447
não,30504.051507002296,-11823.066988356948,-15997.970521208112,-2434.753171772143,-187500.02235174447,-187500.02235174447,-187500.02235174447,-187500.02235174447
não,30376.53480488477,-11928.008428574614,-16340.265135796684,-2524.383667037924,-187500.02235174447,-187500.02235174447,-187500.02235174447,-187500.02235174447
não,30395.10910452713,-11869.580968568442,-16352.737409202744,-2469.912465800341,-187500.02235174447,-187500.02235174447,-187500.02235174447,-187500.02235174447
não,30511.38287918364,-11778.274092468511,-16061.13655103881,-2399.1244911103836,-187500.02235174447,-187500.02235174447,-187500.02235174447,-187500.02235174447
não,30525.41977470157,-11799.843525867884,-15962.028916123978,-2418.9281366977857,-187500.02235174447,-187500.02235174447,-187500.02235174447,-187500.02235174447
não,30384.179101488484,-11912.69748362273,-16303.138888256419,-2509.6315156974215,-187500.02235174447,-187500.02235174447,-187500.02235174447,-187500.02235174447
não,30370.63394434857,-11883.796678042017,-16394.08813644506,-2474.941608302785,-187500.02235174447,-187500.02235174447,-187500.02235174447,-187500.02235174447
não,30485.857187015677,-11782.878551826305,-16117.172374388263,-2392.2178020736937,-187500.02235174447,-187500.02235174447,-187500.02235174447,-187500.02235174447
não,30543.52468771037,-11778.877589568805,-15935.363284988796,-2385.4675752481908,-187500.02235174447,-187500.02235174447,-187500.02235174447,-187500.02235174447
não,30410.285939012283,-11900.1581549833,-16238.140015380386,-2487.9279718313187,-187500.02235174447,-187500.02235174447,-187500.02235174447,-187500.02235174447
não,30341.01788294529,-11905.2096492302,-16425.20176472685,-2489.4478904542793,-187500.02235174447,-187500.02235174447,-187500.02235174447,-187500.02235174447
não,30447.993331908387,-11805.00677883706,-16183.49000018716,-2399.5491742550344,-187500.02235174447,-187500.02235174447,-187500.02235174447,-187500.02235174447
não,30551.638370947647,-11779.838714580383,-15929.44007270814,-2382.919476380286,-187500.02235174447,-187500.02235174447,-187500.02235174447,-187500.02235174447
não,30433.531753245803,-11885.87539027636,-16175.085744271964,-2506.7034371737764,-187500.02235174447,-187500.02235174447,-187500.02235174447,-187500.02235174447
não,30326.489249049337,-11923.113396538902,-16443.150215524463,-2539.5605015230776,-187500.02235174447,-187500.02235174447,-187500.02235174447,-187500.02235174447
não,30425.82040140872,-11821.927049389727,-16245.247870117173,-2421.9456221992523,-187500.02235174447,-187500.02235174447,-187500.02235174447,-187500.02235174447
não,30556.645161705634,-11752.480179367087,-15942.694657170137,-2355.1362580223395,-187500.02235174447,-187500.02235174447,-187500.02235174447,-187500.02235174447
não,30480.403361368582,-11853.219491627156,-16095.804106688991,-2449.9970614906624,-187500.02235174447,-187500.02235174447,-187500.02235174447,-187500.02235174447
não,30350.115042938596,-11925.661495406806,-16415.09877623305,-2512.0231523541397,-187500.02235174447,-187500.02235174447,-187500.02235174447,-187500.02235174447
não,30420.12070657262,-11839.920203676249,-16285.101030480986,-2438.1506369293497,-187500.02235174447,-187500.02235174447,-187500.02235174447,-187500.02235174447
não,30544.172888299574,-11765.71241208463,-15966.275747570486,-2376.1916012992383,-187500.02235174447,-187500.02235174447,-187500.02235174447,-187500.02235174447
não,30486.88536726062,-11844.43525605622,-16049.580699155415,-2452.3216429140143,-187500.02235174447,-187500.02235174447,-187500.02235174447,-187500.02235174447
não,30339.05092943322,-11941.59828920344,-16417.15513672294,-2535.8277601990417,-187500.02235174447,-187500.02235174447,-187500.02235174447,-187500.02235174447
não,30386.123703256097,-11870.810314513483,-16356.537205760147,-2472.0582332680506,-187500.02235174447,-187500.02235174447,-187500.02235174447,-187500.02235174447
não,30534.18165852805,-11764.37130741731,-16023.876193031812,-2380.147860067828,-187500.02235174447,-187500.02235174447,-187500.02235174447,-187500.02235174447
não,30547.056263334307,-11808.113671316347,-15972.713049973614,-2405.539441769057,-187500.02235174447,-187500.02235174447,-187500.02235174447,-187500.02235174447
não,30391.219900991906,-11921.302905238023,-16331.23503103674,-2504.0659313280503,-187500.02235174447,-187500.02235174447,-187500.02235174447,-187500.02235174447
não,30372.39973216054,-11879.39338438432,-16381.23588338326,-2462.20111396326,-187500.02235174447,-187500.02235174447,-187500.02235174447,-187500.02235174447
não,30496.98835575442,-11783.727918115606,-16083.354185027383,-2368.9719878401743,-187500.02235174447,-187500.02235174447,-187500.02235174447,-187500.02235174447
não,30548.263257534894,-11799.843525867884,-15951.411837507707,-2393.201278829727,-187500.02235174447,-187500.02235174447,-187500.02235174447,-187500.02235174447
não,30389.901148069042,-11922.487547694152,-16305.75404235769,-2496.5110417021565,-187500.02235174447,-187500.02235174447,-187500.02235174447,-187500.02235174447
não,30374.120816483595,-11910.059977777002,-16404.235828427773,-2466.0009105206623,-187500.02235174447,-187500.02235174447,-187500.02235174447,-187500.02235174447
não,30514.065088518273,-11819.535412733008,-16127.72239777117,-2394.9447148972413,-187500.02235174447,-187500.02235174447,-187500.02235174447,-187500.02235174447
não,30567.32929555527,-11802.413976480244,-15946.53915721645,-2402.589011500956,-187500.02235174447,-187500.02235174447,-187500.02235174447,-187500.02235174447
não,30397.09840978365,-11901.566314883985,-16274.55100709808,-2491.236030010704,-187500.02235174447,-187500.02235174447,-187500.02235174447,-187500.02235174447
não,30333.842972975133,-11909.992922543637,-16476.051983362675,-2492.487727700201,-187500.02235174447,-187500.02235174447,-187500.02235174447,-187500.02235174447
não,30459.191555880494,-11800.804650879461,-16193.637692169868,-2417.6764390082885,-187500.02235174447,-187500.02235174447,-187500.02235174447,-187500.02235174447
não,30549.38084475766,-11785.13607801629,-15963.25826206902,-2391.4801945066683,-187500.02235174447,-187500.02235174447,-187500.02235174447,-187500.02235174447
não,30450.74259647639,-11902.97447478467,-16200.633788184381,-2470.20303847826,-187500.02235174447,-187500.02235174447,-187500.02235174447,-187500.02235174447
não,30369.851633292634,-11935.876242622882,-16432.756654352743,-2486.609218908455,-187500.02235174447,-187500.02235174447,-187500.02235174447,-187500.02235174447
não,30462.141986148596,-11848.480921802631,-16263.755114526168,-2441.235177664182,-187500.02235174447,-187500.02235174447,-187500.02235174447,-187500.02235174447
não,30570.659705479113,-11787.058328039448,-15978.993890165555,-2394.9223631527857,-187500.02235174447,-187500.02235174447,-187500.02235174447,-187500.02235174447
não,30494.574367353245,-11873.045488959015,-16118.535830800038,-2456.657881338344,-187500.02235174447,-187500.02235174447,-187500.02235174447,-187500.02235174447
não,30373.24909844984,-11938.2678792796,-16432.510785163737,-2499.617934181444,-187500.02235174447,-187500.02235174447,-187500.02235174447,-187500.02235174447
não,30448.529773775314,-11862.830741742939,-16323.166051288374,-2415.888299451864,-187500.02235174447,-187500.02235174447,-187500.02235174447,-187500.02235174447
não,30567.28459206636,-11792.75802287555,-16009.481669602594,-2360.0983452914174,-187500.02235174447,-187500.02235174447,-187500.02235174447,-187500.02235174447
não,30526.537361924336,-11868.82100925696,-16074.167618056254,-2446.264320166626,-187500.02235174447,-187500.02235174447,-187500.02235174447,-187500.02235174447
não,30391.35401145864,-11943.229966548679,-16421.849003058553,-2525.389495538413,-187500.02235174447,-187500.02235174447,-187500.02235174447,-187500.02235174447
não,30427.407375265047,-11879.259273917589,-16363.086266885552,-2440.4528666082465,-187500.02235174447,-187500.02235174447,-187500.02235174447,-187500.02235174447
não,30553.225344803974,-11808.71716841664,-16047.904318321267,-2375.498697221124,-187500.02235174447,-187500.02235174447,-187500.02235174447,-187500.02235174447
não,30541.84830687622,-11859.992070197115,-16030.760530324047,-2410.1215493823947,-187500.02235174447,-187500.02235174447,-187500.02235174447,-187500.02235174447
não,30402.909863342033,-11957.93741440027,-16384.342775862548,-2492.3759689779245,-187500.02235174447,-187500.02235174447,-187500.02235174447,-187500.02235174447
não,30412.208189035442,-11899.241733460634,-16417.825689056597,-2470.985349534196,-187500.02235174447,-187500.02235174447,-187500.02235174447,-187500.02235174447
não,30549.783176157856,-11806.057310826458,-16095.42412703325,-2397.2469445761376,-187500.02235174447,-187500.02235174447,-187500.02235174447,-187500.02235174447
não,30587.714086498512,-11817.546107476486,-15970.611985994816,-2422.7055815107324,-187500.02235174447,-187500.02235174447,-187500.02235174447,-187500.02235174447
não,30421.819439151222,-11939.161949057812,-16330.787996147634,-2528.4740362732455,-187500.02235174447,-187500.02235174447,-187500.02235174447,-187500.02235174447
não,30406.10616279914,-11919.112434281402,-16440.378599212003,-2494.3205707455363,-187500.02235174447,-187500.02235174447,-187500.02235174447,-187500.02235174447
não,30521.172943255064,-11835.71807571865,-16157.159645218808,-2399.660932977311,-187500.02235174447,-187500.02235174447,-187500.02235174447,-187500.02235174447
$SILENCE,30585.7694847309,-11835.025171640536,-15965.381677792273,-2356.633824900845,-187500.02235174447,-187500.02235174447,-187500.02235174447,-187500.02235174447
$SILENCE,30455.615276767647,-11930.623582675886,-16268.784257028612,-2460.167105217827,-187500.02235174447,-187500.02235174447,-187500.02235174447,-187500.02235174447
$SILENCE,30401.367592974617,-11942.246489792644,-16455.711895908345,-2505.0494080840836,-187500.02235174447,-187500.02235174447,-187500.02235174447,-187500.02235174447
$SILENCE,30506.912530292575,-11842.803578710984,-16215.58710522498,-2425.1195699119057,-187500.02235174447,-187500.02235174447,-187500.02235174447,-187500.02235174447
$SILENCE,30600.499284326947,-11816.942610376193,-15964.48760801406,-2378.270313533582,-187500.02235174447,-187500.02235174447,-187500.02235174447,-187500.02235174447
$SILENCE,30506.979585525944,-11926.220289018189,-16177.835008839967,-2464.9950820201734,-187500.02235174447,-187500.02235174447,-187500.02235174447,-187500.02235174447
$SILENCE,30380.356953186627,-11983.574865290508,-16459.712858165843,-2515.7335419337205,-187500.02235174447,-187500.02235174447,-187500.02235174447,-187500.02235174447
$SILENCE,30448.909753431053,-11871.659680802784,-16301.440155677816,-2436.563663073023,-187500.02235174447,-187500.02235174447,-187500.02235174447,-187500.02235174447
$SILENCE,30574.72772296998,-11792.04276705298,-15999.758660764535,-2350.6659091312777,-187500.02235174447,-187500.02235174447,-187500.02235174447,-187500.02235174447
$SILENCE,30516.680242619546,-11876.867637260872,-16129.398778605317,-2441.235177664182,-187500.02235174447,-187500.02235174447,-187500.02235174447,-187500.02235174447
$SILENCE,30415.53859895928,-11955.925757399293,-16411.857773287033,-2478.0932042709833,-187500.02235174447,-187500.02235174447,-187500.02235174447,-187500.02235174447
$SILENCE,30465.56180305026,-11871.950253480703,-16303.094184767508,-2426.684192023777,-187500.02235174447,-187500.02235174447,-187500.02235174447,-187500.02235174447
$SILENCE,30593.34672610125,-11813.00870335206,-16017.12596620631,-2368.726118651166,-187500.02235174447,-187500.02235174447,-187500.02235174447,-187500.02235174447
$SILENCE,30557.740397183945,-11879.92982625125,-16060.287184749508,-2437.9941747181624,-187500.02235174447,-187500.02235174447,-187500.02235174447,-187500.02235174447
$SILENCE,30400.518226685315,-11973.807152963538,-16412.751843065245,-2520.360353035969,-187500.02235174447,-187500.02235174447,-187500.02235174447,-187500.02235174447
$SILENCE,30429.463735754936,-11898.884105549349,-16362.862749441,-2451.2711109246147,-187500.02235174447,-187500.02235174447,-187500.02235174447,-187500.02235174447
$SILENCE,30563.23892631995,-11827.157357592268,-16064.489312707105,-2357.5502464235124,-187500.02235174447,-187500.02235174447,-187500.02235174447,-187500.02235174447
$SILENCE,30563.417740275592,-11866.138799922324,-16021.708073819647,-2419.6210407759,-187500.02235174447,-187500.02235174447,-187500.02235174447,-187500.02235174447
$SILENCE,30402.127552286096,-11974.790629719571,-16380.00653743822,-2494.3205707455363,-187500.02235174447,-187500.02235174447,-187500.02235174447,-187500.02235174447
$SILENCE,30398.998308062353,-11927.941373341248,-16429.24743047326,-2456.613177849433,-187500.02235174447,-187500.02235174447,-187500.02235174447,-187500.02235174447
$SILENCE,30527.587893913736,-11827.425578525732,-16124.816670991979,-2377.75622341111,-187500.02235174447,-187500.02235174447,-187500.02235174447,-187500.02235174447
$SILENCE,30590.597461533245,-11820.317723788945,-15971.148427861743,-2400.264430077604,-187500.02235174447,-187500.02235174447,-187500.02235174447,-187500.02235174447
$SILENCE,30461.583192537215,-11947.677963695283,-16280.518922867648,-2493.49355620069,-187500.02235174447,-187500.02235174447,-187500.02235174447,-187500.02235174447
$SILENCE,30415.628005937102,-11939.497225224643,-16433.941296808876,-2461.754079074154,-187500.02235174447,-187500.02235174447,-187500.02235174447,-187500.02235174447
$SILENCE,30530.113641037184,-11837.81913969745,-16161.428828409771,-2392.7095404517104,-187500.02235174447,-187500.02235174447,-187500.02235174447,-187500.02235174447
$SILENCE,30601.169836660607,-11829.86191867136,-15959.972555634089,-2377.488002477646,-187500.02235174447,-187500.02235174447,-187500.02235174447,-187500.02235174447
$SILENCE,30465.405340839072,-11943.185263059768,-16256.69196327829,-2477.176782748316,-187500.02235174447,-187500.02235174447,-187500.02235174447,-187500.02235174447
$SILENCE,30406.217921521416,-11961.13371385738,-16441.898517834965,-2482.7647188621427,-187500.02235174447,-187500.02235174447,-187500.02235174447,-187500.02235174447
$SILENCE,30503.962100024477,-11863.411887098777,-16233.40144555586,-2404.0642266350064,-187500.02235174447,-187500.02235174447,-187500.02235174447,-187500.02235174447
$SILENCE,30600.67809828259,-11819.91539238875,-15979.083297143377,-2366.6474064168224,-187500.02235174447,-187500.02235174447,-187500.02235174447,-187500.02235174447
$SILENCE,30484.359620137173,-11926.376751229376,-16190.888427601867,-2462.469334896724,-187500.02235174447,-187500.02235174447,-187500.02235174447,-187500.02235174447
$SILENCE,30385.654316622535,-11970.722612228707,-16461.657459933456,-2503.2165650387487,-187500.02235174447,-187500.02235174447,-187500.02235174447,-187500.02235174447
$SILENCE,30477.140006678106,-11875.347718637911,-16277.74730655519,-2411.976744172185,-187500.02235174447,-187500.02235174447,-187500.02235174447,-187500.02235174447
$SILENCE,30623.543932860368,-11814.707435930663,-15954.026991608978,-2340.719382848666,-187500.02235174447,-187500.02235174447,-187500.02235174447,-187500.02235174447
$SILENCE,30554.76761517139,-11913.92682956777,-16086.595187973404,-2428.271165880104,-187500.02235174447,-187500.02235174447,-187500.02235174447,-187500.02235174447
$SILENCE,30386.123703256097,-11984.42423157981,-16443.239622502282,-2513.4089605103686,-187500.02235174447,-187500.02235174447,-187500.02235174447,-187500.02235174447
$SILENCE,30436.30336955826,-11903.73443409615,-16356.425447037871,-2452.38869814738,-187500.02235174447,-187500.02235174447,-187500.02235174447,-187500.02235174447
$SILENCE,30584.227214363484,-11805.833793381906,-16028.190079711687,-2354.5774644109565,-187500.02235174447,-187500.02235174447,-187500.02235174447,-187500.02235174447
$SILENCE,30564.62473447618,-11877.091154705424,-16046.116178764843,-2391.56960148449,-187500.02235174447,-187500.02235174447,-187500.02235174447,-187500.02235174447
$SILENCE,30411.31411925723,-11961.916024913315,-16403.274703416195,-2491.884230599908,-187500.02235174447,-187500.02235174447,-187500.02235174447,-187500.02235174447
$SILENCE,30435.431651524505,-11909.54588765453,-16372.898682701432,-2437.6812502957882,-187500.02235174447,-187500.02235174447,-187500.02235174447,-187500.02235174447
$SILENCE,30570.86087117921,-11825.615087224853,-16048.619574143837,-2362.3782232258586,-187500.02235174447,-187500.02235174447,-187500.02235174447,-187500.02235174447
$SILENCE,30581.276784095382,-11861.780209753539,-15998.909294475234,-2408.400465059336,-187500.02235174447,-187500.02235174447,-187500.02235174447,-187500.02235174447
$SILENCE,30426.87093339812,-11971.013184906626,-16368.853016955021,-2514.7053616887765,-187500.02235174447,-187500.02235174447,-187500.02235174447,-187500.02235174447
$SILENCE,30416.16444780403,-11931.607059431919,-16423.43597691488,-2487.3691782199357,-187500.02235174447,-187500.02235174447,-187500.02235174447,-187500.02235174447
$SILENCE,30539.479021963958,-11831.135968105313,-16122.134461657342,-2395.078825363973,-187500.02235174447,-187500.02235174447,-187500.02235174447,-187500.02235174447
$SILENCE,30575.979420659474,-11836.813311196962,-15990.996776938055,-2390.116738094895,-187500.02235174447,-187500.02235174447,-187500.02235174447,-187500.02235174447
$SILENCE,30452.687198244003,-11973.94126343027,-16302.155411500386,-2473.466393168735,-187500.02235174447,-187500.02235174447,-187500.02235174447,-187500.02235174447
$SILENCE,30407.559026188737,-11953.89174865386,-16437.651686388457,-2445.146732943861,-187500.02235174447,-187500.02235174447,-187500.02235174447,-187500.02235174447
$SILENCE,30535.209838772997,-11843.921165933749,-16167.262633712608,-2356.924397578764,-187500.02235174447,-187500.02235174447,-187500.02235174447,-187500.02235174447
$SILENCE,30612.5245228439,-11813.209869052156,-15953.758770675513,-2353.8398568439316,-187500.02235174447,-187500.02235174447,-187500.02235174447,-187500.02235174447
$SILENCE,30477.564689822757,-11933.752826899628,-16241.69394274878,-2489.783166621109,-187500.02235174447,-187500.02235174447,-187500.02235174447,-187500.02235174447
$SILENCE,30396.20434000544,-11954.830521920983,-16454.30373600766,-2502.657771427366,-187500.02235174447,-187500.02235174447,-187500.02235174447,-187500.02235174447
$SILENCE,30485.9465939935,-11863.881273732339,-16248.466521318738,-2423.130264655383,-187500.02235174447,-187500.02235174447,-187500.02235174447,-187500.02235174447
$SILENCE,30603.807342506334,-11821.323552289434,-15970.142599361254,-2372.928246608764,-187500.02235174447,-187500.02235174447,-187500.02235174447,-187500.02235174447
$SILENCE,30497.971832510455,-11923.471024450188,-16184.361718220916,-2464.883323297897,-187500.02235174447,-187500.02235174447,-187500.02235174447,-187500.02235174447
$SILENCE,30389.521168413303,-11969.359155816932,-16464.20555880136,-2506.7704924071422,-187500.02235174447,-187500.02235174447,-187500.02235174447,-187500.02235174447
$SILENCE,30464.846547227688,-11880.39921288481,-16293.37117592945,-2418.503453553135,-187500.02235174447,-187500.02235174447,-187500.02235174447,-187500.02235174447
$SILENCE,30584.54013878586,-11810.572363206431,-15996.78587875198,-2369.1508017958167,-187500.02235174447,-187500.02235174447,-187500.02235174447,-187500.02235174447
$SILENCE,30504.252672702394,-11904.181468985256,-16134.338514129939,-2445.213788177227,-187500.02235174447,-187500.02235174447,-187500.02235174447,-187500.02235174447
$SILENCE,30384.804950333233,-11976.534065787086,-16447.933488837898,-2507.0163615961505,-187500.02235174447,-187500.02235174447,-187500.02235174447,-187500.02235174447
$SILENCE,30448.574477264225,-11890.68101533425,-16338.879327640454,-2434.52965432759,-187500.02235174447,-187500.02235174447,-187500.02235174447,-187500.02235174447
$SILENCE,30581.72381898449,-11805.766738148539,-16024.949076765666,-2359.7183656356774,-187500.02235174447,-187500.02235174447,-187500.02235174447,-187500.02235174447
$SILENCE,30554.94642912703,-11873.269006403567,-16050.519472422538,-2412.557889528023,-187500.02235174447,-187500.02235174447,-187500.02235174447,-187500.02235174447
$SILENCE,30393.790351604268,-11971.639033751373,-16427.794567083667,-2517.9240128903407,-187500.02235174447,-187500.02235174447,-187500.02235174447,-187500.02235174447
$SILENCE,30414.510418714337,-11919.715931381696,-16400.838363270566,-2456.233198193693,-187500.02235174447,-187500.02235174447,-187500.02235174447,-187500.02235174447
$SILENCE,30552.688902937047,-11825.883308158316,-16078.61561520286,-2362.0429470590293,-187500.02235174447,-187500.02235174447,-187500.02235174447,-187500.02235174447
$SILENCE,30575.08535088126,-11848.905604947282,-16007.112384690332,-2390.47436600618,-187500.02235174447,-187500.02235174447,-187500.02235174447,-187500.02235174447
$SILENCE,30418.64549143857,-11960.105533612435,-16365.43320005336,-2493.6276666674216,-187500.02235174447,-187500.02235174447,-187500.02235174447,-187500.02235174447
$SILENCE,30405.16738953202,-11920.31942848199,-16429.359189195537,-2467.9678640327293,-187500.02235174447,-187500.02235174447,-187500.02235174447,-187500.02235174447
$SILENCE,30525.665643890577,-11822.463491256654,-16140.217022921684,-2401.9631626562077,-187500.02235174447,-187500.02235174447,-187500.02235174447,-187500.02235174447
$SILENCE,30578.974554416487,-11833.549956506486,-15980.78202972198,-2407.9981336591404,-187500.02235174447,-187500.02235174447,-187500.02235174447,-187500.02235174447
$SILENCE,30424.479296741403,-11954.919928898804,-16309.218562748261,-2512.8725186434413,-187500.02235174447,-187500.02235174447,-187500.02235174447,-187500.02235174447
$SILENCE,30380.781636331278,-11934.535137955563,-16451.085084806095,-2480.328378716514,-187500.02235174447,-187500.02235174447,-187500.02235174447,-187500.02235174447
$SILENCE,30500.363469167172,-11833.885232673316,-16192.028366569088,-2388.2838950495598,-187500.02235174447,-187500.02235174447,-187500.02235174447,-187500.02235174447
$SILENCE,30590.440999322058,-11820.138909833302,-15964.085276613865,-2344.563882894979,-187500.02235174447,-187500.02235174447,-187500.02235174447,-187500.02235174447
$SILENCE,30451.323741832228,-11935.988001345158,-16257.563681312047,-2469.353672188958,-187500.02235174447,-187500.02235174447,-187500.02235174447,-187500.02235174447
$SILENCE,30366.230650690875,-11953.2211963202,-16480.991718887297,-2493.761777134154,-187500.02235174447,-187500.02235174447,-187500.02235174447,-187500.02235174447
$SILENCE,30471.440311842005,-11848.749142736095,-16251.752227753668,-2399.7950434440427,-187500.02235174447,-187500.02235174447,-187500.02235174447,-187500.02235174447
$SILENCE,30578.661629994112,-11796.267246755035,-15981.854913455834,-2385.601685714923,-187500.02235174447,-187500.02235174447,-187500.02235174447,-187500.02235174447
$SILENCE,30487.17593993854,-11915.647913890829,-16176.583311150469,-2479.814288594042,-187500.02235174447,-187500.02235174447,-187500.02235174447,-187500.02235174447
$SILENCE,30379.351124686138,-11962.117190613413,-16454.72841915231,-2514.7724169221424,-187500.02235174447,-187500.02235174447,-187500.02235174447,-187500.02235174447
$SILENCE,30451.815480210244,-11865.624709799851,-16307.139850513919,-2443.9620904877297,-187500.02235174447,-187500.02235174447,-187500.02235174447,-187500.02235174447
$SILENCE,30572.179624102075,-11794.970845576627,-16006.106556189843,-2379.3431972674366,-187500.02235174447,-187500.02235174447,-187500.02235174447,-187500.02235174447
$SILENCE,30513.171018740064,-11887.21649494368,-16116.211249376685,-2440.139942185872,-187500.02235174447,-187500.02235174447,-187500.02235174447,-187500.02235174447
$SILENCE,30371.125682726586,-11964.709992970229,-16448.73815163829,-2495.5052132016676,-187500.02235174447,-187500.02235174447,-187500.02235174447,-187500.02235174447
$SILENCE,30411.627043679604,-11885.629521087352,-16371.66933675639,-2443.6715178098107,-187500.02235174447,-187500.02235174447,-187500.02235174447,-187500.02235174447
$SILENCE,30530.784193370844,-11807.018435838037,-16062.298841750486,-2381.1313368238616,-187500.02235174447,-187500.02235174447,-187500.02235174447,-187500.02235174447
$SILENCE,30526.13503052414,-11861.467285331164,-16058.32023123744,-2426.8630059794195,-187500.02235174447,-187500.02235174447,-187500.02235174447,-187500.02235174447
$SILENCE,30391.91280507002,-11947.633260206374,-16409.33202616358,-2507.552803463078,-187500.02235174447,-187500.02235174447,-187500.02235174447,-187500.02235174447
$SILENCE,30416.119744315118,-11887.037680988036,-16391.472982343792,-2459.2506836951598,-187500.02235174447,-187500.02235174447,-187500.02235174447,-187500.02235174447
$SILENCE,30542.00476908741,-11804.3362265034,-16082.504818738082,-2381.9359996242524,-187500.02235174447,-187500.02235174447,-187500.02235174447,-187500.02235174447
$SILENCE,30547.726815667967,-11844.502311289587,-16018.467070873628,-2417.4752733081905,-187500.02235174447,-187500.02235174447,-187500.02235174447,-187500.02235174447
$SILENCE,30380.91574679801,-11958.98794638967,-16392.81408701111,-2522.774341437142,-187500.02235174447,-187500.02235174447,-187500.02235174447,-187500.02235174447
$SILENCE,30374.657258350526,-11918.084254036457,-16447.844081860076,-2466.336186687492,-187500.02235174447,-187500.02235174447,-187500.02235174447,-187500.02235174447
$SILENCE,30511.94167279502,-11809.119499816836,-16134.919659485777,-2368.9719878401743,-187500.02235174447,-187500.02235174447,-187500.02235174447,-187500.02235174447
$SILENCE,30558.65681870661,-11812.494613229586,-15987.107573402833,-2396.6210957313892,-187500.02235174447,-187500.02235174447,-187500.02235174447,-187500.02235174447
$SILENCE,30415.225674536905,-11928.589573930452,-16320.550897187102,-2497.941553347296,-187500.02235174447,-187500.02235174447,-187500.02235174447,-187500.02235174447
$SILENCE,30376.803025818233,-11924.74507388414,-16461.478645977815,-2480.1272130164166,-187500.02235174447,-187500.02235174447,-187500.02235174447,-187500.02235174447
$SILENCE,30490.7969225403,-11829.660752971264,-16202.01959634061,-2407.2605260921155,-187500.02235174447,-187500.02235174447,-187500.02235174447,-187500.02235174447
$SILENCE,30566.211708332507,-11804.492688714587,-15980.312643088419,-2382.1818688132607,-187500.02235174447,-187500.02235174447,-187500.02235174447,-187500.02235174447
$SILENCE,30429.888418899587,-11924.11922503939,-16262.302251136573,-2486.0280735526176,-187500.02235174447,-187500.02235174447,-187500.02235174447,-187500.02235174447
$SILENCE,30356.95467674192,-11940.45835023622,-16477.72836419682,-2496.108710301961,-187500.02235174447,-187500.02235174447,-187500.02235174447,-187500.02235174447
$SILENCE,30459.526832047326,-11832.253555328078,-16260.245890646684,-2402.0525696340287,-187500.02235174447,-187500.02235174447,-187500.02235174447,-187500.02235174447
$SILENCE,30575.890013681656,-11796.490764199587,-15981.854913455834,-2371.721252408177,-187500.02235174447,-187500.02235174447,-187500.02235174447,-187500.02235174447
$SILENCE,30481.297431146795,-11902.907419551304,-16181.321880974994,-2469.666596611333,-187500.02235174447,-187500.02235174447,-187500.02235174447,-187500.02235174447
$SILENCE,30364.06253147871,-11947.923832884293,-16473.68269845041,-2505.87642262893,-187500.02235174447,-187500.02235174447,-187500.02235174447,-187500.02235174447
$SILENCE,30431.050709611263,-11849.598509025396,-16317.08637679653,-2436.0942764394613,-187500.02235174447,-187500.02235174447,-187500.02235174447,-187500.02235174447
$SILENCE,30559.260315806907,-11783.303234970956,-16007.06768120142,-2384.4617467477024,-187500.02235174447,-187500.02235174447,-187500.02235174447,-187500.02235174447
$SILENCE,30510.064126260775,-11869.379802868343,-16110.220981862663,-2441.749267786654,-187500.02235174447,-187500.02235174447,-187500.02235174447,-187500.02235174447
$SILENCE,30376.82537756269,-11945.867472394404,-16442.189090512882,-2497.8074428805644,-187500.02235174447,-187500.02235174447,-187500.02235174447,-187500.02235174447
$SILENCE,30428.234389809895,-11870.296224391011,-16348.222356822773,-2436.5413113285676,-187500.02235174447,-187500.02235174447,-187500.02235174447,-187500.02235174447
$SILENCE,30545.53634471135,-11797.161316533246,-16043.03163803001,-2378.918514122786,-187500.02235174447,-187500.02235174447,-187500.02235174447,-187500.02235174447
$SILENCE,30509.03594601583,-11861.310823119979,-16076.916882624255,-2434.8649304944197,-187500.02235174447,-187500.02235174447,-187500.02235174447,-187500.02235174447
$SILENCE,30363.57079310069,-11955.74694344365,-16431.43790142988,-2506.099940073483,-187500.02235174447,-187500.02235174447,-187500.02235174447,-187500.02235174447
$SILENCE,30400.518226685315,-11887.976454255158,-16397.284435902173,-2459.6306633509,-187500.02235174447,-187500.02235174447,-187500.02235174447,-187500.02235174447
$SILENCE,30530.42656545956,-11792.378043219811,-16084.963510628166,-2377.800926900021,-187500.02235174447,-187500.02235174447,-187500.02235174447,-187500.02235174447
$SILENCE,30546.072786578276,-11831.739465205606,-16009.906352747244,-2403.23721209016,-187500.02235174447,-187500.02235174447,-187500.02235174447,-187500.02235174447
$SILENCE,30389.49881666885,-11948.482626495676,-16366.304918087117,-2505.7423121621982,-187500.02235174447,-187500.02235174447,-187500.02235174447,-187500.02235174447
$SILENCE,30385.877834067087,-11909.322370209977,-16432.801357841654,-2468.0572710105507,-187500.02235174447,-187500.02235174447,-187500.02235174447,-187500.02235174447
$SILENCE,30511.539341394826,-11804.559743947953,-16142.228679922662,-2384.752319425621,-187500.02235174447,-187500.02235174447,-187500.02235174447,-187500.02235174447
$SILENCE,30549.269086035383,-11811.980523107115,-15993.388413594774,-2397.5375172540566,-187500.02235174447,-187500.02235174447,-187500.02235174447,-187500.02235174447
$SILENCE,30406.933177343988,-11938.893728124349,-16314.203001761796,-2506.6810854293212,-187500.02235174447,-187500.02235174447,-187500.02235174447,-187500.02235174447
$SILENCE,30367.05766523572,-11920.364131970899,-16457.656497675955,-2490.856050354964,-187500.02235174447,-187500.02235174447,-187500.02235174447,-187500.02235174447
$SILENCE,30489.455817872982,-11812.852241140872,-16195.828163126489,-2387.3227700379816,-187500.02235174447,-187500.02235174447,-187500.02235174447,-187500.02235174447
$SILENCE,30574.459502036516,-11787.818287350929,-15968.577977249382,-2368.5249529510684,-187500.02235174447,-187500.02235174447,-187500.02235174447,-187500.02235174447
$SILENCE,30448.6862359865,-11908.473003920675,-16237.648277002369,-2487.9950270646846,-187500.02235174447,-187500.02235174447,-187500.02235174447,-187500.02235174447
$SILENCE,30365.44833963494,-11937.664382179306,-16464.227910545815,-2495.8404893684974,-187500.02235174447,-187500.02235174447,-187500.02235174447,-187500.02235174447
$SILENCE,30463.281925115818,-11836.00864839657,-16253.294498121084,-2405.2935725800485,-187500.02235174447,-187500.02235174447,-187500.02235174447,-187500.02235174447
$SILENCE,30574.794778203344,-11793.987368820593,-15976.289329086463,-2374.2246477871713,-187500.02235174447,-187500.02235174447,-187500.02235174447,-187500.02235174447
$SILENCE,30471.820291497745,-11899.197029971723,-16176.873883828388,-2485.916314830341,-187500.02235174447,-187500.02235174447,-187500.02235174447,-187500.02235174447
$SILENCE,30355.322999396685,-11942.000620603636,-16471.313413538148,-2525.724771705243,-187500.02235174447,-187500.02235174447,-187500.02235174447,-187500.02235174447
$SILENCE,30434.26936081283,-11852.39247708231,-16314.046539550609,-2434.3731921164026,-187500.02235174447,-187500.02235174447,-187500.02235174447,-187500.02235174447
$SILENCE,30551.727777925465,-11791.394566463778,-16008.40878586874,-2364.5910459269344,-187500.02235174447,-187500.02235174447,-187500.02235174447,-187500.02235174447
$SILENCE,30496.429562143036,-11871.100887191402,-16103.38134805934,-2435.6472415503554,-187500.02235174447,-187500.02235174447,-187500.02235174447,-187500.02235174447
$SILENCE,30372.310325182716,-11941.419475247798,-16436.48939567678,-2512.045504098595,-187500.02235174447,-187500.02235174447,-187500.02235174447,-187500.02235174447
$SILENCE,30416.767944904324,-11869.424506357254,-16362.840397696544,-2455.4955906266678,-187500.02235174447,-187500.02235174447,-187500.02235174447,-187500.02235174447
$SILENCE,30548.710292424,-11779.659900624742,-16044.439797930694,-2375.2528280321158,-187500.02235174447,-187500.02235174447,-187500.02235174447,-187500.02235174447
$SILENCE,30534.405175972603,-11838.82496819794,-16045.020943286532,-2422.0350291770733,-187500.02235174447,-187500.02235174447,-187500.02235174447,-187500.02235174447
$SILENCE,30383.933232299478,-11946.716838683706,-16400.90541850393,-2519.913318146863,-187500.02235174447,-187500.02235174447,-187500.02235174447,-187500.02235174447
$SILENCE,30397.992479561864,-11896.850096803915,-16404.660511572423,-2491.526602688623,-187500.02235174447,-187500.02235174447,-187500.02235174447,-187500.02235174447
$SILENCE,30533.913437594587,-11797.362482233344,-16089.61267347487,-2394.1847555857607,-187500.02235174447,-187500.02235174447,-187500.02235174447,-187500.02235174447
$SILENCE,30562.233097819462,-11825.503328502577,-15993.723689761602,-2401.1137963669057,-187500.02235174447,-187500.02235174447,-187500.02235174447,-187500.02235174447
$SILENCE,30402.64164240857,-11944.191091560257,-16354.905528414909,-2496.265172513148,-187500.02235174447,-187500.02235174447,-187500.02235174447,-187500.02235174447
$SILENCE,30390.90697656953,-11897.051262504014,-16428.509822906235,-2469.398375677869,-187500.02235174447,-187500.02235174447,-187500.02235174447,-187500.02235174447
$SILENCE,30515.026213529854,-11796.803688621962,-16141.692238055735,-2398.8786219213753,-187500.02235174447,-187500.02235174447,-187500.02235174447,-187500.02235174447
$SILENCE,30555.795795416332,-11811.153508562269,-15990.59444553786,-2415.7988924740425,-187500.02235174447,-187500.02235174447,-187500.02235174447,-187500.02235174447
$SILENCE,30410.129476801096,-11930.154196042324,-16318.874516352955,-2517.789902423609,-187500.02235174447,-187500.02235174447,-187500.02235174447,-187500.02235174447
$SILENCE,30381.809816576224,-11929.237774519655,-16457.432980231402,-2509.2738877861366,-187500.02235174447,-187500.02235174447,-187500.02235174447,-187500.02235174447
$SILENCE,30503.872693046655,-11820.697703444685,-16193.68239565878,-2424.0243344335954,-187500.02235174447,-187500.02235174447,-187500.02235174447,-187500.02235174447
$SILENCE,30592.922042956598,-11786.164258261235,-15958.9667271336,-2405.2488690911377,-187500.02235174447,-187500.02235174447,-187500.02235174447,-187500.02235174447
$SILENCE,30467.528756562326,-11913.368035956388,-16228.439358286781,-2507.4410447408018,-187500.02235174447,-187500.02235174447,-187500.02235174447,-187500.02235174447
$SILENCE,30380.334601442173,-11931.897632109838,-16460.092837821583,-2510.5702889645445,-187500.02235174447,-187500.02235174447,-187500.02235174447,-187500.02235174447
$SILENCE,30480.291602646306,-11822.48584300111,-16247.415989329338,-2415.821244218498,-187500.02235174447,-187500.02235174447,-187500.02235174447,-187500.02235174447
$SILENCE,30588.786970232366,-11780.106935513848,-15967.013355137511,-2379.2761420340707,-187500.02235174447,-187500.02235174447,-187500.02235174447,-187500.02235174447
$SILENCE,30488.919376006055,-11890.904532778804,-16160.937090031755,-2472.661730368344,-187500.02235174447,-187500.02235174447,-187500.02235174447,-187500.02235174447
$SILENCE,30367.34823791364,-11941.218309547701,-16465.189035557396,-2521.3214780475473,-187500.02235174447,-187500.02235174447,-187500.02235174447,-187500.02235174447
$SILENCE,30447.03220689681,-11856.01345968407,-16318.025150063653,-2459.787125562087,-187500.02235174447,-187500.02235174447,-187500.02235174447,-187500.02235174447
$SILENCE,30582.751999229433,-11784.42082219372,-16007.313550390429,-2421.3868285878693,-187500.02235174447,-187500.02235174447,-187500.02235174447,-187500.02235174447
$SILENCE,30527.096155535717,-11864.30595687699,-16099.38038580184,-2496.8910213578965,-187500.02235174447,-187500.02235174447,-187500.02235174447,-187500.02235174447
$SILENCE,30389.275299224297,-11950.784856174572,-16444.31250623614,-2559.520609321667,-187500.02235174447,-187500.02235174447,-187500.02235174447,-187500.02235174447
$SILENCE,30435.431651524505,-11878.275797161556,-16368.070705899085,-2486.139832274894,-187500.02235174447,-187500.02235174447,-187500.02235174447,-187500.02235174447
$SILENCE,30566.167004843595,-11776.41889767872,-16044.79742584198,-2410.657991249322,-187500.02235174447,-187500.02235174447,-187500.02235174447,-187500.02235174447
$SILENCE,30549.112623824196,-11834.734598962617,-16043.948059552678,-2453.975672003707,-187500.02235174447,-187500.02235174447,-187500.02235174447,-187500.02235174447
$SILENCE,30401.077020296696,-11948.03559160657,-16406.42629938439,-2541.3709928239577,-187500.02235174447,-187500.02235174447,-187500.02235174447,-187500.02235174447
$SILENCE,30422.065308340232,-11883.461401875187,-16400.614845826014,-2499.237954525704,-187500.02235174447,-187500.02235174447,-187500.02235174447,-187500.02235174447
$SILENCE,30549.224382546472,-11788.578246662408,-16094.66416772177,-2416.558851785523,-187500.02235174447,-187500.02235174447,-187500.02235174447,-187500.02235174447
$SILENCE,30572.023161890887,-11813.679255685718,-16009.593428324872,-2450.2429306796707,-187500.02235174447,-187500.02235174447,-187500.02235174447,-187500.02235174447
$SILENCE,30431.989482878387,-11928.790739630549,-16354.905528414909,-2545.237844614726,-187500.02235174447,-187500.02235174447,-187500.02235174447,-187500.02235174447
$SILENCE,30417.63966293808,-11902.080405006458,-16429.806224084645,-2518.1251785904383,-187500.02235174447,-187500.02235174447,-187500.02235174447,-187500.02235174447
$SILENCE,30538.8084696303,-11808.225430038623,-16148.062485225499,-2447.828942278498,-187500.02235174447,-187500.02235174447,-187500.02235174447,-187500.02235174447
$SILENCE,30598.018240692407,-11809.47712772812,-15972.645994740249,-2421.118607654406,-187500.02235174447,-187500.02235174447,-187500.02235174447,-187500.02235174447
$SILENCE,30447.07691038572,-11914.440919690243,-16291.292463695107,-2510.3467715199913,-187500.02235174447,-187500.02235174447,-187500.02235174447,-187500.02235174447
$SILENCE,30397.232520250385,-11909.903515565815,-16454.147273796472,-2519.198062324293,-187500.02235174447,-187500.02235174447,-187500.02235174447,-187500.02235174447
$SILENCE,30502.956271523988,-11812.226392296123,-16206.53464872058,-2440.072886952506,-187500.02235174447,-187500.02235174447,-187500.02235174447,-187500.02235174447
$SILENCE,30592.854987723233,-11779.503438413554,-15964.509959758516,-2419.844558220453,-187500.02235174447,-187500.02235174447,-187500.02235174447,-187500.02235174447
$SILENCE,30481.02921021333,-11892.223285701668,-16220.146861093863,-2534.397248553902,-187500.02235174447,-187500.02235174447,-187500.02235174447,-187500.02235174447
$SILENCE,30391.666935881014,-11921.615829660395,-16468.11711408104,-2553.999728441206,-187500.02235174447,-187500.02235174447,-187500.02235174447,-187500.02235174447
$SILENCE,30473.60843105417,-11832.72294196164,-16278.730783311223,-2479.814288594042,-187500.02235174447,-187500.02235174447,-187500.02235174447,-187500.02235174447
$SILENCE,30596.788894747366,-11785.985444305594,-15978.412744809717,-2411.730874983177,-187500.02235174447,-187500.02235174447,-187500.02235174447,-187500.02235174447
$SILENCE,30519.496562420914,-11886.68005307675,-16142.988639234143,-2497.002780080173,-187500.02235174447,-187500.02235174447,-187500.02235174447,-187500.02235174447
$SILENCE,30409.078944811696,-11934.535137955563,-16440.40095095646,-2549.685841761332,-187500.02235174447,-187500.02235174447,-187500.02235174447,-187500.02235174447
$SILENCE,30485.36544863766,-11836.902718174782,-16295.293425952606,-2467.811401821542,-187500.02235174447,-187500.02235174447,-187500.02235174447,-187500.02235174447
$SILENCE,30600.164008160118,-11764.304252183945,-15991.577922293893,-2417.654087263833,-187500.02235174447,-187500.02235174447,-187500.02235174447,-187500.02235174447
$SILENCE,30541.960065598498,-11850.716096248163,-16088.696251952202,-2509.0280185971283,-187500.02235174447,-187500.02235174447,-187500.02235174447,-187500.02235174447
$SILENCE,30394.036220793274,-11939.877204880382,-16444.468968447323,-2587.3038276796137,-187500.02235174447,-187500.02235174447,-187500.02235174447,-187500.02235174447
$SILENCE,30445.40052955157,-11864.238901643623,-16363.28743258565,-2511.30789653157,-187500.02235174447,-187500.02235174447,-187500.02235174447,-187500.02235174447
$SILENCE,30608.322394886305,-11778.452906424154,-16016.83539352839,-2407.484043536668,-187500.02235174447,-187500.02235174447,-187500.02235174447,-187500.02235174447
$SILENCE,30600.253415137937,-11832.43236928372,-16004.810155011435,-2453.8639132814305,-187500.02235174447,-187500.02235174447,-187500.02235174447,-187500.02235174447
$SILENCE,30436.951570147467,-11933.529309455074,-16375.893816458443,-2561.0852314335384,-187500.02235174447,-187500.02235174447,-187500.02235174447,-187500.02235174447
$SILENCE,30444.372349306628,-11880.332157651445,-16390.6683195434,-2522.841396670508,-187500.02235174447,-187500.02235174447,-187500.02235174447,-187500.02235174447
$SILENCE,30570.033856634363,-11789.539371673987,-16088.13745834082,-2450.108820212939,-187500.02235174447,-187500.02235174447,-187500.02235174447,-187500.02235174447
$SILENCE,30601.5721680608,-11810.013569595048,-15984.179494879187,-2471.007701278651,-187500.02235174447,-187500.02235174447,-187500.02235174447,-187500.02235174447
$SILENCE,30457.51517504635,-11927.829614618971,-16332.352618259505,-2568.1930861703263,-187500.02235174447,-187500.02235174447,-187500.02235174447,-187500.02235174447
$SILENCE,30437.443308525482,-11898.63823636034,-16421.938410036375,-2533.7713997091532,-187500.02235174447,-187500.02235174447,-187500.02235174447,-187500.02235174447
$SILENCE,30553.42651050407,-11794.590865920885,-16135.836081008445,-2435.401372361347,-187500.02235174447,-187500.02235174447,-187500.02235174447,-187500.02235174447
$SILENCE,30617.665424068622,-11792.087470541892,-15952.417666008196,-2450.9581865022406,-187500.02235174447,-187500.02235174447,-187500.02235174447,-187500.02235174447
$SILENCE,30482.705591047477,-11918.866565092394,-16263.688059292801,-2573.1104699504936,-187500.02235174447,-187500.02235174447,-187500.02235174447,-187500.02235174447
$SILENCE,30431.40833752255,-11911.892820822337,-16432.510785163737,-2567.231961158748,-187500.02235174447,-187500.02235174447,-187500.02235174447,-187500.02235174447
$SILENCE,30541.04364407583,-11813.031055096515,-16184.16055252082,-2470.001872778162,-187500.02235174447,-187500.02235174447,-187500.02235174447,-187500.02235174447
$SILENCE,30634.451584154558,-11783.817325093429,-15936.324410000374,-2427.600613546445,-187500.02235174447,-187500.02235174447,-187500.02235174447,-187500.02235174447
$SILENCE,30513.21572222897,-11894.078480491458,-16191.134296790875,-2511.4867104872123,-187500.02235174447,-187500.02235174447,-187500.02235174447,-187500.02235174447
$SILENCE,30409.347165745163,-11923.314562239,-16450.749808639266,-2555.273777875159,-187500.02235174447,-187500.02235174447,-187500.02235174447,-187500.02235174447
$SILENCE,30503.51506513537,-11831.538299505508,-16246.790140484589,-2484.7763758631204,-187500.02235174447,-187500.02235174447,-187500.02235174447,-187500.02235174447
$SILENCE,30616.927816501597,-11780.911598314238,-15955.122227087288,-2446.7784102890982,-187500.02235174447,-187500.02235174447,-187500.02235174447,-187500.02235174447
$SILENCE,30529.510143936892,-11876.532361094041,-16124.414339591784,-2537.8394172000194,-187500.02235174447,-187500.02235174447,-187500.02235174447,-187500.02235174447
$SILENCE,30407.044936066264,-11934.535137955563,-16430.700293862858,-2579.2124961867926,-187500.02235174447,-187500.02235174447,-187500.02235174447,-187500.02235174447
$SILENCE,30492.920338263553,-11833.48290127312,-16276.361498398961,-2478.8308118380087,-187500.02235174447,-187500.02235174447,-187500.02235174447,-187500.02235174447
$SILENCE,30624.63916833868,-11758.336336414379,-15960.464294012107,-2403.0583981345176,-187500.02235174447,-187500.02235174447,-187500.02235174447,-187500.02235174447
$SILENCE,30560.444958263037,-11838.892023431305,-16050.698286378181,-2499.3497132479806,-187500.02235174447,-187500.02235174447,-187500.02235174447,-187500.02235174447
$SILENCE,30412.766982646823,-11937.753789157128,-16403.5205726052,-2578.072557219572,-187500.02235174447,-187500.02235174447,-187500.02235174447,-187500.02235174447
não,30450.653189498567,-11860.528512064042,-16340.511004985692,-2497.4721667137346,-187500.02235174447,-187500.02235174447,-187500.02235174447,-187500.02235174447
não,30570.95027815703,-11756.682307324685,-16018.332960406897,-2423.040857677562,-187500.02235174447,-187500.02235174447,-187500.02235174447,-187500.02235174447
não,30551.99599885893,-11804.313874758946,-15996.8752857298,-2474.651035624866,-187500.02235174447,-187500.02235174447,-187500.02235174447,-187500.02235174447
não,30394.036220793274,-11917.279591236067,-16371.445819311837,-2568.1483826814156,-187500.02235174447,-187500.02235174447,-187500.02235174447,-187500.02235174447
não,30398.126590028598,-11877.717003550173,-16392.81408701111,-2524.8754054159413,-187500.02235174447,-187500.02235174447,-187500.02235174447,-187500.02235174447
não,30543.815260388288,-11777.692947112673,-16066.523321452538,-2434.3061368830367,-187500.02235174447,-187500.02235174447,-187500.02235174447,-187500.02235174447
não,30574.23598459196,-11808.38189224981,-15961.648936468237,-2435.557834572534,-187500.02235174447,-187500.02235174447,-187500.02235174447,-187500.02235174447
não,30400.45117145195,-11913.12216676738,-16323.769548388667,-2541.16982712386,-187500.02235174447,-187500.02235174447,-187500.02235174447,-187500.02235174447
não,30385.96724104491,-11849.48675030312,-16400.950121992842,-2524.383667037924,-187500.02235174447,-187500.02235174447,-187500.02235174447,-187500.02235174447
não,30503.51506513537,-11771.99325227657,-16120.212211634185,-2455.8085150490424,-187500.02235174447,-187500.02235174447,-187500.02235174447,-187500.02235174447
não,30561.607248974713,-11779.034051779992,-15948.48375898406,-2455.137962715383,-187500.02235174447,-187500.02235174447,-187500.02235174447,-187500.02235174447
não,30425.82040140872,-11918.866565092394,-16257.228405145217,-2555.3408331085247,-187500.02235174447,-187500.02235174447,-187500.02235174447,-187500.02235174447
não,30356.8652697641,-11923.113396538902,-16442.502014935257,-2532.720867719754,-187500.02235174447,-187500.02235174447,-187500.02235174447,-187500.02235174447
não,30465.897079217088,-11784.599636149364,-16187.379203722383,-2445.258491666137,-187500.02235174447,-187500.02235174447,-187500.02235174447,-187500.02235174447
não,30556.265182049894,-11747.048705464447,-15931.585840175849,-2392.821299173987,-187500.02235174447,-187500.02235174447,-187500.02235174447,-187500.02235174447
não,30449.088567386698,-11862.428410342744,-16167.19557847924,-2468.9960442776733,-187500.02235174447,-187500.02235174447,-187500.02235174447,-187500.02235174447
não,30348.662179549003,-11898.101794493414,-16429.627410129,-2517.4099227678685,-187500.02235174447,-187500.02235174447,-187500.02235174447,-187500.02235174447
não,30422.53469497379,-11799.687063656696,-16242.878585204911,-2460.792954062576,-187500.02235174447,-187500.02235174447,-187500.02235174447,-187500.02235174447
não,30521.262350232882,-11742.556004828932,-15965.53814000346,-2403.3489708124366,-187500.02235174447,-187500.02235174447,-187500.02235174447,-187500.02235174447
não,30432.525924745314,-11827.850261670383,-16126.962438459688,-2463.586922119489,-187500.02235174447,-187500.02235174447,-187500.02235174447,-187500.02235174447
não,30312.56411225368,-11882.92496000826,-16431.9296398079,-2515.8005971670864,-187500.02235174447,-187500.02235174447,-187500.02235174447,-187500.02235174447
não,30369.404598403526,-11829.593697737897,-16315.812327362577,-2456.9037505273523,-187500.02235174447,-187500.02235174447,-187500.02235174447,-187500.02235174447
não,30484.493730603903,-11768.685194097185,-16019.092919718376,-2396.1517090978277,-187500.02235174447,-187500.02235174447,-187500.02235174447,-187500.02235174447
não,30451.010817409853,-11821.882345900816,-16078.146228569298,-2442.7997997760535,-187500.02235174447,-187500.02235174447,-187500.02235174447,-187500.02235174447
não,30321.504810035804,-11895.866620047882,-16416.819860556112,-2500.601410937478,-187500.02235174447,-187500.02235174447,-187500.02235174447,-187500.02235174447
não,30369.76222631481,-11828.766683193051,-16359.599394750525,-2434.19437816076,-187500.02235174447,-187500.02235174447,-187500.02235174447,-187500.02235174447
não,30498.821198799757,-11738.4209321047,-16037.063722260444,-2385.2887612925483,-187500.02235174447,-187500.02235174447,-187500.02235174447,-187500.02235174447
não,30476.424750855538,-11794.90379034326,-16035.633210615304,-2445.146732943861,-187500.02235174447,-187500.02235174447,-187500.02235174447,-187500.02235174447
não,30335.541705553736,-11901.49925965062,-16368.42833381037,-2524.8083501825754,-187500.02235174447,-187500.02235174447,-187500.02235174447,-187500.02235174447
não,30331.697205507426,-11856.01345968407,-16408.7732325522,-2493.1582800338606,-187500.02235174447,-187500.02235174447,-187500.02235174447,-187500.02235174447
não,30451.97194242143,-11764.840694050872,-16109.259856851086,-2401.180851600272,-187500.02235174447,-187500.02235174447,-187500.02235174447,-187500.02235174447
não,30492.115675463163,-11781.42568843671,-15986.749945491547,-2400.8455754334423,-187500.02235174447,-187500.02235174447,-187500.02235174447,-187500.02235174447
não,30354.875964507577,-11888.311730421989,-16318.695702397312,-2494.879364356919,-187500.02235174447,-187500.02235174447,-187500.02235174447,-187500.02235174447
não,30330.445507817927,-11862.070782431458,-16424.53121239319,-2473.2205239797263,-187500.02235174447,-187500.02235174447,-187500.02235174447,-187500.02235174447
não,30436.59394223618,-11779.57049364692,-16166.167398234296,-2401.7172934671994,-187500.02235174447,-187500.02235174447,-187500.02235174447,-187500.02235174447
não,30493.725001063944,-11757.017583491515,-15983.933625690179,-2404.175985357283,-187500.02235174447,-187500.02235174447,-187500.02235174447,-187500.02235174447
não,30360.95563899942,-11867.77047726756,-16280.585978101013,-2519.421579768846,-187500.02235174447,-187500.02235174447,-187500.02235174447,-187500.02235174447
não,30315.76041171079,-11880.935654751738,-16444.938355080885,-2504.5800214505225,-187500.02235174447,-187500.02235174447,-187500.02235174447,-187500.02235174447
não,30422.869971140623,-11792.936836831193,-16208.389843510371,-2403.7960057015425,-187500.02235174447,-187500.02235174447,-187500.02235174447,-187500.02235174447
não,30494.50731211988,-11753.687173567674,-15980.312643088419,-2380.2149153011937,-187500.02235174447,-187500.02235174447,-187500.02235174447,-187500.02235174447
não,30388.940023057465,-11862.383706853832,-16211.183811567285,-2476.6850443702992,-187500.02235174447,-187500.02235174447,-187500.02235174447,-187500.02235174447
não,30297.968423124366,-11900.828707316961,-16466.574843713624,-2510.078550586528,-187500.02235174447,-187500.02235174447,-187500.02235174447,-187500.02235174447
não,30382.234499720875,-11790.299330985466,-16284.855161291976,-2422.14678789935,-187500.02235174447,-187500.02235174447,-187500.02235174447,-187500.02235174447
não,30486.12540794914,-11728.340295355356,-15999.78101250899,-2374.694034420733,-187500.02235174447,-187500.02235174447,-187500.02235174447,-187500.02235174447
não,30427.340320031682,-11836.075703629936,-16131.47749083966,-2441.391639875369,-187500.02235174447,-187500.02235174447,-187500.02235174447,-187500.02235174447
não,30305.791533683725,-11905.991960286137,-16441.11620677903,-2488.8667450984412,-187500.02235174447,-187500.02235174447,-187500.02235174447,-187500.02235174447
não,30366.521223368793,-11827.693799459195,-16327.971676346264,-2428.584090302478,-187500.02235174447,-187500.02235174447,-187500.02235174447,-187500.02235174447
não,30487.667678316557,-11751.742571800063,-16023.339751164885,-2372.0565285750067,-187500.02235174447,-187500.02235174447,-187500.02235174447,-187500.02235174447
não,30442.897134172577,-11825.950363391681,-16090.931426397734,-2445.4149538773245,-187500.02235174447,-187500.02235174447,-187500.02235174447,-187500.02235174447
não,30301.432943514938,-11906.036663775047,-16446.34651498157,-2526.551786250089,-187500.02235174447,-187500.02235174447,-187500.02235174447,-187500.02235174447
não,30334.312359608695,-11834.48872977361,-16393.998729467243,-2462.849314552464,-187500.02235174447,-187500.02235174447,-187500.02235174447,-187500.02235174447
não,30450.31791333174,-11752.413124133722,-16083.242426305107,-2395.9728951421853,-187500.02235174447,-187500.02235174447,-187500.02235174447,-187500.02235174447
não,30450.966113920942,-11802.4363282247,-16048.641925888292,-2430.2828228810818,-187500.02235174447,-187500.02235174447,-187500.02235174447,-187500.02235174447
não,30323.315301336683,-11908.025969031569,-16387.04733694164,-2498.96973359224,-187500.02235174447,-187500.02235174447,-187500.02235174447,-187500.02235174447
não,30337.933342210454,-11846.558671779476,-16402.648854571446,-2447.6054248339447,-187500.02235174447,-187500.02235174447,-187500.02235174447,-187500.02235174447
não,30461.65024777058,-11753.821284034406,-16098.151039856797,-2357.684356890244,-187500.02235174447,-187500.02235174447,-187500.02235174447,-187500.02235174447
não,30504.833818058232,-11778.966996546627,-15980.759677977525,-2366.0662610609843,-187500.02235174447,-187500.02235174447,-187500.02235174447,-187500.02235174447
não,30350.584429572158,-11903.063881762491,-16330.832699636543,-2472.684082112799,-187500.02235174447,-187500.02235174447,-187500.02235174447,-187500.02235174447
não,30309.434868029937,-11886.68005307675,-16456.270689519726,-2472.6393786238887,-187500.02235174447,-187500.02235174447,-187500.02235174447,-187500.02235174447
não,30425.86510489763,-11790.14286877428,-16188.429735711783,-2401.583183000467,-187500.02235174447,-187500.02235174447,-187500.02235174447,-187500.02235174447
não,30492.45095162999,-11776.3294907009,-15994.707166517635,-2392.9107061518084,-187500.02235174447,-187500.02235174447,-187500.02235174447,-187500.02235174447
não,30374.523147883792,-11886.523590865565,-16267.063172705553,-2471.566494890034,-187500.02235174447,-187500.02235174447,-187500.02235174447,-187500.02235174447
não,30327.025690916264,-11881.136820451835,-16449.78868362769,-2465.7997448205647,-187500.02235174447,-187500.02235174447,-187500.02235174447,-187500.02235174447
não,30435.29754105777,-11795.373176976822,-16213.664855201825,-2391.502546251124,-187500.02235174447,-187500.02235174447,-187500.02235174447,-187500.02235174447
não,30536.506239951403,-11761.957319016137,-15951.59065146335,-2360.545380180524,-187500.02235174447,-187500.02235174447,-187500.02235174447,-187500.02235174447
não,30423.96520661893,-11878.96870123967,-16192.140125291364,-2459.6083116064447,-187500.02235174447,-187500.02235174447,-187500.02235174447,-187500.02235174447
não,30322.734155980845,-11913.390387700843,-16458.39410524298,-2497.293352758092,-187500.02235174447,-187500.02235174447,-187500.02235174447,-187500.02235174447
não,30411.716450657423,-11804.626799181318,-16273.165198941851,-2428.3158693690148,-187500.02235174447,-187500.02235174447,-187500.02235174447,-187500.02235174447
não,30524.637463645635,-11754.46948462361,-15981.631396011282,-2377.175078055272,-187500.02235174447,-187500.02235174447,-187500.02235174447,-187500.02235174447
não,30432.391814278584,-11858.136875407325,-16142.854528767411,-2447.1583899448383,-187500.02235174447,-187500.02235174447,-187500.02235174447,-187500.02235174447
não,30300.494170247817,-11926.2649925071,-16466.619547202536,-2507.8880796299077,-187500.02235174447,-187500.02235174447,-187500.02235174447,-187500.02235174447
não,30372.600897860637,-11843.317668833455,-16346.769493433178,-2438.1282851848946,-187500.02235174447,-187500.02235174447,-187500.02235174447,-187500.02235174447
não,30509.728850093947,-11762.560816116431,-16018.735291807092,-2372.4365082307468,-187500.02235174447,-187500.02235174447,-187500.02235174447,-187500.02235174447
não,30474.636611299113,-11845.06110490097,-16070.948966854688,-2412.8261104614867,-187500.02235174447,-187500.02235174447,-187500.02235174447,-187500.02235174447
não,30342.962484712898,-11927.427283218776,-16410.807241297633,-2452.2545876806485,-187500.02235174447,-187500.02235174447,-187500.02235174447,-187500.02235174447
não,30371.57271761569,-11852.794808482506,-16369.300051844128,-2439.782314274587,-187500.02235174447,-187500.02235174447,-187500.02235174447,-187500.02235174447
não,30502.956271523988,-11760.66091783773,-16056.308574236462,-2399.95150565523,-187500.02235174447,-187500.02235174447,-187500.02235174447,-187500.02235174447
não,30509.14770473811,-11808.136023060802,-16012.0297684705,-2430.7969130035535,-187500.02235174447,-187500.02235174447,-187500.02235174447,-187500.02235174447
não,30356.686455808456,-11923.336913983454,-16369.612976266502,-2512.1349110764163,-187500.02235174447,-187500.02235174447,-187500.02235174447,-187500.02235174447
não,30345.689397536447,-11878.856942517394,-16413.91413377692,-2475.8356780809972,-187500.02235174447,-187500.02235174447,-187500.02235174447,-187500.02235174447
não,30463.661904771558,-11778.966996546627,-16127.565935559982,-2388.1944880717383,-187500.02235174447,-187500.02235174447,-187500.02235174447,-187500.02235174447
não,30499.6482133446,-11790.567551918932,-16002.73144277709,-2393.782424185565,-187500.02235174447,-187500.02235174447,-187500.02235174447,-187500.02235174447
não,30360.173327943485,-11919.60417265942,-16339.304010785105,-2491.3477887329805,-187500.02235174447,-187500.02235174447,-187500.02235174447,-187500.02235174447
não,30347.00815045931,-11895.129012480857,-16429.806224084645,-2467.4984773991678,-187500.02235174447,-187500.02235174447,-187500.02235174447,-187500.02235174447
não,30467.908736218065,-11801.47520321312,-16154.589194606448,-2394.341217796948,-187500.02235174447,-187500.02235174447,-187500.02235174447,-187500.02235174447
não,30530.605379415203,-11794.4344037097,-15962.297137057441,-2403.974819657185,-187500.02235174447,-187500.02235174447,-187500.02235174447,-187500.02235174447
não,30412.834037880188,-11918.508937181108,-16246.477216062214,-2485.49163168569,-187500.02235174447,-187500.02235174447,-187500.02235174447,-187500.02235174447
não,30343.38716785755,-11919.917097081792,-16444.536023680692,-2478.719053115732,-187500.02235174447,-187500.02235174447,-187500.02235174447,-187500.02235174447
não,30441.13134636061,-11802.235162524601,-16212.59197146797,-2395.95054339773,-187500.02235174447,-187500.02235174447,-187500.02235174447,-187500.02235174447
não,30544.28464702185,-11760.638566093276,-15949.668401440193,-2377.890333877842,-187500.02235174447,-187500.02235174447,-187500.02235174447,-187500.02235174447
não,30429.15081133256,-11892.245637446124,-16173.945805304744,-2485.4692799412346,-187500.02235174447,-187500.02235174447,-187500.02235174447,-187500.02235174447
não,30335.67581602047,-11934.892765866849,-16437.472872432812,-2509.6315156974215,-187500.02235174447,-187500.02235174447,-187500.02235174447,-187500.02235174447
não,30431.16246833354,-11824.117520346346,-16252.445131831782,-2419.2187093757047,-187500.02235174447,-187500.02235174447,-187500.02235174447,-187500.02235174447
não,30540.551905697812,-11763.097257983358,-15955.189282320653,-2353.728098121655,-187500.02235174447,-187500.02235174447,-187500.02235174447,-187500.02235174447
não,30471.619125797646,-11855.67818351724,-16088.785658930025,-2430.7298577701877,-187500.02235174447,-187500.02235174447,-187500.02235174447,-187500.02235174447
não,30343.05189169072,-11923.225155261178,-16417.266895445217,-2509.363294763958,-187500.02235174447,-187500.02235174447,-187500.02235174447,-187500.02235174447
não,30397.947776072953,-11848.078590402436,-16306.961036558276,-2444.4091253768356,-187500.02235174447,-187500.02235174447,-187500.02235174447,-187500.02235174447
não,30516.009690285886,-11777.871761068316,-16004.16195442223,-2359.94188308023,-187500.02235174447,-187500.02235174447,-187500.02235174447,-187500.02235174447
não,30471.976753708932,-11855.655831772785,-16061.762399883557,-2420.2245378761936,-187500.02235174447,-187500.02235174447,-187500.02235174447,-187500.02235174447
não,30329.216161872886,-11947.1191700839,-16415.791680311166,-2536.6994782327984,-187500.02235174447,-187500.02235174447,-187500.02235174447,-187500.02235174447
não,30392.91863357051,-11846.335154334922,-16342.18738581984,-2457.8648755389304,-187500.02235174447,-187500.02235174447,-187500.02235174447,-187500.02235174447
não,30521.61997814417,-11767.858179552339,-16025.619629099327,-2354.9127405777863,-187500.02235174447,-187500.02235174447,-187500.02235174447,-187500.02235174447
não,30515.674414119057,-11813.589848707898,-15982.659576256227,-2394.6094387304115,-187500.02235174447,-187500.02235174447,-187500.02235174447,-187500.02235174447
não,30359.34631339864,-11918.777158114572,-16351.351601046515,-2527.043524628106,-187500.02235174447,-187500.02235174447,-187500.02235174447,-187500.02235174447
não,30365.113063468107,-11882.410869885787,-16391.80825851062,-2487.570343920034,-187500.02235174447,-187500.02235174447,-187500.02235174447,-187500.02235174447
não,30485.83483527122,-11786.767755361529,-16100.676786980248,-2403.259563834615,-187500.02235174447,-187500.02235174447,-187500.02235174447,-187500.02235174447
não,30530.672434648568,-11782.297406470467,-15959.68198295617,-2387.367473526892,-187500.02235174447,-187500.02235174447,-187500.02235174447,-187500.02235174447
não,30381.474540409392,-11915.536155168553,-16297.70741435378,-2496.5333934466116,-187500.02235174447,-187500.02235174447,-187500.02235174447,-187500.02235174447
não,30345.53293532526,-11899.889934049837,-16422.25133445875,-2480.8424688389864,-187500.02235174447,-187500.02235174447,-187500.02235174447,-187500.02235174447
não,30463.70660826047,-11791.752194375062,-16153.449255639227,-2386.7416246821435,-187500.02235174447,-187500.02235174447,-187500.02235174447,-187500.02235174447
não,30539.367263241682,-11789.114688529336,-15944.013410092999,-2373.576447197968,-187500.02235174447,-187500.02235174447,-187500.02235174447,-187500.02235174447
não,30405.25679650984,-11907.221306231178,-16237.73768398019,-2486.8997915863742,-187500.02235174447,-187500.02235174447,-187500.02235174447,-187500.02235174447
não,30337.66512127699,-11905.902553308315,-16440.803282356654,-2500.7578731486647,-187500.02235174447,-187500.02235174447,-187500.02235174447,-187500.02235174447
não,30449.423843553526,-11811.309970773456,-16207.741642921168,-2411.23913660516,-187500.02235174447,-187500.02235174447,-187500.02235174447,-187500.02235174447
não,30548.24090579044,-11774.027261022004,-15941.15238680272,-2369.8660576183865,-187500.02235174447,-187500.02235174447,-187500.02235174447,-187500.02235174447
não,30440.326683560215,-11877.806410527994,-16159.260709197606,-2465.48682039819,-187500.02235174447,-187500.02235174447,-187500.02235174447,-187500.02235174447
não,30338.067452677187,-11911.714006866696,-16438.12107302202,-2513.4760157437345,-187500.02235174447,-187500.02235174447,-187500.02235174447,-187500.02235174447
não,30418.82430539421,-11817.367293520843,-16274.55100709808,-2441.4586951087354,-187500.02235174447,-187500.02235174447,-187500.02235174447,-187500.02235174447
não,30533.019367816374,-11768.774601075007,-15976.78106746448,-2391.502546251124,-187500.02235174447,-187500.02235174447,-187500.02235174447,-187500.02235174447
não,30471.75323626438,-11851.140779392814,-16098.978054401643,-2451.047593480062,-187500.02235174447,-187500.02235174447,-187500.02235174447,-187500.02235174447
não,30356.99938023083,-11906.684864364252,-16415.746976822255,-2479.523715916123,-187500.02235174447,-187500.02235174447,-187500.02235174447,-187500.02235174447
não,30403.759229631334,-11845.016401412058,-16324.350693744505,-2416.536500041068,-187500.02235174447,-187500.02235174447,-187500.02235174447,-187500.02235174447
não,30527.6549491471,-11762.247891694056,-16002.351463121351,-2357.639653401334,-187500.02235174447,-187500.02235174447,-187500.02235174447,-187500.02235174447
não,30489.03113472833,-11830.19719483819,-16047.233765987608,-2436.9212909843077,-187500.02235174447,-187500.02235174447,-187500.02235174447,-187500.02235174447
não,30341.844897490133,-11953.131789342378,-16414.763500066223,-2537.392382310913,-187500.02235174447,-187500.02235174447,-187500.02235174447,-187500.02235174447
não,30383.597956132646,-11876.755878538595,-16371.244653611739,-2472.1923437347823,-187500.02235174447,-187500.02235174447,-187500.02235174447,-187500.02235174447
não,30521.70938512199,-11764.3266039284,-16042.875175818823,-2375.56575245449,-187500.02235174447,-187500.02235174447,-187500.02235174447,-187500.02235174447
não,30533.265237005384,-11808.963037605648,-15982.167837878209,-2405.561793513512,-187500.02235174447,-187500.02235174447,-187500.02235174447,-187500.02235174447
não,30376.35599092913,-11922.688713394251,-16348.222356822773,-2510.369123264447,-187500.02235174447,-187500.02235174447,-187500.02235174447,-187500.02235174447
não,30364.420159389992,-11880.533323351541,-16408.460308129826,-2471.3876809343915,-187500.02235174447,-187500.02235174447,-187500.02235174447,-187500.02235174447
não,30485.0972277042,-11782.14094425928,-16114.803089476001,-2382.6065519579115,-187500.02235174447,-187500.02235174447,-187500.02235174447,-187500.02235174447
não,30536.32742599576,-11782.09624077037,-15967.415686537706,-2381.399557757325,-187500.02235174447,-187500.02235174447,-187500.02235174447,-187500.02235174447
não,30394.21503474892,-11912.093986522435,-16303.898847567898,-2487.458585197757,-187500.02235174447,-187500.02235174447,-187500.02235174447,-187500.02235174447
não,30350.070339449685,-11897.811221815495,-16442.904346335454,-2478.2273147377155,-187500.02235174447,-187500.02235174447,-187500.02235174447,-187500.02235174447
não,30462.63372452661,-11788.935874573694,-16171.017726781098,-2382.85242114692,-187500.02235174447,-187500.02235174447,-187500.02235174447,-187500.02235174447
não,30543.211763287996,-11774.273130211011,-15958.296174799942,-2390.6755317062775,-187500.02235174447,-187500.02235174447,-187500.02235174447,-187500.02235174447
não,30410.800029134756,-11893.027948502058,-16246.588974784492,-2487.972675320229,-187500.02235174447,-187500.02235174447,-187500.02235174447,-187500.02235174447
não,30336.10049916512,-11924.141576783846,-16468.810018159154,-2497.5168702026454,-187500.02235174447,-187500.02235174447,-187500.02235174447,-187500.02235174447
não,30435.856334669155,-11815.154470819769,-16249.360591096949,-2415.3742093293918,-187500.02235174447,-187500.02235174447,-187500.02235174447,-187500.02235174447
não,30553.29240003734,-11762.85138879435,-15962.811227179913,-2356.1197347783727,-187500.02235174447,-187500.02235174447,-187500.02235174447,-187500.02235174447
não,30463.438387327005,-11872.620805814364,-16154.43273239526,-2425.4101425898248,-187500.02235174447,-187500.02235174447,-187500.02235174447,-187500.02235174447
não,30350.964409227898,-11918.486585436653,-16444.647782402968,-2482.2506287396704,-187500.02235174447,-187500.02235174447,-187500.02235174447,-187500.02235174447
não,30415.44919198146,-11833.259383828567,-16301.373100444449,-2424.0243344335954,-187500.02235174447,-187500.02235174447,-187500.02235174447,-187500.02235174447
não,30532.482925949447,-11782.543275659476,-16004.094899188865,-2387.143956082339,-187500.02235174447,-187500.02235174447,-187500.02235174447,-187500.02235174447
não,30482.21385266946,-11843.049447899992,-16105.035377149032,-2448.588901589978,-187500.02235174447,-187500.02235174447,-187500.02235174447,-187500.02235174447
não,30359.368665143094,-11909.970570799182,-16426.855793816543,-2506.3458092624915,-187500.02235174447,-187500.02235174447,-187500.02235174447,-187500.02235174447
não,30408.721316900414,-11849.91143344777,-16339.169900318373,-2433.501474082646,-187500.02235174447,-187500.02235174447,-187500.02235174447,-187500.02235174447
não,30519.38480369864,-11765.555949873442,-16034.403864670261,-2366.9603308391966,-187500.02235174447,-187500.02235174447,-187500.02235174447,-187500.02235174447
não,30489.634631828623,-11824.676313957729,-16068.490274964604,-2435.2449101501597,-187500.02235174447,-187500.02235174447,-187500.02235174447,-187500.02235174447
não,30352.05964470621,-11930.534175698063,-16416.73045357829,-2513.7665884216535,-187500.02235174447,-187500.02235174447,-187500.02235174447,-187500.02235174447
não,30382.815645076713,-11875.951215738203,-16391.04829919914,-2449.3265091570033,-187500.02235174447,-187500.02235174447,-187500.02235174447,-187500.02235174447
não,30516.56848389727,-11769.378098175299,-16077.699193680191,-2365.4851157051467,-187500.02235174447,-187500.02235174447,-187500.02235174447,-187500.02235174447
não,30535.23219051745,-11811.131156817813,-16006.26301840103,-2378.85145888942,-187500.02235174447,-187500.02235174447,-187500.02235174447,-187500.02235174447
não,30374.523147883792,-11918.97832381467,-16371.334060589561,-2496.712207402254,-187500.02235174447,-187500.02235174447,-187500.02235174447,-187500.02235174447
não,30368.33171466967,-11876.934692494237,-16434.745959609267,-2468.683119855299,-187500.02235174447,-187500.02235174447,-187500.02235174447,-187500.02235174447
não,30498.195349955007,-11786.90186582826,-16134.405569363305,-2373.0847088199507,-187500.02235174447,-187500.02235174447,-187500.02235174447,-187500.02235174447
não,30566.569336243792,-11788.913522829238,-15960.240776567553,-2365.1274877938617,-187500.02235174447,-187500.02235174447,-187500.02235174447,-187500.02235174447
não,30408.78837213378,-11904.025006774069,-16303.116536511963,-2490.453718954768,-187500.02235174447,-187500.02235174447,-187500.02235174447,-187500.02235174447
não,30356.552345341726,-11891.664492090285,-16454.05786681865,-2490.140794532394,-187500.02235174447,-187500.02235174447,-187500.02235174447,-187500.02235174447
não,30475.88830898861,-11797.80951712245,-16187.289796744562,-2399.4374155327578,-187500.02235174447,-187500.02235174447,-187500.02235174447,-187500.02235174447
não,30543.636446432647,-11773.982557533092,-15974.434134296673,-2393.7377206966544,-187500.02235174447,-187500.02235174447,-187500.02235174447,-187500.02235174447
não,30416.611482693137,-11888.267026933077,-16248.734742252202,-2495.4381579683018,-187500.02235174447,-187500.02235174447,-187500.02235174447,-187500.02235174447
não,30343.700092279923,-11899.711120094194,-16469.838198404097,-2491.0572160550614,-187500.02235174447,-187500.02235174447,-187500.02235174447,-187500.02235174447
não,30438.627950981612,-11807.95720910516,-16258.949489468276,-2409.9203836822967,-187500.02235174447,-187500.02235174447,-187500.02235174447,-187500.02235174447
não,30551.05722559181,-11772.70850809914,-15988.582788536882,-2360.1654005247833,-187500.02235174447,-187500.02235174447,-187500.02235174447,-187500.02235174447
não,30454.49768954488,-11881.405041385298,-16191.760145635624,-2453.238064436682,-187500.02235174447,-187500.02235174447,-187500.02235174447,-187500.02235174447
não,30351.34438888364,-11920.989980815648,-16466.82071290263,-2499.8414516259973,-187500.02235174447,-187500.02235174447,-187500.02235174447,-187500.02235174447
não,30425.26160779734,-11820.697703444685,-16311.118461026963,-2440.1175904414167,-187500.02235174447,-187500.02235174447,-187500.02235174447,-187500.02235174447
não,30542.161231298596,-11760.504455626542,-16011.06864345892,-2363.853438359909,-187500.02235174447,-187500.02235174447,-187500.02235174447,-187500.02235174447
não,30487.064181216265,-11842.445950799698,-16113.596095275414,-2426.7065437682327,-187500.02235174447,-187500.02235174447,-187500.02235174447,-187500.02235174447
não,30352.797252273234,-11910.395253943832,-16454.661363918945,-2498.0980155584834,-187500.02235174447,-187500.02235174447,-187500.02235174447,-187500.02235174447
não,30412.856389624645,-11843.809407211473,-16356.023115637676,-2440.1622939303275,-187500.02235174447,-187500.02235174447,-187500.02235174447,-187500.02235174447
não,30546.162193556094,-11765.935929529183,-16038.382475183307,-2382.628903702367,-187500.02235174447,-187500.02235174447,-187500.02235174447,-187500.02235174447
não,30522.93873106703,-11826.330343047423,-16055.414504458251,-2421.7444564991542,-187500.02235174447,-187500.02235174447,-187500.02235174447,-187500.02235174447
não,30355.479461607873,-11920.610001159906,-16429.58270664009,-2497.673332413832,-187500.02235174447,-187500.02235174447,-187500.02235174447,-187500.02235174447
não,30369.985743759364,-11869.983299968637,-16416.43988090037,-2454.0874307259837,-187500.02235174447,-187500.02235174447,-187500.02235174447,-187500.02235174447
não,30510.265291960874,-11778.341147701878,-16093.546580499004,-2371.654197174811,-187500.02235174447,-187500.02235174447,-187500.02235174447,-187500.02235174447
não,30534.42752771706,-11808.76187190555,-16017.416538884228,-2382.0030548576183,-187500.02235174447,-187500.02235174447,-187500.02235174447,-187500.02235174447
não,30380.803988075735,-11902.30392245101,-16369.322403588583,-2489.4031869653686,-187500.02235174447,-187500.02235174447,-187500.02235174447,-187500.02235174447
não,30363.414330889504,-11867.032869700537,-16439.082198033597,-2477.9590938042516,-187500.02235174447,-187500.02235174447,-187500.02235174447,-187500.02235174447
não,30482.54912883629,-11774.273130211011,-16148.353057903418,-2400.175023099783,-187500.02235174447,-187500.02235174447,-187500.02235174447,-187500.02235174447
não,30535.388652728638,-11774.071964510915,-15997.076451429899,-2402.6113632454117,-187500.02235174447,-187500.02235174447,-187500.02235174447,-187500.02235174447
não,30397.67955513949,-11904.293227707532,-16318.807461119588,-2500.646114426388,-187500.02235174447,-187500.02235174447,-187500.02235174447,-187500.02235174447
não,30354.473633107384,-11895.285474692044,-16470.329936782116,-2489.850221854475,-187500.02235174447,-187500.02235174447,-187500.02235174447,-187500.02235174447
não,30473.831948498722,-11788.846467595873,-16211.563791223025,-2389.826165416976,-187500.02235174447,-187500.02235174447,-187500.02235174447,-187500.02235174447
não,30564.58003098727,-11762.4267056497,-15975.261148841519,-2357.080859789951,-187500.02235174447,-187500.02235174447,-187500.02235174447,-187500.02235174447
não,30435.74457594688,-11878.812239028483,-16244.063227661041,-2462.2458174521707,-187500.02235174447,-187500.02235174447,-187500.02235174447,-187500.02235174447
não,30354.29481915174,-11900.515782894587,-16472.7886286722,-2486.2515909971703,-187500.02235174447,-187500.02235174447,-187500.02235174447,-187500.02235174447
não,30450.586134265202,-11805.833793381906,-16263.129265681418,-2408.2887063370595,-187500.02235174447,-187500.02235174447,-187500.02235174447,-187500.02235174447
não,30538.8084696303,-11758.47044688111,-16005.16778292272,-2374.604627442912,-187500.02235174447,-187500.02235174447,-187500.02235174447,-187500.02235174447
não,30435.342244546682,-11861.601395797898,-16204.724157419701,-2474.7180908582322,-187500.02235174447,-187500.02235174447,-187500.02235174447,-187500.02235174447
não,30342.917781223987,-11914.127995267869,-16478.17539908593,-2496.06400681305,-187500.02235174447,-187500.02235174447,-187500.02235174447,-187500.02235174447
não,30438.35973004815,-11817.635514454309,-16313.353635472493,-2413.8095872175204,-187500.02235174447,-187500.02235174447,-187500.02235174447,-187500.02235174447
não,30568.75980720041,-11751.65316482224,-16004.8772102448,-2365.4180604717803,-187500.02235174447,-187500.02235174447,-187500.02235174447,-187500.02235174447
não,30511.449934417004,-11832.63353498382,-16108.231676606141,-2438.7094305407322,-187500.02235174447,-187500.02235174447,-187500.02235174447,-187500.02235174447
$SILENCE,30366.767092557802,-11913.189222000745,-16447.844081860076,-2499.2826580146143,-187500.02235174447,-187500.02235174447,-187500.02235174447,-187500.02235174447
$SILENCE,30403.24513950886,-11842.28948858851,-16375.804409480621,-2435.8707589949086,-187500.02235174447,-187500.02235174447,-187500.02235174447,-187500.02235174447
$SILENCE,30526.62676890216,-11756.436438135677,-16061.427123716729,-2379.5890664564454,-187500.02235174447,-187500.02235174447,-187500.02235174447,-187500.02235174447
$SILENCE,30510.98054778344,-11809.030092839015,-16065.338678996406,-2427.0641716795176,-187500.02235174447,-187500.02235174447,-187500.02235174447,-187500.02235174447
$SILENCE,30374.567851372703,-11909.16590799879,-16412.260104687226,-2501.8084051380642,-187500.02235174447,-187500.02235174447,-187500.02235174447,-187500.02235174447
$SILENCE,30386.59308988966,-11854.717058505663,-16415.612866355525,-2446.487837611179,-187500.02235174447,-187500.02235174447,-187500.02235174447,-187500.02235174447
$SILENCE,30491.08749521822,-11769.623967364309,-16128.19178440473,-2378.0914995779394,-187500.02235174447,-187500.02235174447,-187500.02235174447,-187500.02235174447
$SILENCE,30519.94359731002,-11800.268209012534,-16030.9840477686,-2394.0282933745734,-187500.02235174447,-187500.02235174447,-187500.02235174447,-187500.02235174447
$SILENCE,30384.96141254442,-11895.419585158776,-16367.109580887507,-2474.2487042246707,-187500.02235174447,-187500.02235174447,-187500.02235174447,-187500.02235174447
$SILENCE,30384.91670905551,-11860.416753341766,-16436.221174743318,-2453.595692347967,-187500.02235174447,-187500.02235174447,-187500.02235174447,-187500.02235174447
$SILENCE,30510.779382083343,-11763.924272528206,-16145.134406701853,-2385.4899269926464,-187500.02235174447,-187500.02235174447,-187500.02235174447,-187500.02235174447
$SILENCE,30560.444958263037,-11761.599691104853,-15983.106611145331,-2398.8115666880094,-187500.02235174447,-187500.02235174447,-187500.02235174447,-187500.02235174447
$SILENCE,30402.485180197382,-11882.477925119154,-16321.266153009672,-2503.0824545720166,-187500.02235174447,-187500.02235174447,-187500.02235174447,-187500.02235174447
$SILENCE,30359.793348287745,-11888.758765311095,-16472.65451820547,-2481.1777450058157,-187500.02235174447,-187500.02235174447,-187500.02235174447,-187500.02235174447
$SILENCE,30477.02824795583,-11799.083566556403,-16215.520049991615,-2392.3295607959703,-187500.02235174447,-187500.02235174447,-187500.02235174447,-187500.02235174447
$SILENCE,30561.51784199689,-11764.304252183945,-15982.190189622665,-2361.238284258638,-187500.02235174447,-187500.02235174447,-187500.02235174447,-187500.02235174447
$SILENCE,30435.386948035593,-11873.581930825942,-16248.153596896364,-2466.0903174984837,-187500.02235174447,-187500.02235174447,-187500.02235174447,-187500.02235174447
$SILENCE,30352.43962436195,-11891.440974645731,-16477.862474663554,-2487.570343920034,-187500.02235174447,-187500.02235174447,-187500.02235174447,-187500.02235174447
$SILENCE,30456.93402969051,-11786.611293150341,-16262.54812032558,-2398.364531798903,-187500.02235174447,-187500.02235174447,-187500.02235174447,-187500.02235174447
$SILENCE,30560.400254774126,-11742.131321684281,-15985.654710013237,-2354.1304295218506,-187500.02235174447,-187500.02235174447,-187500.02235174447,-187500.02235174447
$SILENCE,30453.715378488945,-11858.092171918413,-16188.429735711783,-2456.1661429603273,-187500.02235174447,-187500.02235174447,-187500.02235174447,-187500.02235174447
$SILENCE,30345.018845202787,-11914.910306323804,-16480.812904931656,-2496.9580765912624,-187500.02235174447,-187500.02235174447,-187500.02235174447,-187500.02235174447
$SILENCE,30426.93798863149,-11814.796842908483,-16321.400263476404,-2414.1001598954394,-187500.02235174447,-187500.02235174447,-187500.02235174447,-187500.02235174447
$SILENCE,30550.073748835774,-11741.192548417157,-16012.812079526435,-2351.17999925375,-187500.02235174447,-187500.02235174447,-187500.02235174447,-187500.02235174447
$SILENCE,30487.73473354992,-11830.800691938484,-16114.75838598709,-2416.0224099185957,-187500.02235174447,-187500.02235174447,-187500.02235174447,-187500.02235174447
$SILENCE,30351.00911271681,-11911.937524311248,-16452.336782495593,-2496.6004486799775,-187500.02235174447,-187500.02235174447,-187500.02235174447,-187500.02235174447
$SILENCE,30391.15284575854,-11838.15441586428,-16387.76259276421,-2457.306081927548,-187500.02235174447,-187500.02235174447,-187500.02235174447,-187500.02235174447
$SILENCE,30524.413946201083,-11746.936946742171,-16069.071420320442,-2385.981665370663,-187500.02235174447,-187500.02235174447,-187500.02235174447,-187500.02235174447
$SILENCE,30528.213742758486,-11802.078700313414,-16053.961641068656,-2418.235232619671,-187500.02235174447,-187500.02235174447,-187500.02235174447,-187500.02235174447
$SILENCE,30378.658220608024,-11908.428300431766,-16414.49527913276,-2496.756910891165,-187500.02235174447,-187500.02235174447,-187500.02235174447,-187500.02235174447
$SILENCE,30393.030392292785,-11849.687916003219,-16413.44474714336,-2450.175875446305,-187500.02235174447,-187500.02235174447,-187500.02235174447,-187500.02235174447
$SILENCE,30524.436297945536,-11754.84946427935,-16100.14034511332,-2369.5084297071016,-187500.02235174447,-187500.02235174447,-187500.02235174447,-187500.02235174447
$SILENCE,30545.312827266793,-11781.85037158136,-16006.084204445388,-2381.779537413065,-187500.02235174447,-187500.02235174447,-187500.02235174447,-187500.02235174447
$SILENCE,30387.68832536797,-11898.325311937966,-16364.09209538604,-2486.4304049528128,-187500.02235174447,-187500.02235174447,-187500.02235174447,-187500.02235174447
$SILENCE,30362.564964600202,-11861.355526608888,-16454.415494729936,-2456.0990877269614,-187500.02235174447,-187500.02235174447,-187500.02235174447,-187500.02235174447
$SILENCE,30477.47528284494,-11756.838769535872,-16177.276215228585,-2374.895200120831,-187500.02235174447,-187500.02235174447,-187500.02235174447,-187500.02235174447
$SILENCE,30550.073748835774,-11760.839731793372,-15988.269864114507,-2365.7086331496994,-187500.02235174447,-187500.02235174447,-187500.02235174447,-187500.02235174447
$SILENCE,30411.045898323766,-11889.474021133665,-16301.216638233262,-2466.269131454126,-187500.02235174447,-187500.02235174447,-187500.02235174447,-187500.02235174447
$SILENCE,30357.558173842215,-11889.339910666933,-16471.15695132696,-2474.941608302785,-187500.02235174447,-187500.02235174447,-187500.02235174447,-187500.02235174447
$SILENCE,30470.74740776389,-11783.437345437687,-16220.30332330505,-2380.4831362346576,-187500.02235174447,-187500.02235174447,-187500.02235174447,-187500.02235174447
$SILENCE,30563.8647751647,-11749.663859565719,-15977.429268053684,-2346.620243384867,-187500.02235174447,-187500.02235174447,-187500.02235174447,-187500.02235174447
$SILENCE,30437.286846314295,-11867.189331911724,-16242.632716015902,-2464.7045093422544,-187500.02235174447,-187500.02235174447,-187500.02235174447,-187500.02235174447
$SILENCE,30345.890563236546,-11887.596474599419,-16482.466934021348,-2494.812309123553,-187500.02235174447,-187500.02235174447,-187500.02235174447,-187500.02235174447
$SILENCE,30447.25572434136,-11791.774546119517,-16271.98055648572,-2407.9310784257746,-187500.02235174447,-187500.02235174447,-187500.02235174447,-187500.02235174447
$SILENCE,30561.33902804125,-11739.784388516473,-15984.313605345918,-2361.595912169923,-187500.02235174447,-187500.02235174447,-187500.02235174447,-187500.02235174447
$SILENCE,30462.27609661533,-11844.72582873414,-16170.749505847634,-2452.098125469461,-187500.02235174447,-187500.02235174447,-187500.02235174447,-187500.02235174447
$SILENCE,30341.889600979044,-11900.314617194488,-16481.818733432145,-2489.8949253433857,-187500.02235174447,-187500.02235174447,-187500.02235174447,-187500.02235174447
$SILENCE,30423.764040918835,-11812.092281829391,-16329.75981590269,-2404.7794824575763,-187500.02235174447,-187500.02235174447,-187500.02235174447,-187500.02235174447
$SILENCE,30554.47704249347,-11747.652202564741,-16013.907315004744,-2334.3938391678143,-187500.02235174447,-187500.02235174447,-187500.02235174447,-187500.02235174447
$SILENCE,30497.70361157699,-11828.140834348302,-16102.867257936867,-2406.1876423582607,-187500.02235174447,-187500.02235174447,-187500.02235174447,-187500.02235174447
$SILENCE,30349.15391792702,-11904.606152129907,-16450.615698172536,-2485.0222450521287,-187500.02235174447,-187500.02235174447,-187500.02235174447,-187500.02235174447
$SILENCE,30398.35010747315,-11817.166127820747,-16376.497313558737,-2430.0369536920734,-187500.02235174447,-187500.02235174447,-187500.02235174447,-187500.02235174447
$SILENCE,30535.165135284085,-11733.570603557899,-16059.46017020466,-2361.864133103387,-187500.02235174447,-187500.02235174447,-187500.02235174447,-187500.02235174447
$SILENCE,30524.592760156724,-11797.72011014463,-16047.569042154437,-2413.3849040728696,-187500.02235174447,-187500.02235174447,-187500.02235174447,-187500.02235174447
$SILENCE,30376.177176973484,-11906.729567853161,-16407.365072651515,-2495.728730646221,-187500.02235174447,-187500.02235174447,-187500.02235174447,-187500.02235174447
$SILENCE,30387.464807923414,-11846.424561312744,-16418.183316967883,-2450.2429306796707,-187500.02235174447,-187500.02235174447,-187500.02235174447,-187500.02235174447
$SILENCE,30511.785210583832,-11749.127417698792,-16111.830307463446,-2356.7455836231215,-187500.02235174447,-187500.02235174447,-187500.02235174447,-187500.02235174447
$SILENCE,30536.305074251304,-11775.480124411599,-16007.246495157064,-2377.152726310817,-187500.02235174447,-187500.02235174447,-187500.02235174447,-187500.02235174447
$SILENCE,30374.9701827729,-11896.671282848274,-16368.540092532647,-2492.8677073559415,-187500.02235174447,-187500.02235174447,-187500.02235174447,-187500.02235174447
$SILENCE,30359.279258165272,-11859.58973879692,-16456.382448242002,-2462.3799279189025,-187500.02235174447,-187500.02235174447,-187500.02235174447,-187500.02235174447
$SILENCE,30499.581158111236,-11752.882510767284,-16160.355944675917,-2372.9058948643083,-187500.02235174447,-187500.02235174447,-187500.02235174447,-187500.02235174447
$SILENCE,30564.155347842618,-11753.463656123122,-15978.390393065261,-2358.46666794618,-187500.02235174447,-187500.02235174447,-187500.02235174447,-187500.02235174447
$SILENCE,30420.008947850343,-11877.582893083441,-16292.879437551432,-2454.355651659447,-187500.02235174447,-187500.02235174447,-187500.02235174447,-187500.02235174447
$SILENCE,30361.96146749991,-11877.627596572353,-16463.557358212158,-2450.131171957394,-187500.02235174447,-187500.02235174447,-187500.02235174447,-187500.02235174447
$SILENCE,30464.17599489403,-11773.177894732702,-16227.455881530748,-2384.5064502366126,-187500.02235174447,-187500.02235174447,-187500.02235174447,-187500.02235174447
$SILENCE,30559.014446617897,-11736.923365226194,-15983.598349523349,-2367.4520692172136,-187500.02235174447,-187500.02235174447,-187500.02235174447,-187500.02235174447
$SILENCE,30443.053596383765,-11854.940575950215,-16231.769768210623,-2467.431422165802,-187500.02235174447,-187500.02235174447,-187500.02235174447,-187500.02235174447
$SILENCE,30350.29385689424,-11883.617864086375,-16479.874131664532,-2490.230201510215,-187500.02235174447,-187500.02235174447,-187500.02235174447,-187500.02235174447
$SILENCE,30442.49480277238,-11787.326548972911,-16284.877513036432,-2395.3470462974365,-187500.02235174447,-187500.02235174447,-187500.02235174447,-187500.02235174447
$SILENCE,30563.216574575494,-11734.643487291753,-15991.73438450508,-2339.758257837088,-187500.02235174447,-187500.02235174447,-187500.02235174447,-187500.02235174447
$SILENCE,30481.61035556917,-11841.753046721584,-16157.427866152271,-2432.6744595377995,-187500.02235174447,-187500.02235174447,-187500.02235174447,-187500.02235174447
$SILENCE,30356.06060696371,-11906.528402153064,-16469.92760538192,-2489.3584834764583,-187500.02235174447,-187500.02235174447,-187500.02235174447,-187500.02235174447
$SILENCE,30416.0303373373,-11813.500441730075,-16339.594583463024,-2423.3090786110256,-187500.02235174447,-187500.02235174447,-187500.02235174447,-187500.02235174447
$SILENCE,30548.509126723904,-11723.467615064099,-16022.110405219843,-2342.7980950830097,-187500.02235174447,-187500.02235174447,-187500.02235174447,-187500.02235174447
$SILENCE,30510.153533238597,-11794.166182776235,-16086.259911806574,-2392.173098584783,-187500.02235174447,-187500.02235174447,-187500.02235174447,-187500.02235174447
$SILENCE,30365.537746612757,-11887.3059019215,-16436.332933465594,-2483.591733406989,-187500.02235174447,-187500.02235174447,-187500.02235174447,-187500.02235174447
$SILENCE,30405.145037787563,-11824.184575579713,-16380.565331049602,-2433.9038054828416,-187500.02235174447,-187500.02235174447,-187500.02235174447,-187500.02235174447
$SILENCE,30529.37603347016,-11742.533653084476,-16072.737106411114,-2368.390842484336,-187500.02235174447,-187500.02235174447,-187500.02235174447,-187500.02235174447
$SILENCE,30521.79879209981,-11787.90769432875,-16048.910146821756,-2406.589973758456,-187500.02235174447,-187500.02235174447,-187500.02235174447,-187500.02235174447
$SILENCE,30377.898261296545,-11894.167887469279,-16402.984130738274,-2490.721939888232,-187500.02235174447,-187500.02235174447,-187500.02235174447,-187500.02235174447
$SILENCE,30386.101351511643,-11840.188424609712,-16419.63618035748,-2441.8610265089305,-187500.02235174447,-187500.02235174447,-187500.02235174447,-187500.02235174447
$SILENCE,30512.299300706305,-11750.75909504403,-16116.792394732523,-2360.3442144804258,-187500.02235174447,-187500.02235174447,-187500.02235174447,-187500.02235174447
$SILENCE,30543.971722599475,-11768.70754584164,-16006.240666656575,-2393.916534652297,-187500.02235174447,-187500.02235174447,-187500.02235174447,-187500.02235174447
$SILENCE,30392.292784725763,-11876.755878538595,-16352.133912102452,-2482.3176839730363,-187500.02235174447,-187500.02235174447,-187500.02235174447,-187500.02235174447
$SILENCE,30367.035313491266,-11854.404134083288,-16446.570032426123,-2435.0884479389724,-187500.02235174447,-187500.02235174447,-187500.02235174447,-187500.02235174447
$SILENCE,30495.915472020566,-11757.665784080718,-16160.668869098292,-2349.727135864155,-187500.02235174447,-187500.02235174447,-187500.02235174447,-187500.02235174447
$SILENCE,30561.964876886,-11747.94277524266,-15975.663480241714,-2349.4142114417805,-187500.02235174447,-187500.02235174447,-187500.02235174447,-187500.02235174447
$SILENCE,30415.985633848388,-11873.671337803762,-16289.437268905314,-2463.6986808417655,-187500.02235174447,-187500.02235174447,-187500.02235174447,-187500.02235174447
$SILENCE,30336.68164452096,-11878.320500650467,-16492.659329492966,-2485.7598526191537,-187500.02235174447,-187500.02235174447,-187500.02235174447,-187500.02235174447
$SILENCE,30459.951515191977,-11774.317833699923,-16238.095311891475,-2396.9340201537634,-187500.02235174447,-187500.02235174447,-187500.02235174447,-187500.02235174447
$SILENCE,30563.641257720144,-11737.504510582032,-15992.919026961212,-2364.6357494158447,-187500.02235174447,-187500.02235174447,-187500.02235174447,-187500.02235174447
$SILENCE,30463.68425651601,-11838.869671686849,-16206.936980120778,-2439.849369507953,-187500.02235174447,-187500.02235174447,-187500.02235174447,-187500.02235174447
$SILENCE,30369.941040270456,-11878.275797161556,-16450.548642939168,-2467.006739021151,-187500.02235174447,-187500.02235174447,-187500.02235174447,-187500.02235174447
$SILENCE,30451.59196276569,-11788.3323774734,-16276.920292010343,-2401.7619969561097,-187500.02235174447,-187500.02235174447,-187500.02235174447,-187500.02235174447
$SILENCE,30561.80841467481,-11733.525900068988,-15988.739250748069,-2355.8515138449093,-187500.02235174447,-187500.02235174447,-187500.02235174447,-187500.02235174447
$SILENCE,30477.87761424513,-11830.308953560467,-16150.05179048202,-2435.535482828079,-187500.02235174447,-187500.02235174447,-187500.02235174447,-187500.02235174447
$SILENCE,30344.10242368012,-11896.604227614907,-16477.415439774446,-2484.105823529461,-187500.02235174447,-187500.02235174447,-187500.02235174447,-187500.02235174447
$SILENCE,30415.046860581264,-11803.33039800291,-16345.18251957685,-2397.0010753871293,-187500.02235174447,-187500.02235174447,-187500.02235174447,-187500.02235174447
$SILENCE,30561.09315885224,-11714.102234137325,-16010.398091125262,-2337.6348421138337,-187500.02235174447,-187500.02235174447,-187500.02235174447,-187500.02235174447
$SILENCE,30513.886274562632,-11797.00485432206,-16082.214246060163,-2433.81439850502,-187500.02235174447,-187500.02235174447,-187500.02235174447,-187500.02235174447
$SILENCE,30368.28701118076,-11895.844268303426,-16437.04818928816,-2507.418692996346,-187500.02235174447,-187500.02235174447,-187500.02235174447,-187500.02235174447
$SILENCE,30399.422991207004,-11831.851223927883,-16386.980281708275,-2440.9669567307183,-187500.02235174447,-187500.02235174447,-187500.02235174447,-187500.02235174447
$SILENCE,30525.9562165685,-11741.349010628344,-16073.631176189325,-2363.518162193079,-187500.02235174447,-187500.02235174447,-187500.02235174447,-187500.02235174447
$SILENCE,30521.105888021695,-11786.90186582826,-16045.311515964451,-2392.1283950958723,-187500.02235174447,-187500.02235174447,-187500.02235174447,-187500.02235174447
$SILENCE,30379.99932527534,-11887.037680988036,-16393.752860278233,-2464.6374541088885,-187500.02235174447,-187500.02235174447,-187500.02235174447,-187500.02235174447
$SILENCE,30389.163540502017,-11833.259383828567,-16415.657569844436,-2429.500511825146,-187500.02235174447,-187500.02235174447,-187500.02235174447,-187500.02235174447
$SILENCE,30514.84739957421,-11739.739685027562,-16111.584438274436,-2344.9662142951747,-187500.02235174447,-187500.02235174447,-187500.02235174447,-187500.02235174447
$SILENCE,30545.692806922532,-11769.780429575496,-15997.232913641086,-2367.697938406222,-187500.02235174447,-187500.02235174447,-187500.02235174447,-187500.02235174447
$SILENCE,30393.432723692982,-11882.902608263805,-16338.365237517983,-2483.9270095738184,-187500.02235174447,-187500.02235174447,-187500.02235174447,-187500.02235174447
$SILENCE,30361.849708777634,-11855.007631183582,-16453.432017973904,-2465.6209308649222,-187500.02235174447,-187500.02235174447,-187500.02235174447,-187500.02235174447
$SILENCE,30482.325611391738,-11765.488894640077,-16177.499732673137,-2377.0186158440847,-187500.02235174447,-187500.02235174447,-187500.02235174447,-187500.02235174447
$SILENCE,30559.305019295814,-11759.699792826152,-15974.59059650786,-2359.7630691245877,-187500.02235174447,-187500.02235174447,-187500.02235174447,-187500.02235174447
$SILENCE,30422.15471531805,-11868.798657512505,-16276.897940265888,-2453.2157126922266,-187500.02235174447,-187500.02235174447,-187500.02235174447,-187500.02235174447
$SILENCE,30359.569830843193,-11863.121314420858,-16466.328974524615,-2449.147695201361,-187500.02235174447,-187500.02235174447,-187500.02235174447,-187500.02235174447
$SILENCE,30471.976753708932,-11758.4257433922,-16227.791157697578,-2380.6843019347552,-187500.02235174447,-187500.02235174447,-187500.02235174447,-187500.02235174447
$SILENCE,30567.932792655563,-11728.541461055454,-15970.92491041719,-2353.6833946327442,-187500.02235174447,-187500.02235174447,-187500.02235174447,-187500.02235174447
$SILENCE,30452.486032543904,-11846.692782246208,-16208.345140021462,-2446.3760788889026,-187500.02235174447,-187500.02235174447,-187500.02235174447,-187500.02235174447
$SILENCE,30356.664104064002,-11887.819992043971,-16468.027707103218,-2481.065986283539,-187500.02235174447,-187500.02235174447,-187500.02235174447,-187500.02235174447
$SILENCE,30442.763023705844,-11796.177839777212,-16284.117553724953,-2400.7338167111657,-187500.02235174447,-187500.02235174447,-187500.02235174447,-187500.02235174447
$SILENCE,30552.95712387051,-11735.716371025608,-15994.841276984369,-2348.117810263373,-187500.02235174447,-187500.02235174447,-187500.02235174447,-187500.02235174447
$SILENCE,30468.869861229643,-11834.801654195984,-16152.376371905373,-2433.0320874490844,-187500.02235174447,-187500.02235174447,-187500.02235174447,-187500.02235174447
$SILENCE,30354.473633107384,-11890.748070567617,-16459.06465757664,-2476.7073961147544,-187500.02235174447,-187500.02235174447,-187500.02235174447,-187500.02235174447
$SILENCE,30422.11001182914,-11798.301255500468,-16334.833661894043,-2384.238229303149,-187500.02235174447,-187500.02235174447,-187500.02235174447,-187500.02235174447
$SILENCE,30546.028083089364,-11728.65321977773,-16026.17842271071,-2332.60569961139,-187500.02235174447,-187500.02235174447,-187500.02235174447,-187500.02235174447
$SILENCE,30507.247806459407,-11798.61417992284,-16083.443592005206,-2412.647296505844,-187500.02235174447,-187500.02235174447,-187500.02235174447,-187500.02235174447
$SILENCE,30356.44058661945,-11893.832611302449,-16439.238660244784,-2491.0348643106063,-187500.02235174447,-187500.02235174447,-187500.02235174447,-187500.02235174447
$SILENCE,30391.845749836655,-11832.208851839168,-16390.690671287855,-2417.877604708386,-187500.02235174447,-187500.02235174447,-187500.02235174447,-187500.02235174447
$SILENCE,30514.601530385204,-11737.3704001153,-16083.443592005206,-2359.651310402311,-187500.02235174447,-187500.02235174447,-187500.02235174447,-187500.02235174447
$SILENCE,30513.595701884715,-11778.56466514643,-16043.165748496742,-2400.2867818220598,-187500.02235174447,-187500.02235174447,-187500.02235174447,-187500.02235174447
$SILENCE,30389.163540502017,-11880.913303007283,-16374.753877491223,-2463.3187011860255,-187500.02235174447,-187500.02235174447,-187500.02235174447,-187500.02235174447
$SILENCE,30407.8272471222,-11836.790959452506,-16399.184334180874,-2424.627831533889,-187500.02235174447,-187500.02235174447,-187500.02235174447,-187500.02235174447
$SILENCE,30525.732699123946,-11747.406333375733,-16108.678711495248,-2358.9360545797413,-187500.02235174447,-187500.02235174447,-187500.02235174447,-187500.02235174447
$SILENCE,30551.325446525272,-11763.745458572563,-15992.337881605374,-2379.2984937785263,-187500.02235174447,-187500.02235174447,-187500.02235174447,-187500.02235174447
