WORD,Channel_1,Channel_2,Channel_3,Channel_4,Channel_5,Channel_6,Channel_7,Channel_8
$SILENCE,29805.246568351577,-12350.344640057641,-16535.418216635968,-3186.5540965263963,-187500.02235174447,-187500.02235174447,-187500.02235174447,-187500.02235174447
$SILENCE,29690.850340229317,-12459.622318699638,-16746.306925571793,-3283.2924465289652,-187500.02235174447,-187500.02235174447,-187500.02235174447,-187500.02235174447
$SILENCE,29563.646562534163,-12508.215011145474,-17043.786292527475,-3320.9774876806127,-187500.02235174447,-187500.02235174447,-187500.02235174447,-187500.02235174447
$SILENCE,29656.49570900151,-12410.202611708954,-16869.19681658707,-3220.4840446095523,-187500.02235174447,-187500.02235174447,-187500.02235174447,-187500.02235174447
$SILENCE,29785.889957653282,-12345.471959766384,-16560.049839025716,-3168.4044800286865,-187500.02235174447,-187500.02235174447,-187500.02235174447,-187500.02235174447
$SILENCE,29712.553884095418,-12452.335650007208,-16688.795887088287,-3253.6093298923174,-187500.02235174447,-187500.02235174447,-187500.02235174447,-187500.02235174447
$SILENCE,29571.268507393423,-12528.845671277722,-17030.71052202112,-3321.84920571437,-187500.02235174447,-187500.02235174447,-187500.02235174447,-187500.02235174447
$SILENCE,29624.48801094151,-12442.523234191327,-16938.040189509415,-3257.1185537718006,-187500.02235174447,-187500.02235174447,-187500.02235174447,-187500.02235174447
$SILENCE,29759.917230596213,-12352.602166247627,-16616.018607141807,-3185.7047302370943,-187500.02235174447,-187500.02235174447,-187500.02235174447,-187500.02235174447
$SILENCE,29739.398329186242,-12420.104434502655,-16632.78241548329,-3241.7629053310047,-187500.02235174447,-187500.02235174447,-187500.02235174447,-187500.02235174447
$SILENCE,29592.681478581606,-12526.297572409818,-16991.952597135616,-3312.3720660653194,-187500.02235174447,-187500.02235174447,-187500.02235174447,-187500.02235174447
$SILENCE,29616.62019689324,-12464.98673736891,-16970.517274202975,-3225.3343731563536,-187500.02235174447,-187500.02235174447,-187500.02235174447,-187500.02235174447
$SILENCE,29755.513936938518,-12368.047221666244,-16652.72017153742,-3152.490037976508,-187500.02235174447,-187500.02235174447,-187500.02235174447,-187500.02235174447
$SILENCE,29779.966745372625,-12405.061710484233,-16576.47837120037,-3199.451053077108,-187500.02235174447,-187500.02235174447,-187500.02235174447,-187500.02235174447
$SILENCE,29627.28197899842,-12534.791235302835,-16939.515404643465,-3297.5305077469957,-187500.02235174447,-187500.02235174447,-187500.02235174447,-187500.02235174447
$SILENCE,29605.645490365685,-12492.881714449135,-17006.816507198397,-3256.2468357380435,-187500.02235174447,-187500.02235174447,-187500.02235174447,-187500.02235174447
$SILENCE,29722.992148756046,-12387.046204453256,-16718.143727558105,-3178.887448178226,-187500.02235174447,-187500.02235174447,-187500.02235174447,-187500.02235174447
$SILENCE,29786.739323942584,-12388.364957376118,-16549.87979529855,-3160.6707764471507,-187500.02235174447,-187500.02235174447,-187500.02235174447,-187500.02235174447
$SILENCE,29650.125461831747,-12518.921496739567,-16871.968432899528,-3262.8182486079036,-187500.02235174447,-187500.02235174447,-187500.02235174447,-187500.02235174447
$SILENCE,29599.722278085028,-12514.51820308187,-17026.79896674144,-3259.130210772778,-187500.02235174447,-187500.02235174447,-187500.02235174447,-187500.02235174447
$SILENCE,29717.046584730935,-12406.134594218087,-16768.435152582544,-3168.270369561955,-187500.02235174447,-187500.02235174447,-187500.02235174447,-187500.02235174447
$SILENCE,29793.489550768085,-12384.140477674066,-16548.315173186682,-3155.5969304557957,-187500.02235174447,-187500.02235174447,-187500.02235174447,-187500.02235174447
$SILENCE,29664.184709094134,-12511.254848391396,-16827.868441089206,-3281.817231394915,-187500.02235174447,-187500.02235174447,-187500.02235174447,-187500.02235174447
$SILENCE,29588.412295390644,-12527.370456143673,-17049.3742286413,-3289.193307065166,-187500.02235174447,-187500.02235174447,-187500.02235174447,-187500.02235174447
$SILENCE,29694.471322831076,-12426.832309583702,-16821.833470086272,-3165.5434567384073,-187500.02235174447,-187500.02235174447,-187500.02235174447,-187500.02235174447
$SILENCE,29806.967652674637,-12380.765364261313,-16542.347257417114,-3111.206365967556,-187500.02235174447,-187500.02235174447,-187500.02235174447,-187500.02235174447
$SILENCE,29713.3138434069,-12494.692205750014,-16737.74620744541,-3227.457788879608,-187500.02235174447,-187500.02235174447,-187500.02235174447,-187500.02235174447
$SILENCE,29584.61249883324,-12551.9126715556,-17050.402408886242,-3290.065025098923,-187500.02235174447,-187500.02235174447,-187500.02235174447,-187500.02235174447
$SILENCE,29664.318819560867,-12451.598042440182,-16898.05291867887,-3205.620134546773,-187500.02235174447,-187500.02235174447,-187500.02235174447,-187500.02235174447
$SILENCE,29800.32918457141,-12375.468000825405,-16579.7640776353,-3133.2228342560334,-187500.02235174447,-187500.02235174447,-187500.02235174447,-187500.02235174447
$SILENCE,29743.376939699287,-12466.886635647612,-16677.39649741608,-3204.748416513016,-187500.02235174447,-187500.02235174447,-187500.02235174447,-187500.02235174447
$SILENCE,29594.022583248927,-12555.24308147944,-17023.625019028786,-3273.1671062907108,-187500.02235174447,-187500.02235174447,-187500.02235174447,-187500.02235174447
$SILENCE,29642.861144883773,-12472.586330483715,-16943.896346556707,-3200.5686402998736,-187500.02235174447,-187500.02235174447,-187500.02235174447,-187500.02235174447
$SILENCE,29786.627565220308,-12384.431050351985,-16613.939894907464,-3118.3812759377097,-187500.02235174447,-187500.02235174447,-187500.02235174447,-187500.02235174447
$SILENCE,29770.266088279022,-12436.376504466118,-16613.358749551626,-3164.917607893659,-187500.02235174447,-187500.02235174447,-187500.02235174447,-187500.02235174447
$SILENCE,29597.352993172764,-12532.444302135027,-16996.869980915784,-3266.5733416763956,-187500.02235174447,-187500.02235174447,-187500.02235174447,-187500.02235174447
$SILENCE,29613.692118369596,-12489.618359758659,-17000.781536195464,-3231.6375650927503,-187500.02235174447,-187500.02235174447,-187500.02235174447,-187500.02235174447
$SILENCE,29763.26999226451,-12396.031605724289,-16678.044698005284,-3164.6940904491057,-187500.02235174447,-187500.02235174447,-187500.02235174447,-187500.02235174447
$SILENCE,29801.402068305266,-12427.279344472809,-16579.115877046093,-3185.168288370167,-187500.02235174447,-187500.02235174447,-187500.02235174447,-187500.02235174447
$SILENCE,29641.452984983087,-12545.631831363658,-16937.660209853675,-3275.8046121364373,-187500.02235174447,-187500.02235174447,-187500.02235174447,-187500.02235174447
$SILENCE,29615.413202692653,-12503.655255276592,-17024.586144040364,-3246.680289111172,-187500.02235174447,-187500.02235174447,-187500.02235174447,-187500.02235174447
$SILENCE,29745.03096878898,-12393.438803367473,-16731.487718997923,-3148.8690553747483,-187500.02235174447,-187500.02235174447,-187500.02235174447,-187500.02235174447
$SILENCE,29813.539065544497,-12400.725472059903,-16556.875891313066,-3148.354965252276,-187500.02235174447,-187500.02235174447,-187500.02235174447,-187500.02235174447
$SILENCE,29655.266363056468,-12539.932136527555,-16891.68267150911,-3270.4401934671637,-187500.02235174447,-187500.02235174447,-187500.02235174447,-187500.02235174447
$SILENCE,29603.34326068679,-12531.840805034733,-17049.32952515239,-3262.9523590746358,-187500.02235174447,-187500.02235174447,-187500.02235174447,-187500.02235174447
$SILENCE,29735.754994840026,-12423.07721651521,-16780.259225399404,-3157.206256056578,-187500.02235174447,-187500.02235174447,-187500.02235174447,-187500.02235174447
$SILENCE,29818.47880106912,-12388.11908818711,-16548.09165574213,-3133.33459297831,-187500.02235174447,-187500.02235174447,-187500.02235174447,-187500.02235174447
$SILENCE,29699.366354866786,-12510.941923969021,-16802.208638454515,-3229.0894662248456,-187500.02235174447,-187500.02235174447,-187500.02235174447,-187500.02235174447
$SILENCE,29601.175141474625,-12548.939889543044,-17050.268298419513,-3250.6365478797616,-187500.02235174447,-187500.02235174447,-187500.02235174447,-187500.02235174447
$SILENCE,29690.559767551396,-12445.764237137348,-16859.67497344911,-3189.01278841648,-187500.02235174447,-187500.02235174447,-187500.02235174447,-187500.02235174447
$SILENCE,29808.80049571997,-12398.266780169819,-16570.175179263973,-3138.3860872252094,-187500.02235174447,-187500.02235174447,-187500.02235174447,-187500.02235174447
$SILENCE,29718.49944812053,-12494.491040049916,-16742.194204592015,-3214.8961084957255,-187500.02235174447,-187500.02235174447,-187500.02235174447,-187500.02235174447
$SILENCE,29602.24802520848,-12551.711505855503,-17044.769769283506,-3265.6792718981833,-187500.02235174447,-187500.02235174447,-187500.02235174447,-187500.02235174447
$SILENCE,29668.543299262918,-12461.857493145168,-16912.045110707895,-3202.982628701047,-187500.02235174447,-187500.02235174447,-187500.02235174447,-187500.02235174447
$SILENCE,29810.745097487583,-12381.145343917055,-16587.654243428024,-3129.981831310014,-187500.02235174447,-187500.02235174447,-187500.02235174447,-187500.02235174447
$SILENCE,29765.572221943406,-12462.03630710081,-16659.24688091837,-3191.58323902884,-187500.02235174447,-187500.02235174447,-187500.02235174447,-187500.02235174447
$SILENCE,29612.216903235545,-12571.53750318736,-17020.093443404847,-3280.9231616167026,-187500.02235174447,-187500.02235174447,-187500.02235174447,-187500.02235174447
$SILENCE,29650.460737998575,-12486.80203995729,-16953.328782716846,-3199.004018188002,-187500.02235174447,-187500.02235174447,-187500.02235174447,-187500.02235174447
$SILENCE,29792.12609435631,-12391.0248149663,-16621.114804877616,-3101.66217108514,-187500.02235174447,-187500.02235174447,-187500.02235174447,-187500.02235174447
$SILENCE,29790.360306544342,-12453.296775018785,-16611.503554761835,-3185.034177903435,-187500.02235174447,-187500.02235174447,-187500.02235174447,-187500.02235174447
$SILENCE,29633.831040123827,-12556.62888963567,-16981.469628986077,-3282.756004662038,-187500.02235174447,-187500.02235174447,-187500.02235174447,-187500.02235174447
$SILENCE,29643.33053151733,-12500.794231986312,-16998.479306516565,-3221.0875417098455,-187500.02235174447,-187500.02235174447,-187500.02235174447,-187500.02235174447
$SILENCE,29753.3234659819,-12413.018931510322,-16703.905666340073,-3158.659119446173,-187500.02235174447,-187500.02235174447,-187500.02235174447,-187500.02235174447
$SILENCE,29788.23689082109,-12435.705952132459,-16586.536656205255,-3185.369454070265,-187500.02235174447,-187500.02235174447,-187500.02235174447,-187500.02235174447
$SILENCE,29663.53650850493,-12545.274203452374,-16913.05093920838,-3258.1243822722895,-187500.02235174447,-187500.02235174447,-187500.02235174447,-187500.02235174447
$SILENCE,29643.15171756169,-12515.9040112381,-17008.02350139898,-3206.581259558351,-187500.02235174447,-187500.02235174447,-187500.02235174447,-187500.02235174447
$SILENCE,29745.992093800556,-12414.628257111104,-16731.890050398117,-3096.4765663715084,-187500.02235174447,-187500.02235174447,-187500.02235174447,-187500.02235174447
$SILENCE,29808.353460830866,-12414.203573966453,-16556.965298290885,-3116.4143224256427,-187500.02235174447,-187500.02235174447,-187500.02235174447,-187500.02235174447
$SILENCE,29678.020438911968,-12545.274203452374,-16869.733258453998,-3250.9941757910465,-187500.02235174447,-187500.02235174447,-187500.02235174447,-187500.02235174447
$SILENCE,29612.619234635742,-12542.39082841764,-17051.452940875643,-3270.6637109117164,-187500.02235174447,-187500.02235174447,-187500.02235174447,-187500.02235174447
$SILENCE,29707.68120380416,-12442.41147546905,-16818.100728762238,-3189.169250627667,-187500.02235174447,-187500.02235174447,-187500.02235174447,-187500.02235174447
$SILENCE,29817.51767605754,-12388.074384698199,-16549.924498787463,-3143.8622646167596,-187500.02235174447,-187500.02235174447,-187500.02235174447,-187500.02235174447
$SILENCE,29703.702593291117,-12509.71257802398,-16789.244626670436,-3240.466504152597,-187500.02235174447,-187500.02235174447,-187500.02235174447,-187500.02235174447
$SILENCE,29600.05755425186,-12552.225595977974,-17052.011734487027,-3257.9902718055573,-187500.02235174447,-187500.02235174447,-187500.02235174447,-187500.02235174447
$SILENCE,29697.73467752155,-12443.618469669638,-16859.518511237922,-3167.9574451395806,-187500.02235174447,-187500.02235174447,-187500.02235174447,-187500.02235174447
$SILENCE,29812.265016110545,-12372.517570557306,-16566.33067921766,-3122.292831217388,-187500.02235174447,-187500.02235174447,-187500.02235174447,-187500.02235174447
$SILENCE,29715.347852152332,-12496.055662161787,-16736.874489411653,-3225.2226144340775,-187500.02235174447,-187500.02235174447,-187500.02235174447,-187500.02235174447
$SILENCE,29582.734952298993,-12568.721183385991,-17060.058362490938,-3287.025187853001,-187500.02235174447,-187500.02235174447,-187500.02235174447,-187500.02235174447
$SILENCE,29659.82611892535,-12464.763219924358,-16931.20055570609,-3199.9651431995803,-187500.02235174447,-187500.02235174447,-187500.02235174447,-187500.02235174447
$SILENCE,29801.200902605167,-12381.480620083883,-16603.076947102185,-3112.8603950572488,-187500.02235174447,-187500.02235174447,-187500.02235174447,-187500.02235174447
$SILENCE,29771.763655157527,-12463.533873979315,-16651.28965989228,-3190.4209483171644,-187500.02235174447,-187500.02235174447,-187500.02235174447,-187500.02235174447
$SILENCE,29632.601694178786,-12559.311098970307,-17005.073071130882,-3276.005777836535,-187500.02235174447,-187500.02235174447,-187500.02235174447,-187500.02235174447
$SILENCE,29656.138081090223,-12478.017804386354,-16968.863245113283,-3226.9884022460465,-187500.02235174447,-187500.02235174447,-187500.02235174447,-187500.02235174447
$SILENCE,29774.065884836422,-12387.135611431077,-16655.7823605278,-3155.775744411438,-187500.02235174447,-187500.02235174447,-187500.02235174447,-187500.02235174447
$SILENCE,29765.952201599146,-12446.680658660014,-16620.645418244054,-3183.424852302653,-187500.02235174447,-187500.02235174447,-187500.02235174447,-187500.02235174447
$SILENCE,29605.95841478806,-12567.53654092986,-16985.671756943673,-3267.3780044767864,-187500.02235174447,-187500.02235174447,-187500.02235174447,-187500.02235174447
$SILENCE,29622.230484751522,-12504.23640063243,-17004.961312408606,-3206.9612392140916,-187500.02235174447,-187500.02235174447,-187500.02235174447,-187500.02235174447
$SILENCE,29745.88033507828,-12386.06272769722,-16704.50916344037,-3138.6319564142177,-187500.02235174447,-187500.02235174447,-187500.02235174447,-187500.02235174447
$SILENCE,29773.50709122504,-12410.046149497766,-16589.55414170672,-3167.3092445503767,-187500.02235174447,-187500.02235174447,-187500.02235174447,-187500.02235174447
$SILENCE,29623.459830696564,-12539.418046405084,-16931.267610939456,-3266.0816032983785,-187500.02235174447,-187500.02235174447,-187500.02235174447,-187500.02235174447
$SILENCE,29600.728106585517,-12512.439490847528,-17038.93596398067,-3238.454847151619,-187500.02235174447,-187500.02235174447,-187500.02235174447,-187500.02235174447
$SILENCE,29732.268122704998,-12407.252181440852,-16761.55081529031,-3146.030383828924,-187500.02235174447,-187500.02235174447,-187500.02235174447,-187500.02235174447
$SILENCE,29797.870492681326,-12399.183201692487,-16566.867121084586,-3132.887558089204,-187500.02235174447,-187500.02235174447,-187500.02235174447,-187500.02235174447
$SILENCE,29650.617200209763,-12522.922458997067,-16873.041316633382,-3245.0486117659348,-187500.02235174447,-187500.02235174447,-187500.02235174447,-187500.02235174447
$SILENCE,29585.23834767799,-12530.633810834148,-17066.160388727236,-3255.8892078267586,-187500.02235174447,-187500.02235174447,-187500.02235174447,-187500.02235174447
$SILENCE,29700.081610689358,-12421.445539169972,-16823.018112542406,-3154.3228810218434,-187500.02235174447,-187500.02235174447,-187500.02235174447,-187500.02235174447
$SILENCE,29805.47008579613,-12384.02871895179,-16558.95460354741,-3113.5756508798186,-187500.02235174447,-187500.02235174447,-187500.02235174447,-187500.02235174447
$SILENCE,29690.58211929585,-12511.590124558226,-16795.167838951093,-3217.913593997192,-187500.02235174447,-187500.02235174447,-187500.02235174447,-187500.02235174447
$SILENCE,29568.47453933651,-12560.093410026242,-17084.824095347416,-3271.2672080120096,-187500.02235174447,-187500.02235174447,-187500.02235174447,-187500.02235174447
$SILENCE,29668.49859577401,-12451.08395231771,-16900.86923848024,-3194.0195791744686,-187500.02235174447,-187500.02235174447,-187500.02235174447,-187500.02235174447
$SILENCE,29796.730553714104,-12366.460247809917,-16594.42682199798,-3141.068296559846,-187500.02235174447,-187500.02235174447,-187500.02235174447,-187500.02235174447
$SILENCE,29721.226360944078,-12468.674775204037,-16727.911439885072,-3213.5326520839517,-187500.02235174447,-187500.02235174447,-187500.02235174447,-187500.02235174447
$SILENCE,29598.649394351174,-12559.042878036844,-17051.51999610901,-3265.45575445363,-187500.02235174447,-187500.02235174447,-187500.02235174447,-187500.02235174447
$SILENCE,29664.855261427794,-12472.854551417178,-16939.247183710002,-3200.523936810963,-187500.02235174447,-187500.02235174447,-187500.02235174447,-187500.02235174447
$SILENCE,29787.767504187526,-12384.252236396342,-16631.06133116023,-3147.237378029511,-187500.02235174447,-187500.02235174447,-187500.02235174447,-187500.02235174447
$SILENCE,29746.059149033925,-12451.732152906914,-16680.30222419527,-3209.866965993281,-187500.02235174447,-187500.02235174447,-187500.02235174447,-187500.02235174447
$SILENCE,29602.583301375307,-12555.57835764627,-17030.375245854288,-3267.8920945992586,-187500.02235174447,-187500.02235174447,-187500.02235174447,-187500.02235174447
$SILENCE,29637.943761103605,-12480.252978831886,-16990.16445757919,-3199.8980879662145,-187500.02235174447,-187500.02235174447,-187500.02235174447,-187500.02235174447
$SILENCE,29782.13486458479,-12378.105506671132,-16664.16426469854,-3121.465816672542,-187500.02235174447,-187500.02235174447,-187500.02235174447,-187500.02235174447
$SILENCE,29785.666440208726,-12434.387199209596,-16613.090528618162,-3162.369509025754,-187500.02235174447,-187500.02235174447,-187500.02235174447,-187500.02235174447
$SILENCE,29614.496781169986,-12554.639584379147,-16989.471553501076,-3276.877495870292,-187500.02235174447,-187500.02235174447,-187500.02235174447,-187500.02235174447
$SILENCE,29618.207170749567,-12503.387034343128,-17027.201298141634,-3230.5646813588955,-187500.02235174447,-187500.02235174447,-187500.02235174447,-187500.02235174447
$SILENCE,29761.280687007988,-12402.111280216131,-16719.395425247603,-3142.141180293701,-187500.02235174447,-187500.02235174447,-187500.02235174447,-187500.02235174447
$SILENCE,29797.55756825895,-12414.516498388828,-16586.201380038427,-3158.726174679539,-187500.02235174447,-187500.02235174447,-187500.02235174447,-187500.02235174447
$SILENCE,29643.844621639804,-12539.686267338548,-16931.78170106193,-3263.9805393195797,-187500.02235174447,-187500.02235174447,-187500.02235174447,-187500.02235174447
$SILENCE,29616.687252126605,-12524.867060764678,-17061.243004947068,-3243.104009998323,-187500.02235174447,-187500.02235174447,-187500.02235174447,-187500.02235174447
$SILENCE,29743.399291443744,-12411.633123354093,-16783.500228345423,-3148.1537995521785,-187500.02235174447,-187500.02235174447,-187500.02235174447,-187500.02235174447
$SILENCE,29809.359289331354,-12392.45532661144,-16576.724240389376,-3136.106209290768,-187500.02235174447,-187500.02235174447,-187500.02235174447,-187500.02235174447
$SILENCE,29673.1030551318,-12528.152767199608,-16867.72160145302,-3233.269242437988,-187500.02235174447,-187500.02235174447,-187500.02235174447,-187500.02235174447
$SILENCE,29600.728106585517,-12539.395694660629,-17082.365403457334,-3235.929100028169,-187500.02235174447,-187500.02235174447,-187500.02235174447,-187500.02235174447
$SILENCE,29703.59083456884,-12424.150100249064,-16858.646793204163,-3168.113907350768,-187500.02235174447,-187500.02235174447,-187500.02235174447,-187500.02235174447
$SILENCE,29819.641091780795,-12382.419393351007,-16574.645528155033,-3141.7388488935053,-187500.02235174447,-187500.02235174447,-187500.02235174447,-187500.02235174447
$SILENCE,29716.35368065282,-12505.823374488757,-16782.78497252285,-3229.3129836693984,-187500.02235174447,-187500.02235174447,-187500.02235174447,-187500.02235174447
$SILENCE,29608.86414156725,-12546.257680208408,-17069.89313005127,-3266.394527720753,-187500.02235174447,-187500.02235174447,-187500.02235174447,-187500.02235174447
$SILENCE,29688.883386717247,-12439.550452178772,-16906.77009901644,-3188.9010296942033,-187500.02235174447,-187500.02235174447,-187500.02235174447,-187500.02235174447
$SILENCE,29812.779106233014,-12370.952948445434,-16604.37334828059,-3136.7991133688824,-187500.02235174447,-187500.02235174447,-187500.02235174447,-187500.02235174447
$SILENCE,29746.528535667487,-12474.709746206969,-16724.491622983413,-3206.4247973471643,-187500.02235174447,-187500.02235174447,-187500.02235174447,-187500.02235174447
$SILENCE,29599.655222851663,-12564.563758917304,-17075.548121398464,-3270.037862066968,-187500.02235174447,-187500.02235174447,-187500.02235174447,-187500.02235174447
$SILENCE,29655.378121778744,-12477.011975885865,-16971.567806192375,-3197.0147129314796,-187500.02235174447,-187500.02235174447,-187500.02235174447,-187500.02235174447
$SILENCE,29793.713068212637,-12382.620559051104,-16628.96026718143,-3122.3598864507544,-187500.02235174447,-187500.02235174447,-187500.02235174447,-187500.02235174447
$SILENCE,29770.93664061268,-12450.525158706327,-16663.851340276164,-3178.529820266941,-187500.02235174447,-187500.02235174447,-187500.02235174447,-187500.02235174447
$SILENCE,29626.186743520113,-12543.709581340503,-17010.213972355603,-3255.397469448742,-187500.02235174447,-187500.02235174447,-187500.02235174447,-187500.02235174447
$SILENCE,29641.028301838436,-12479.51537126486,-17014.4161003132,-3212.236250905544,-187500.02235174447,-187500.02235174447,-187500.02235174447,-187500.02235174447
$SILENCE,29790.33795479989,-12367.8684077106,-16666.712363566443,-3135.659174401662,-187500.02235174447,-187500.02235174447,-187500.02235174447,-187500.02235174447
$SILENCE,29798.921024670726,-12418.31629494623,-16605.870915159096,-3165.431698016131,-187500.02235174447,-187500.02235174447,-187500.02235174447,-187500.02235174447
$SILENCE,29627.32668248733,-12548.492854653938,-16985.381184265756,-3261.2089230071215,-187500.02235174447,-187500.02235174447,-187500.02235174447,-187500.02235174447
$SILENCE,29616.307272470865,-12510.383130357639,-17042.936926238173,-3222.9874399885466,-187500.02235174447,-187500.02235174447,-187500.02235174447,-187500.02235174447
$SILENCE,29752.094120036858,-12404.659379084038,-16737.813262678774,-3132.1499505221786,-187500.02235174447,-187500.02235174447,-187500.02235174447,-187500.02235174447
$SILENCE,29814.075507411424,-12406.760443062836,-16574.891397344043,-3137.849645358282,-187500.02235174447,-187500.02235174447,-187500.02235174447,-187500.02235174447
$SILENCE,29655.48988050102,-12530.030313733854,-16912.358035130266,-3262.840600352359,-187500.02235174447,-187500.02235174447,-187500.02235174447,-187500.02235174447
$SILENCE,29605.421972921133,-12522.721293296969,-17071.055420762947,-3258.5043619280295,-187500.02235174447,-187500.02235174447,-187500.02235174447,-187500.02235174447
$SILENCE,29733.78804132796,-12411.588419865182,-16801.605141354223,-3164.202352071089,-187500.02235174447,-187500.02235174447,-187500.02235174447,-187500.02235174447
$SILENCE,29822.256245882065,-12384.363995118618,-16568.18587400745,-3138.9895843255026,-187500.02235174447,-187500.02235174447,-187500.02235174447,-187500.02235174447
$SILENCE,29685.083590159848,-12511.590124558226,-16848.208528543535,-3241.6287948642725,-187500.02235174447,-187500.02235174447,-187500.02235174447,-187500.02235174447
$SILENCE,29607.52303689993,-12535.327677169762,-17079.839656333883,-3253.877550825781,-187500.02235174447,-187500.02235174447,-187500.02235174447,-187500.02235174447
$SILENCE,29711.726869550574,-12430.386236952096,-16860.6808019496,-3162.8612474037704,-187500.02235174447,-187500.02235174447,-187500.02235174447,-187500.02235174447
$SILENCE,29824.46906858314,-12380.295977627753,-16572.18683626495,-3113.128615990712,-187500.02235174447,-187500.02235174447,-187500.02235174447,-187500.02235174447
$SILENCE,29718.298282420434,-12493.932246438533,-16780.57214982178,-3218.5394428419404,-187500.02235174447,-187500.02235174447,-187500.02235174447,-187500.02235174447
$SILENCE,29604.818475820837,-12547.978764531466,-17082.991252302083,-3264.1146497863115,-187500.02235174447,-187500.02235174447,-187500.02235174447,-187500.02235174447
$SILENCE,29688.503407061507,-12446.255975515363,-16925.38910214771,-3185.8388407038265,-187500.02235174447,-187500.02235174447,-187500.02235174447,-187500.02235174447
$SILENCE,29814.61194927835,-12369.433029822474,-16606.38500528157,-3122.270479472933,-187500.02235174447,-187500.02235174447,-187500.02235174447,-187500.02235174447
$SILENCE,29751.289457236468,-12464.27148154634,-16709.001864075883,-3195.070111163868,-187500.02235174447,-187500.02235174447,-187500.02235174447,-187500.02235174447
$SILENCE,29607.791257833396,-12549.744552343434,-17054.023391488005,-3264.7404986310603,-187500.02235174447,-187500.02235174447,-187500.02235174447,-187500.02235174447
$SILENCE,29661.457796270588,-12466.439600758506,-16969.98083233605,-3193.0584541628905,-187500.02235174447,-187500.02235174447,-187500.02235174447,-187500.02235174447
$SILENCE,29789.577995488406,-12377.434954337474,-16649.836796502685,-3112.6145258682404,-187500.02235174447,-187500.02235174447,-187500.02235174447,-187500.02235174447
$SILENCE,29767.762692900025,-12446.70301040447,-16660.766799541332,-3182.910762180181,-187500.02235174447,-187500.02235174447,-187500.02235174447,-187500.02235174447
$SILENCE,29616.66490038215,-12554.237252978952,-17030.397597598745,-3281.7054726726383,-187500.02235174447,-187500.02235174447,-187500.02235174447,-187500.02235174447
$SILENCE,29650.550144976398,-12478.643653231104,-17014.952542180126,-3221.579280087862,-187500.02235174447,-187500.02235174447,-187500.02235174447,-187500.02235174447
$SILENCE,29783.94535588567,-12373.903378713534,-16699.569427915743,-3134.0274970564246,-187500.02235174447,-187500.02235174447,-187500.02235174447,-187500.02235174447
$SILENCE,29797.04347813648,-12407.319236674219,-16612.509383262324,-3160.8272386583376,-187500.02235174447,-187500.02235174447,-187500.02235174447,-187500.02235174447
$SILENCE,29639.66484542666,-12530.164424200586,-16965.64459391172,-3252.6482048807393,-187500.02235174447,-187500.02235174447,-187500.02235174447,-187500.02235174447
$SILENCE,29614.653243381174,-12509.444357090517,-17065.154560226747,-3219.657030064706,-187500.02235174447,-187500.02235174447,-187500.02235174447,-187500.02235174447
$SILENCE,29757.07855905039,-12399.607884837138,-16739.757864446387,-3115.9225840476256,-187500.02235174447,-187500.02235174447,-187500.02235174447,-187500.02235174447
$SILENCE,29807.481742797107,-12399.317312159219,-16586.357842249614,-3123.008087039958,-187500.02235174447,-187500.02235174447,-187500.02235174447,-187500.02235174447
$SILENCE,29671.06904638637,-12509.243191390418,-16887.39113657369,-3239.393620418742,-187500.02235174447,-187500.02235174447,-187500.02235174447,-187500.02235174447
$SILENCE,29604.013813020447,-12508.505583823393,-17063.120551481315,-3256.090373526856,-187500.02235174447,-187500.02235174447,-187500.02235174447,-187500.02235174447
$SILENCE,29723.282721433967,-12394.466983612418,-16807.349539679235,-3159.8884653912146,-187500.02235174447,-187500.02235174447,-187500.02235174447,-187500.02235174447
$SILENCE,29816.400088834776,-12370.885893212067,-16561.100371015116,-3118.649496871173,-187500.02235174447,-187500.02235174447,-187500.02235174447,-187500.02235174447
$SILENCE,29688.190482639133,-12498.268484862863,-16824.918010821108,-3229.268280180488,-187500.02235174447,-187500.02235174447,-187500.02235174447,-187500.02235174447
$SILENCE,29599.94579552958,-12522.14014794113,-17065.311022437934,-3261.8347718518703,-187500.02235174447,-187500.02235174447,-187500.02235174447,-187500.02235174447
$SILENCE,29697.935843221647,-12415.254105955853,-16856.14339782517,-3189.526878538952,-187500.02235174447,-187500.02235174447,-187500.02235174447,-187500.02235174447
$SILENCE,29806.90059744127,-12372.897550213045,-16580.166409035493,-3143.5046367054747,-187500.02235174447,-187500.02235174447,-187500.02235174447,-187500.02235174447
$SILENCE,29721.628692344275,-12474.66504271806,-16760.03089666735,-3218.6959050531277,-187500.02235174447,-187500.02235174447,-187500.02235174447,-187500.02235174447
$SILENCE,29614.09444976979,-12543.374305173673,-17047.451978618144,-3239.460675652108,-187500.02235174447,-187500.02235174447,-187500.02235174447,-187500.02235174447
$SILENCE,29676.187595866635,-12442.567937680238,-16912.715663041552,-3183.9165906806697,-187500.02235174447,-187500.02235174447,-187500.02235174447,-187500.02235174447
$SILENCE,29821.9880249486,-12347.81889293419,-16584.815571882198,-3141.0012413264803,-187500.02235174447,-187500.02235174447,-187500.02235174447,-187500.02235174447
$SILENCE,29790.606175733352,-12439.103417289665,-16654.932994238497,-3204.30138162391,-187500.02235174447,-187500.02235174447,-187500.02235174447,-187500.02235174447
$SILENCE,29637.697891914595,-12531.863156779189,-17013.65614100172,-3276.318702258909,-187500.02235174447,-187500.02235174447,-187500.02235174447,-187500.02235174447
$SILENCE,29667.64922948471,-12447.50767320486,-16948.411398936678,-3208.6376200482396,-187500.02235174447,-187500.02235174447,-187500.02235174447,-187500.02235174447
$SILENCE,29796.46233278064,-12358.97241341739,-16626.5239270358,-3133.4687034450417,-187500.02235174447,-187500.02235174447,-187500.02235174447,-187500.02235174447
$SILENCE,29788.013373376536,-12421.020856025321,-16613.8728396741,-3193.840765218826,-187500.02235174447,-187500.02235174447,-187500.02235174447,-187500.02235174447
$SILENCE,29626.29850224239,-12537.026409748365,-16989.069222100883,-3297.6646182137274,-187500.02235174447,-187500.02235174447,-187500.02235174447,-187500.02235174447
$SILENCE,29643.35288326179,-12475.648519474093,-16996.780573937962,-3235.4373616501525,-187500.02235174447,-187500.02235174447,-187500.02235174447,-187500.02235174447
$SILENCE,29788.639222221285,-12361.095829140644,-16669.841607790186,-3129.5124446764526,-187500.02235174447,-187500.02235174447,-187500.02235174447,-187500.02235174447
$SILENCE,29823.686757527204,-12378.709003771426,-16559.021658780774,-3153.2947007768994,-187500.02235174447,-187500.02235174447,-187500.02235174447,-187500.02235174447
$SILENCE,29665.995200395013,-12509.645522790614,-16923.53390735792,-3278.3974144932527,-187500.02235174447,-187500.02235174447,-187500.02235174447,-187500.02235174447
$SILENCE,29626.656130153675,-12488.14314462461,-17029.749397009542,-3268.450888210641,-187500.02235174447,-187500.02235174447,-187500.02235174447,-187500.02235174447
$SILENCE,29747.35555021233,-12373.791619991258,-16745.815187193773,-3183.5813145138404,-187500.02235174447,-187500.02235174447,-187500.02235174447,-187500.02235174447
$SILENCE,29825.407841850265,-12376.742050259358,-16552.897280800018,-3174.707671965083,-187500.02235174447,-187500.02235174447,-187500.02235174447,-187500.02235174447
$SILENCE,29684.92712794866,-12511.031330946844,-16861.86544440573,-3285.5723244634064,-187500.02235174447,-187500.02235174447,-187500.02235174447,-187500.02235174447
$SILENCE,29629.092470299303,-12502.962351198477,-17034.398559856243,-3273.2118097796215,-187500.02235174447,-187500.02235174447,-187500.02235174447,-187500.02235174447
$SILENCE,29750.060111291423,-12385.705099785937,-16775.99004220844,-3159.061450846368,-187500.02235174447,-187500.02235174447,-187500.02235174447,-187500.02235174447
$SILENCE,29839.310626901464,-12356.021983149289,-16530.098501455606,-3134.653345901173,-187500.02235174447,-187500.02235174447,-187500.02235174447,-187500.02235174447
$SILENCE,29705.513084591996,-12479.582426498226,-16792.932664505563,-3262.7735451189933,-187500.02235174447,-187500.02235174447,-187500.02235174447,-187500.02235174447
$SILENCE,29609.37823168972,-12512.95358097,-17041.75228378204,-3291.160260577233,-187500.02235174447,-187500.02235174447,-187500.02235174447,-187500.02235174447
$SILENCE,29720.242884188043,-12400.479602870895,-16827.957848067028,-3191.292666350921,-187500.02235174447,-187500.02235174447,-187500.02235174447,-187500.02235174447
$SILENCE,29835.19790592169,-12342.342715542642,-16539.41917889347,-3141.113000048757,-187500.02235174447,-187500.02235174447,-187500.02235174447,-187500.02235174447
$SILENCE,29744.807451344426,-12457.811827398757,-16717.003788590882,-3244.556873387918,-187500.02235174447,-187500.02235174447,-187500.02235174447,-187500.02235174447
$SILENCE,29624.130383030224,-12512.014807702877,-17028.095367919846,-3293.0601588559343,-187500.02235174447,-187500.02235174447,-187500.02235174447,-187500.02235174447
talvez,29690.537415806943,-12417.176355979009,-16892.86731396524,-3206.245983391522,-187500.02235174447,-187500.02235174447,-187500.02235174447,-187500.02235174447
talvez,29820.490458070097,-12351.752799958325,-16574.7125833884,-3145.2927762618992,-187500.02235174447,-187500.02235174447,-187500.02235174447,-187500.02235174447
talvez,29779.206786061146,-12439.103417289665,-16639.085607419685,-3204.904878724203,-187500.02235174447,-187500.02235174447,-187500.02235174447,-187500.02235174447
talvez,29613.513304413955,-12515.85930774919,-17011.80094621193,-3297.5975629803615,-187500.02235174447,-187500.02235174447,-187500.02235174447,-187500.02235174447
talvez,29653.67938920014,-12432.88963233109,-16955.608660651287,-3242.4781611535745,-187500.02235174447,-187500.02235174447,-187500.02235174447,-187500.02235174447
talvez,29811.840332965894,-12349.58468074616,-16608.91075240502,-3148.690241419106,-187500.02235174447,-187500.02235174447,-187500.02235174447,-187500.02235174447
talvez,29803.972518917624,-12398.423242381006,-16578.937063090452,-3189.8398029613263,-187500.02235174447,-187500.02235174447,-187500.02235174447,-187500.02235174447
talvez,29644.425766995642,-12515.032293204344,-16952.390009449722,-3285.2370482965766,-187500.02235174447,-187500.02235174447,-187500.02235174447,-187500.02235174447
talvez,29648.382025764233,-12452.313298262752,-16976.306376016903,-3238.49955064053,-187500.02235174447,-187500.02235174447,-187500.02235174447,-187500.02235174447
talvez,29772.79183540247,-12353.004497647822,-16676.12244798213,-3161.654253203184,-187500.02235174447,-187500.02235174447,-187500.02235174447,-187500.02235174447
talvez,29805.693603240685,-12385.705099785937,-16560.720391359377,-3192.589067529329,-187500.02235174447,-187500.02235174447,-187500.02235174447,-187500.02235174447
talvez,29658.909697402683,-12507.745624511914,-16900.82453499133,-3282.152507561744,-187500.02235174447,-187500.02235174447,-187500.02235174447,-187500.02235174447
talvez,29638.167278548157,-12479.850647431691,-17003.351986807822,-3230.7658470589936,-187500.02235174447,-187500.02235174447,-187500.02235174447,-187500.02235174447
talvez,29757.41383521722,-12362.682802996971,-16728.514936985368,-3151.238340287011,-187500.02235174447,-187500.02235174447,-187500.02235174447,-187500.02235174447
talvez,29827.53125757352,-12349.048238879233,-16523.907068241486,-3159.106154335279,-187500.02235174447,-187500.02235174447,-187500.02235174447,-187500.02235174447
talvez,29692.97375595257,-12473.882731662123,-16826.773205610898,-3269.1884957776665,-187500.02235174447,-187500.02235174447,-187500.02235174447,-187500.02235174447
talvez,29615.413202692653,-12482.286987577318,-17026.12841440778,-3260.4713154400965,-187500.02235174447,-187500.02235174447,-187500.02235174447,-187500.02235174447
talvez,29721.06989873289,-12377.189085148464,-16786.115382446693,-3176.428756288142,-187500.02235174447,-187500.02235174447,-187500.02235174447,-187500.02235174447
talvez,29823.84321973839,-12342.275660309275,-16521.090748440118,-3139.458970959064,-187500.02235174447,-187500.02235174447,-187500.02235174447,-187500.02235174447
talvez,29699.2098926556,-12462.438638501006,-16766.89288221513,-3238.521902384985,-187500.02235174447,-187500.02235174447,-187500.02235174447,-187500.02235174447
talvez,29599.543464129387,-12502.872944220657,-17039.584164569875,-3281.146679061256,-187500.02235174447,-187500.02235174447,-187500.02235174447,-187500.02235174447
talvez,29706.653023559218,-12390.846001010657,-16837.94907783855,-3195.6736082641614,-187500.02235174447,-187500.02235174447,-187500.02235174447,-187500.02235174447
talvez,29827.352443617874,-12338.565270729694,-16539.486234126834,-3130.5182731769414,-187500.02235174447,-187500.02235174447,-187500.02235174447,-187500.02235174447
talvez,29749.36720721331,-12441.003315568367,-16687.901817310074,-3193.818413474371,-187500.02235174447,-187500.02235174447,-187500.02235174447,-187500.02235174447
talvez,29617.447211438088,-12507.94679021201,-17014.326693335377,-3273.681196413183,-187500.02235174447,-187500.02235174447,-187500.02235174447,-187500.02235174447
talvez,29678.623936012264,-12415.231754211398,-16896.756517500464,-3207.497681081019,-187500.02235174447,-187500.02235174447,-187500.02235174447,-187500.02235174447
talvez,29807.146466630278,-12340.845148664135,-16575.874874100075,-3145.4492384730866,-187500.02235174447,-187500.02235174447,-187500.02235174447,-187500.02235174447
talvez,29765.304001009943,-12422.004332781355,-16632.96122943893,-3217.9582974861023,-187500.02235174447,-187500.02235174447,-187500.02235174447,-187500.02235174447
talvez,29607.746554344485,-12512.148918169609,-17001.720309462584,-3300.2797723149984,-187500.02235174447,-187500.02235174447,-187500.02235174447,-187500.02235174447
talvez,29653.925258389147,-12433.202556753464,-16947.897308814205,-3236.3090796839097,-187500.02235174447,-187500.02235174447,-187500.02235174447,-187500.02235174447
talvez,29791.12026585582,-12337.090055595643,-16627.552107280746,-3154.09936357729,-187500.02235174447,-187500.02235174447,-187500.02235174447,-187500.02235174447
talvez,29796.194111847177,-12385.861561997124,-16576.925406089475,-3176.6746254771506,-187500.02235174447,-187500.02235174447,-187500.02235174447,-187500.02235174447
talvez,29621.38111846222,-12509.869040235168,-16953.1499687612,-3277.5703999484062,-187500.02235174447,-187500.02235174447,-187500.02235174447,-187500.02235174447
talvez,29609.534693900907,-12459.354097766174,-16997.294664060435,-3238.8571785518147,-187500.02235174447,-187500.02235174447,-187500.02235174447,-187500.02235174447
talvez,29747.042625789956,-12349.003535390322,-16689.30997721076,-3150.6348431867177,-187500.02235174447,-187500.02235174447,-187500.02235174447,-187500.02235174447
talvez,29812.242664366087,-12367.041393165755,-16537.876908526054,-3162.3471572812987,-187500.02235174447,-187500.02235174447,-187500.02235174447,-187500.02235174447
talvez,29667.045732384413,-12506.940961711522,-16880.10446788126,-3267.132135287778,-187500.02235174447,-187500.02235174447,-187500.02235174447,-187500.02235174447
talvez,29620.375289961732,-12477.101382863688,-17017.70180674813,-3250.4800856685742,-187500.02235174447,-187500.02235174447,-187500.02235174447,-187500.02235174447
talvez,29733.74333783905,-12351.596337747138,-16747.111588372183,-3169.7679364404603,-187500.02235174447,-187500.02235174447,-187500.02235174447,-187500.02235174447
talvez,29811.32624284342,-12335.81600616169,-16532.154861945495,-3163.7553171819827,-187500.02235174447,-187500.02235174447,-187500.02235174447,-187500.02235174447
talvez,29680.322668590867,-12472.340461294707,-16822.593429397755,-3270.328434744887,-187500.02235174447,-187500.02235174447,-187500.02235174447,-187500.02235174447
talvez,29610.518170656942,-12491.250037103897,-17032.3198476219,-3273.681196413183,-187500.02235174447,-187500.02235174447,-187500.02235174447,-187500.02235174447
talvez,29717.672433575684,-12378.619596793604,-16804.019129755394,-3176.495811521508,-187500.02235174447,-187500.02235174447,-187500.02235174447,-187500.02235174447
talvez,29819.10464991387,-12336.799482917724,-16542.235498694838,-3132.395819711187,-187500.02235174447,-187500.02235174447,-187500.02235174447,-187500.02235174447
talvez,29709.134067193758,-12455.911929120057,-16757.639260010634,-3233.6939255826387,-187500.02235174447,-187500.02235174447,-187500.02235174447,-187500.02235174447
talvez,29600.772810074428,-12508.438528590028,-17040.522937837,-3279.26913252701,-187500.02235174447,-187500.02235174447,-187500.02235174447,-187500.02235174447
talvez,29696.058296687403,-12394.645797568059,-16861.731333939,-3196.500622809008,-187500.02235174447,-187500.02235174447,-187500.02235174447,-187500.02235174447
talvez,29818.47880106912,-12322.427311232963,-16559.669859369977,-3145.046907072891,-187500.02235174447,-187500.02235174447,-187500.02235174447,-187500.02235174447
talvez,29740.918247809204,-12422.36196069264,-16689.198218488484,-3228.485969124552,-187500.02235174447,-187500.02235174447,-187500.02235174447,-187500.02235174447
talvez,29609.489990412,-12503.655255276592,-17018.238248615056,-3283.448908740152,-187500.02235174447,-187500.02235174447,-187500.02235174447,-187500.02235174447
talvez,29671.67254348666,-12419.188012979987,-16914.123822942238,-3209.0623031928903,-187500.02235174447,-187500.02235174447,-187500.02235174447,-187500.02235174447
talvez,29814.097859155878,-12334.25138404982,-16585.731993404865,-3129.7359621210057,-187500.02235174447,-187500.02235174447,-187500.02235174447,-187500.02235174447
talvez,29784.37003903032,-12405.844021540168,-16617.09149087566,-3192.522012295963,-187500.02235174447,-187500.02235174447,-187500.02235174447,-187500.02235174447
talvez,29627.05846155387,-12505.19752564401,-16983.391879009232,-3276.1398883032666,-187500.02235174447,-187500.02235174447,-187500.02235174447,-187500.02235174447
talvez,29656.272191556956,-12439.461045200951,-16958.35792521929,-3222.808626032904,-187500.02235174447,-187500.02235174447,-187500.02235174447,-187500.02235174447
talvez,29788.66157396574,-12343.683820209959,-16646.841662745675,-3148.24320653,-187500.02235174447,-187500.02235174447,-187500.02235174447,-187500.02235174447
talvez,29805.80536196296,-12377.054974681732,-16579.585263679655,-3183.0001691580023,-187500.02235174447,-187500.02235174447,-187500.02235174447,-187500.02235174447
talvez,29644.738691418017,-12487.494944035405,-16944.16456749017,-3288.388644264775,-187500.02235174447,-187500.02235174447,-187500.02235174447,-187500.02235174447
talvez,29636.75911864747,-12438.723437633926,-16998.4122512832,-3243.2828239539654,-187500.02235174447,-187500.02235174447,-187500.02235174447,-187500.02235174447
talvez,29772.65772493574,-12345.293145810741,-16692.752145856877,-3151.0595263313685,-187500.02235174447,-187500.02235174447,-187500.02235174447,-187500.02235174447
talvez,29820.37869934782,-12356.87134943859,-16539.03919923773,-3154.747564166494,-187500.02235174447,-187500.02235174447,-187500.02235174447,-187500.02235174447
talvez,29664.028246882946,-12489.730118480937,-16879.165694614137,-3268.137963788267,-187500.02235174447,-187500.02235174447,-187500.02235174447,-187500.02235174447
talvez,29626.812592364862,-12477.459010774972,-17012.449146801133,-3252.871722325292,-187500.02235174447,-187500.02235174447,-187500.02235174447,-187500.02235174447
talvez,29755.13395728278,-12367.108448399122,-16741.613059236177,-3153.6299769437287,-187500.02235174447,-187500.02235174447,-187500.02235174447,-187500.02235174447
talvez,29833.677987298728,-12347.193044089443,-16536.446396880914,-3131.7029156330727,-187500.02235174447,-187500.02235174447,-187500.02235174447,-187500.02235174447
talvez,29674.265345843476,-12475.08972586271,-16840.921859851107,-3272.720071401605,-187500.02235174447,-187500.02235174447,-187500.02235174447,-187500.02235174447
talvez,29597.800028061873,-12486.46676379046,-17053.643411832265,-3291.7414059330713,-187500.02235174447,-187500.02235174447,-187500.02235174447,-187500.02235174447
talvez,29721.02519524398,-12374.573931047194,-16819.598295640742,-3189.616285516773,-187500.02235174447,-187500.02235174447,-187500.02235174447,-187500.02235174447
talvez,29841.85872576937,-12312.413729716985,-16532.55719334569,-3130.4512179435756,-187500.02235174447,-187500.02235174447,-187500.02235174447,-187500.02235174447
talvez,29738.034872774468,-12442.970269080433,-16729.99015211942,-3228.7318383135607,-187500.02235174447,-187500.02235174447,-187500.02235174447,-187500.02235174447
talvez,29620.442345195097,-12506.471575077961,-17023.669722517698,-3277.682158670683,-187500.02235174447,-187500.02235174447,-187500.02235174447,-187500.02235174447
talvez,29706.429506114666,-12399.674940070503,-16859.496159493465,-3206.916535725181,-187500.02235174447,-187500.02235174447,-187500.02235174447,-187500.02235174447
talvez,29827.15127791778,-12329.088131080644,-16553.724295344866,-3154.747564166494,-187500.02235174447,-187500.02235174447,-187500.02235174447,-187500.02235174447
talvez,29761.70537015264,-12424.910059560545,-16665.34890715467,-3197.171175142667,-187500.02235174447,-187500.02235174447,-187500.02235174447,-187500.02235174447
talvez,29615.971996304037,-12502.403557587095,-17017.52299279249,-3272.7647748905156,-187500.02235174447,-187500.02235174447,-187500.02235174447,-187500.02235174447
talvez,29666.688104473127,-12423.45719617095,-16937.012009264472,-3218.427684119664,-187500.02235174447,-187500.02235174447,-187500.02235174447,-187500.02235174447
talvez,29798.228120592612,-12331.233898548353,-16615.593923997156,-3160.000224113491,-187500.02235174447,-187500.02235174447,-187500.02235174447,-187500.02235174447
talvez,29794.27186182402,-12383.40287010704,-16606.38500528157,-3187.1575936266895,-187500.02235174447,-187500.02235174447,-187500.02235174447,-187500.02235174447
talvez,29642.324703016842,-12500.749528497403,-16962.045963054414,-3259.4431351951525,-187500.02235174447,-187500.02235174447,-187500.02235174447,-187500.02235174447
talvez,29654.215831067067,-12441.383295224106,-16951.630050138243,-3221.646335321228,-187500.02235174447,-187500.02235174447,-187500.02235174447,-187500.02235174447
talvez,29797.177588603212,-12312.547840183717,-16628.937915436974,-3161.296625291899,-187500.02235174447,-187500.02235174447,-187500.02235174447,-187500.02235174447
talvez,29814.74605974508,-12350.612860991105,-16555.534786645745,-3190.9573901840918,-187500.02235174447,-187500.02235174447,-187500.02235174447,-187500.02235174447
talvez,29654.528755489442,-12499.609589530182,-16915.174354931638,-3287.5169262310183,-187500.02235174447,-187500.02235174447,-187500.02235174447,-187500.02235174447
talvez,29642.704682672585,-12458.437676243506,-16995.953559393118,-3236.5996523618287,-187500.02235174447,-187500.02235174447,-187500.02235174447,-187500.02235174447
talvez,29769.304963267445,-12347.64007897855,-16706.7443378859,-3130.741790621494,-187500.02235174447,-187500.02235174447,-187500.02235174447,-187500.02235174447
talvez,29821.317472614945,-12358.860654695112,-16544.627135351555,-3143.974023339036,-187500.02235174447,-187500.02235174447,-187500.02235174447,-187500.02235174447
talvez,29669.772645207962,-12501.37537734215,-16875.92469166812,-3266.5062864430292,-187500.02235174447,-187500.02235174447,-187500.02235174447,-187500.02235174447
talvez,29617.156638760167,-12491.384147570629,-17024.94377195165,-3266.238065509566,-187500.02235174447,-187500.02235174447,-187500.02235174447,-187500.02235174447
talvez,29766.22042253261,-12366.907282699023,-16735.041646366317,-3135.6368226572067,-187500.02235174447,-187500.02235174447,-187500.02235174447,-187500.02235174447
talvez,29846.396129893797,-12338.431160262962,-16507.97027444485,-3136.9332238356146,-187500.02235174447,-187500.02235174447,-187500.02235174447,-187500.02235174447
talvez,29708.999956727024,-12443.663173158548,-16797.04538548534,-3272.2730365124985,-187500.02235174447,-187500.02235174447,-187500.02235174447,-187500.02235174447
talvez,29628.421917965643,-12471.356984538674,-17031.626943543786,-3278.8220976379034,-187500.02235174447,-187500.02235174447,-187500.02235174447,-187500.02235174447
talvez,29731.37405292679,-12395.629274324094,-16823.71101662052,-3193.9301721966476,-187500.02235174447,-187500.02235174447,-187500.02235174447,-187500.02235174447
talvez,29839.757661790572,-12346.343677800141,-16539.352123660105,-3131.948784822081,-187500.02235174447,-187500.02235174447,-187500.02235174447,-187500.02235174447
talvez,29739.957122797627,-12439.12576903412,-16723.73166367193,-3216.7289515410607,-187500.02235174447,-187500.02235174447,-187500.02235174447,-187500.02235174447
talvez,29607.99242353349,-12492.457031304482,-17033.92917322268,-3262.617082907806,-187500.02235174447,-187500.02235174447,-187500.02235174447,-187500.02235174447
talvez,29686.29058436043,-12419.746806591369,-16890.67684300862,-3191.9855704290358,-187500.02235174447,-187500.02235174447,-187500.02235174447,-187500.02235174447
talvez,29840.04823446849,-12348.578852245671,-16563.246138482828,-3147.8408751298043,-187500.02235174447,-187500.02235174447,-187500.02235174447,-187500.02235174447
talvez,29800.105667126856,-12427.36875145063,-16640.180842897993,-3217.354800385809,-187500.02235174447,-187500.02235174447,-187500.02235174447,-187500.02235174447
talvez,29646.415072252166,-12515.345217626718,-16994.903027403718,-3283.9406471181687,-187500.02235174447,-187500.02235174447,-187500.02235174447,-187500.02235174447
talvez,29688.503407061507,-12437.784664366802,-16923.086872468815,-3215.7007712961163,-187500.02235174447,-187500.02235174447,-187500.02235174447,-187500.02235174447
talvez,29824.22319939413,-12346.410733033506,-16606.04972911474,-3151.5736164538407,-187500.02235174447,-187500.02235174447,-187500.02235174447,-187500.02235174447
talvez,29817.383565590808,-12401.59719009366,-16598.584246466668,-3199.138128654734,-187500.02235174447,-187500.02235174447,-187500.02235174447,-187500.02235174447
talvez,29655.713397945572,-12518.317999639274,-16964.795227622417,-3278.620931937806,-187500.02235174447,-187500.02235174447,-187500.02235174447,-187500.02235174447
talvez,29666.06225562838,-12456.157798309065,-16966.11398054528,-3209.822262504371,-187500.02235174447,-187500.02235174447,-187500.02235174447,-187500.02235174447
talvez,29803.503132284062,-12352.624517992082,-16658.06223846224,-3128.6183748982403,-187500.02235174447,-187500.02235174447,-187500.02235174447,-187500.02235174447
talvez,29842.685740314217,-12386.465059097418,-16556.51826340178,-3175.4899830210193,-187500.02235174447,-187500.02235174447,-187500.02235174447,-187500.02235174447
talvez,29687.87755821676,-12512.506546080893,-16908.245314150492,-3293.0154553670236,-187500.02235174447,-187500.02235174447,-187500.02235174447,-187500.02235174447
talvez,29661.01076138148,-12475.067374118255,-17001.049757128927,-3268.6744056551943,-187500.02235174447,-187500.02235174447,-187500.02235174447,-187500.02235174447
talvez,29796.395277547275,-12373.143419402055,-16707.079614052727,-3175.266465576466,-187500.02235174447,-187500.02235174447,-187500.02235174447,-187500.02235174447
talvez,29866.780920837038,-12371.288224612264,-16519.32496062815,-3157.2733112899436,-187500.02235174447,-187500.02235174447,-187500.02235174447,-187500.02235174447
talvez,29716.621901586284,-12504.415214588073,-16842.687647663075,-3256.045670037946,-187500.02235174447,-187500.02235174447,-187500.02235174447,-187500.02235174447
talvez,29649.16433682017,-12505.62220878866,-17021.61336202781,-3256.73857411606,-187500.02235174447,-187500.02235174447,-187500.02235174447,-187500.02235174447
talvez,29766.175719043702,-12382.084117184177,-16764.054210669306,-3169.119735851257,-187500.02235174447,-187500.02235174447,-187500.02235174447,-187500.02235174447
talvez,29870.49131041662,-12346.343677800141,-16510.093690168105,-3138.3413837362987,-187500.02235174447,-187500.02235174447,-187500.02235174447,-187500.02235174447
talvez,29744.561582155417,-12477.190789841508,-16772.257300884405,-3244.2439489655435,-187500.02235174447,-187500.02235174447,-187500.02235174447,-187500.02235174447
talvez,29646.705644930084,-12510.696054780014,-17019.467594560097,-3267.6462254102503,-187500.02235174447,-187500.02235174447,-187500.02235174447,-187500.02235174447
talvez,29739.73360535307,-12409.21913495292,-16823.576906153787,-3182.8660586912706,-187500.02235174447,-187500.02235174447,-187500.02235174447,-187500.02235174447
talvez,29870.267792972067,-12353.071552881189,-16525.4493386089,-3130.004183054469,-187500.02235174447,-187500.02235174447,-187500.02235174447,-187500.02235174447
talvez,29782.358382029342,-12461.343403022696,-16697.513067425858,-3228.2177481910885,-187500.02235174447,-187500.02235174447,-187500.02235174447,-187500.02235174447
talvez,29635.3956622357,-12526.990476487932,-17025.010827185015,-3276.4751644700964,-187500.02235174447,-187500.02235174447,-187500.02235174447,-187500.02235174447
talvez,29695.454799587107,-12442.120902791132,-16901.137459413705,-3212.7950445169267,-187500.02235174447,-187500.02235174447,-187500.02235174447,-187500.02235174447
talvez,29855.403882909286,-12351.529282513773,-16560.899205315018,-3139.3248604923324,-187500.02235174447,-187500.02235174447,-187500.02235174447,-187500.02235174447
talvez,29822.077431926424,-12427.212289239442,-16621.897115933552,-3207.7211985255717,-187500.02235174447,-187500.02235174447,-187500.02235174447,-187500.02235174447
talvez,29678.06514240088,-12519.927325240056,-16972.528931203953,-3274.2176382801104,-187500.02235174447,-187500.02235174447,-187500.02235174447,-187500.02235174447
talvez,29722.03102374447,-12448.357039494162,-16914.414395620155,-3204.1225676682675,-187500.02235174447,-187500.02235174447,-187500.02235174447,-187500.02235174447
talvez,29848.363083405864,-12364.716811742403,-16599.701833689433,-3129.71361037655,-187500.02235174447,-187500.02235174447,-187500.02235174447,-187500.02235174447
talvez,29834.013263465557,-12427.391103195085,-16583.340356748147,-3183.514259280474,-187500.02235174447,-187500.02235174447,-187500.02235174447,-187500.02235174447
talvez,29670.577308008353,-12538.434569649049,-16955.40749495119,-3282.063100583923,-187500.02235174447,-187500.02235174447,-187500.02235174447,-187500.02235174447
talvez,29699.411058355698,-12470.731135693924,-16959.07318104186,-3218.673553308672,-187500.02235174447,-187500.02235174447,-187500.02235174447,-187500.02235174447
talvez,29832.269827398042,-12365.812047220714,-16645.701723778453,-3141.045944815391,-187500.02235174447,-187500.02235174447,-187500.02235174447,-187500.02235174447
talvez,29859.33778993342,-12391.31538764422,-16529.293838655216,-3168.851514917793,-187500.02235174447,-187500.02235174447,-187500.02235174447,-187500.02235174447
talvez,29704.529607835964,-12519.256772906396,-16882.09377313778,-3269.032033566479,-187500.02235174447,-187500.02235174447,-187500.02235174447,-187500.02235174447
talvez,29677.036962155937,-12492.14410688211,-16989.471553501076,-3239.483027396563,-187500.02235174447,-187500.02235174447,-187500.02235174447,-187500.02235174447
talvez,29807.682908497205,-12385.034547452278,-16706.78904137481,-3143.52698844993,-187500.02235174447,-187500.02235174447,-187500.02235174447,-187500.02235174447
talvez,29875.542804663517,-12382.68761428447,-16517.17919316044,-3135.1450842791896,-187500.02235174447,-187500.02235174447,-187500.02235174447,-187500.02235174447
talvez,29720.376994654776,-12515.814604260278,-16833.121101036206,-3261.253626496032,-187500.02235174447,-187500.02235174447,-187500.02235174447,-187500.02235174447
talvez,29650.97482812105,-12514.42879610405,-17025.07788241838,-3277.7939173929594,-187500.02235174447,-187500.02235174447,-187500.02235174447,-187500.02235174447
talvez,29770.288440023476,-12401.910114516035,-16775.587710808242,-3177.814564444371,-187500.02235174447,-187500.02235174447,-187500.02235174447,-187500.02235174447
talvez,29877.777979109047,-12365.92380594299,-16507.7467570003,-3139.3472122367875,-187500.02235174447,-187500.02235174447,-187500.02235174447,-187500.02235174447
talvez,29772.680076680193,-12488.389013813618,-16743.088274370228,-3234.610347105306,-187500.02235174447,-187500.02235174447,-187500.02235174447,-187500.02235174447
talvez,29664.631743983242,-12527.236345676942,-17010.437489800155,-3264.941664331158,-187500.02235174447,-187500.02235174447,-187500.02235174447,-187500.02235174447
talvez,29758.28555325098,-12428.151062506566,-16830.90827833513,-3188.655160505195,-187500.02235174447,-187500.02235174447,-187500.02235174447,-187500.02235174447
talvez,29874.425217440752,-12361.364050074108,-16538.145129459517,-3136.2850232464107,-187500.02235174447,-187500.02235174447,-187500.02235174447,-187500.02235174447
talvez,29793.288385067986,-12458.571786710238,-16677.95529102746,-3197.0594164203903,-187500.02235174447,-187500.02235174447,-187500.02235174447,-187500.02235174447
talvez,29653.567630477864,-12535.595898103225,-17003.620207741285,-3259.8007631064374,-187500.02235174447,-187500.02235174447,-187500.02235174447,-187500.02235174447
talvez,29719.728794065573,-12448.155873794065,-16885.021851661426,-3205.4413205911305,-187500.02235174447,-187500.02235174447,-187500.02235174447,-187500.02235174447
talvez,29865.77509233655,-12356.49136978285,-16551.690286599434,-3132.2393575,-187500.02235174447,-187500.02235174447,-187500.02235174447,-187500.02235174447
talvez,29832.33688263141,-12438.477568444916,-16604.32864479168,-3192.9243436961588,-187500.02235174447,-187500.02235174447,-187500.02235174447,-187500.02235174447
talvez,29672.11957837577,-12538.993363260433,-16972.68539341514,-3274.999949336046,-187500.02235174447,-187500.02235174447,-187500.02235174447,-187500.02235174447
talvez,29700.774514767472,-12466.014917613855,-16927.646628337698,-3193.818413474371,-187500.02235174447,-187500.02235174447,-187500.02235174447,-187500.02235174447
talvez,29829.52056283004,-12375.892683970056,-16614.364578052115,-3128.2160434980447,-187500.02235174447,-187500.02235174447,-187500.02235174447,-187500.02235174447
talvez,29829.252341896576,-12423.010161281843,-16580.591092180144,-3202.1779659006556,-187500.02235174447,-187500.02235174447,-187500.02235174447,-187500.02235174447
talvez,29684.43538957064,-12526.38697938764,-16929.09949172729,-3278.6879871711717,-187500.02235174447,-187500.02235174447,-187500.02235174447,-187500.02235174447
talvez,29693.174921652666,-12471.871074661145,-16957.866186841275,-3222.4062946327085,-187500.02235174447,-187500.02235174447,-187500.02235174447,-187500.02235174447
talvez,29826.257208139567,-12369.701250755938,-16653.591889571177,-3138.9672325810475,-187500.02235174447,-187500.02235174447,-187500.02235174447,-187500.02235174447
talvez,29872.90529881779,-12387.78381202028,-16522.78948101872,-3149.919587364148,-187500.02235174447,-187500.02235174447,-187500.02235174447,-187500.02235174447
talvez,29717.06893647539,-12517.826261261256,-16868.548615997865,-3249.6307193792727,-187500.02235174447,-187500.02235174447,-187500.02235174447,-187500.02235174447
talvez,29677.908680189692,-12494.558095283282,-16983.190713309137,-3223.25566092201,-187500.02235174447,-187500.02235174447,-187500.02235174447,-187500.02235174447
talvez,29793.9812891461,-12381.748841017348,-16712.756957144375,-3148.3773169967317,-187500.02235174447,-187500.02235174447,-187500.02235174447,-187500.02235174447
talvez,29864.76926383606,-12374.35041360264,-16512.21710589136,-3149.561959452863,-187500.02235174447,-187500.02235174447,-187500.02235174447,-187500.02235174447
talvez,29725.495544135043,-12511.903048980601,-16816.13377525017,-3247.395544933742,-187500.02235174447,-187500.02235174447,-187500.02235174447,-187500.02235174447
talvez,29653.142947333214,-12517.021598460866,-17018.774690481983,-3237.560777373407,-187500.02235174447,-187500.02235174447,-187500.02235174447,-187500.02235174447
talvez,29776.010486604035,-12404.0782337282,-16773.956033463008,-3151.3948024981983,-187500.02235174447,-187500.02235174447,-187500.02235174447,-187500.02235174447
talvez,29885.824607112958,-12358.614785506104,-16501.98000693083,-3122.0693137728354,-187500.02235174447,-187500.02235174447,-187500.02235174447,-187500.02235174447
talvez,29766.019256832515,-12480.990586398912,-16733.007637620885,-3222.808626032904,-187500.02235174447,-187500.02235174447,-187500.02235174447,-187500.02235174447
talvez,29652.02536011045,-12527.705732310502,-17011.84564970084,-3259.912521828714,-187500.02235174447,-187500.02235174447,-187500.02235174447,-187500.02235174447
talvez,29738.012521030014,-12417.265762956831,-16830.751816123942,-3175.847610932304,-187500.02235174447,-187500.02235174447,-187500.02235174447,-187500.02235174447
talvez,29871.72065636166,-12354.30089882623,-16519.92845772844,-3118.4706829155307,-187500.02235174447,-187500.02235174447,-187500.02235174447,-187500.02235174447
talvez,29802.452600294662,-12470.351156038185,-16652.4295988595,-3199.093425165823,-187500.02235174447,-187500.02235174447,-187500.02235174447,-187500.02235174447
talvez,29671.516081275477,-12540.021543505376,-16989.873884901273,-3259.353728217331,-187500.02235174447,-187500.02235174447,-187500.02235174447,-187500.02235174447
talvez,29720.287587676954,-12436.309449232753,-16894.856619221762,-3201.9320967116473,-187500.02235174447,-187500.02235174447,-187500.02235174447,-187500.02235174447
talvez,29850.397092151296,-12359.77707621778,-16566.93417631795,-3122.0022585394695,-187500.02235174447,-187500.02235174447,-187500.02235174447,-187500.02235174447
talvez,29810.253359109567,-12436.018876554834,-16601.33351103467,-3187.336407582332,-187500.02235174447,-187500.02235174447,-187500.02235174447,-187500.02235174447
talvez,29665.3022963169,-12536.735837070446,-16966.248091012014,-3270.753117889538,-187500.02235174447,-187500.02235174447,-187500.02235174447,-187500.02235174447
talvez,29705.20016016962,-12452.268594773841,-16930.5970586058,-3207.6317915477507,-187500.02235174447,-187500.02235174447,-187500.02235174447,-187500.02235174447
talvez,29840.115289701855,-12362.235768107865,-16608.91075240502,-3127.724305120028,-187500.02235174447,-187500.02235174447,-187500.02235174447,-187500.02235174447
talvez,29839.91412400176,-12404.815841295223,-16556.205338979405,-3168.113907350768,-187500.02235174447,-187500.02235174447,-187500.02235174447,-187500.02235174447
talvez,29683.362505836787,-12525.33644739824,-16925.00912249197,-3269.4120132222192,-187500.02235174447,-187500.02235174447,-187500.02235174447,-187500.02235174447
talvez,29676.701685989105,-12486.556170768283,-16979.70384117411,-3227.97187900208,-187500.02235174447,-187500.02235174447,-187500.02235174447,-187500.02235174447
talvez,29806.632376507805,-12379.379556105085,-16676.59183461569,-3134.854511601271,-187500.02235174447,-187500.02235174447,-187500.02235174447,-187500.02235174447
talvez,29868.792577838016,-12385.280416641286,-16515.50281232629,-3130.652383643673,-187500.02235174447,-187500.02235174447,-187500.02235174447,-187500.02235174447
talvez,29715.50431436352,-12522.698941552513,-16854.221147802014,-3230.072942980879,-187500.02235174447,-187500.02235174447,-187500.02235174447,-187500.02235174447
talvez,29666.82221493986,-12499.676644763547,-16997.60758848281,-3218.919422497681,-187500.02235174447,-187500.02235174447,-187500.02235174447,-187500.02235174447
talvez,29785.241757064076,-12392.589437078172,-16727.97849511844,-3144.2645960169552,-187500.02235174447,-187500.02235174447,-187500.02235174447,-187500.02235174447
talvez,29872.927650562247,-12383.715794529415,-16508.37260584505,-3127.2772702309217,-187500.02235174447,-187500.02235174447,-187500.02235174447,-187500.02235174447
talvez,29739.55479139743,-12523.19067993053,-16799.86170528671,-3255.3527659598312,-187500.02235174447,-187500.02235174447,-187500.02235174447,-187500.02235174447
talvez,29652.62885721074,-12530.320886411773,-17031.17990865468,-3262.88530384127,-187500.02235174447,-187500.02235174447,-187500.02235174447,-187500.02235174447
talvez,29759.13491954028,-12401.328969160197,-16785.578940579766,-3151.9312443651256,-187500.02235174447,-187500.02235174447,-187500.02235174447,-187500.02235174447
talvez,29860.76830157856,-12335.145453828032,-16518.855573994588,-3112.4804154015083,-187500.02235174447,-187500.02235174447,-187500.02235174447,-187500.02235174447
talvez,29768.0756173224,-12448.066466816243,-16713.44986122249,-3203.9884572015358,-187500.02235174447,-187500.02235174447,-187500.02235174447,-187500.02235174447
talvez,29648.87376414225,-12495.85449646169,-16997.629940227263,-3244.936853043658,-187500.02235174447,-187500.02235174447,-187500.02235174447,-187500.02235174447
talvez,29726.501372635532,-12421.400835681063,-16853.10356057925,-3146.9021018626813,-187500.02235174447,-187500.02235174447,-187500.02235174447,-187500.02235174447
talvez,29859.918935289257,-12370.572968789695,-16544.6047836071,-3125.533834163408,-187500.02235174447,-187500.02235174447,-187500.02235174447,-187500.02235174447
talvez,29799.636280493294,-12456.649536687082,-16657.123465195116,-3214.11379743979,-187500.02235174447,-187500.02235174447,-187500.02235174447,-187500.02235174447
talvez,29669.280906829943,-12520.933153740545,-16989.672719201175,-3241.8299605643706,-187500.02235174447,-187500.02235174447,-187500.02235174447,-187500.02235174447
$SILENCE,29738.75012859704,-12442.746751635881,-16877.019927146426,-3157.34036652331,-187500.02235174447,-187500.02235174447,-187500.02235174447,-187500.02235174447
$SILENCE,29864.05400801349,-12371.39998333454,-16559.468693669878,-3113.5980026242737,-187500.02235174447,-187500.02235174447,-187500.02235174447,-187500.02235174447
$SILENCE,29829.632321552315,-12435.661248643548,-16590.939949862954,-3171.109041107779,-187500.02235174447,-187500.02235174447,-187500.02235174447,-187500.02235174447
$SILENCE,29660.608429981286,-12522.877755508156,-16966.717477645576,-3245.629757121773,-187500.02235174447,-187500.02235174447,-187500.02235174447,-187500.02235174447
$SILENCE,29695.76772400948,-12462.304528034274,-16939.738922088018,-3202.8485182343147,-187500.02235174447,-187500.02235174447,-187500.02235174447,-187500.02235174447
$SILENCE,29841.188173435712,-12374.886855469567,-16619.90781067703,-3130.2277004990224,-187500.02235174447,-187500.02235174447,-187500.02235174447,-187500.02235174447
$SILENCE,29851.782900307528,-12419.0315507688,-16541.94492601692,-3160.3802037692317,-187500.02235174447,-187500.02235174447,-187500.02235174447,-187500.02235174447
$SILENCE,29695.030116442456,-12543.262546451397,-16903.327930370324,-3247.97669028958,-187500.02235174447,-187500.02235174447,-187500.02235174447,-187500.02235174447
$SILENCE,29660.116691603267,-12508.729101267947,-16998.859286172305,-3225.6249458342727,-187500.02235174447,-187500.02235174447,-187500.02235174447,-187500.02235174447
$SILENCE,29804.263091595545,-12385.772155019302,-16694.897913324585,-3133.602813911774,-187500.02235174447,-187500.02235174447,-187500.02235174447,-187500.02235174447
$SILENCE,29863.808138824483,-12369.410678078018,-16525.359931631083,-3126.9196423196368,-187500.02235174447,-187500.02235174447,-187500.02235174447,-187500.02235174447
$SILENCE,29690.179787895657,-12515.322865882263,-16870.247348576468,-3261.946530574147,-187500.02235174447,-187500.02235174447,-187500.02235174447,-187500.02235174447
$SILENCE,29659.267325313966,-12507.14212741162,-16997.965216394095,-3232.1293034707674,-187500.02235174447,-187500.02235174447,-187500.02235174447,-187500.02235174447
$SILENCE,29793.66836472373,-12386.487410841872,-16729.632524208133,-3109.0382467553914,-187500.02235174447,-187500.02235174447,-187500.02235174447,-187500.02235174447
$SILENCE,29875.565156407974,-12359.508855284317,-16505.35512034358,-3077.7905080068717,-187500.02235174447,-187500.02235174447,-187500.02235174447,-187500.02235174447
$SILENCE,29739.755957097528,-12493.194638871508,-16782.494399844934,-3205.240154891033,-187500.02235174447,-187500.02235174447,-187500.02235174447,-187500.02235174447
$SILENCE,29632.087604056313,-12526.565793343281,-17035.85142324584,-3263.7346701305714,-187500.02235174447,-187500.02235174447,-187500.02235174447,-187500.02235174447
$SILENCE,29730.234113959566,-12403.899419772557,-16830.640057401666,-3186.8893726932256,-187500.02235174447,-187500.02235174447,-187500.02235174447,-187500.02235174447
$SILENCE,29837.678949556226,-12335.81600616169,-16554.86423431209,-3139.1236947922343,-187500.02235174447,-187500.02235174447,-187500.02235174447,-187500.02235174447
$SILENCE,29735.956160540125,-12448.021763327333,-16740.428416780047,-3223.7026958111164,-187500.02235174447,-187500.02235174447,-187500.02235174447,-187500.02235174447
$SILENCE,29631.01472032246,-12511.187793158031,-17028.140071408758,-3255.7327456155713,-187500.02235174447,-187500.02235174447,-187500.02235174447,-187500.02235174447
$SILENCE,29703.54613107993,-12428.50869041785,-16882.786677215896,-3174.618264987262,-187500.02235174447,-187500.02235174447,-187500.02235174447,-187500.02235174447
$SILENCE,29827.464202340154,-12359.218282606398,-16572.969147320884,-3114.469720658031,-187500.02235174447,-187500.02235174447,-187500.02235174447,-187500.02235174447
$SILENCE,29758.196146273156,-12445.831292370713,-16675.474247392922,-3219.7017335536166,-187500.02235174447,-187500.02235174447,-187500.02235174447,-187500.02235174447
$SILENCE,29609.780563089917,-12531.952563757011,-17030.956391210126,-3312.617935254328,-187500.02235174447,-187500.02235174447,-187500.02235174447,-187500.02235174447
$SILENCE,29678.221604612067,-12433.94016432049,-16941.616468622266,-3217.6006695748174,-187500.02235174447,-187500.02235174447,-187500.02235174447,-187500.02235174447
$SILENCE,29815.506019056564,-12332.552651471216,-16618.38789205407,-3120.683505616606,-187500.02235174447,-187500.02235174447,-187500.02235174447,-187500.02235174447
$SILENCE,29781.687829695682,-12388.186143420477,-16628.893211948063,-3163.9564828820808,-187500.02235174447,-187500.02235174447,-187500.02235174447,-187500.02235174447
$SILENCE,29637.519077958954,-12494.42398481655,-16980.59791095232,-3257.9008648277363,-187500.02235174447,-187500.02235174447,-187500.02235174447,-187500.02235174447
$SILENCE,29647.934990875125,-12449.27346101683,-16985.962329621594,-3224.037971977946,-187500.02235174447,-187500.02235174447,-187500.02235174447,-187500.02235174447
$SILENCE,29780.056152350448,-12346.746009200337,-16669.90866302355,-3138.6096046697626,-187500.02235174447,-187500.02235174447,-187500.02235174447,-187500.02235174447
$SILENCE,29796.730553714104,-12371.0200036788,-16586.26843527179,-3163.91177939317,-187500.02235174447,-187500.02235174447,-187500.02235174447,-187500.02235174447
$SILENCE,29634.814516879862,-12499.408423830084,-16947.517329158465,-3261.365385218309,-187500.02235174447,-187500.02235174447,-187500.02235174447,-187500.02235174447
$SILENCE,29605.645490365685,-12466.104324591675,-17042.020504715503,-3226.49666386803,-187500.02235174447,-187500.02235174447,-187500.02235174447,-187500.02235174447
$SILENCE,29737.78900358546,-12352.959794158913,-16743.378847048145,-3137.8943488471928,-187500.02235174447,-187500.02235174447,-187500.02235174447,-187500.02235174447
$SILENCE,29813.226141122122,-12336.173634072977,-16553.009039522298,-3150.947767609092,-187500.02235174447,-187500.02235174447,-187500.02235174447,-187500.02235174447
$SILENCE,29661.167223592667,-12481.258807332375,-16878.562197513842,-3254.6151583928063,-187500.02235174447,-187500.02235174447,-187500.02235174447,-187500.02235174447
$SILENCE,29600.973975774526,-12483.136353866621,-17051.788217042475,-3243.97572803208,-187500.02235174447,-187500.02235174447,-187500.02235174447,-187500.02235174447
$SILENCE,29705.155456680714,-12371.534093801272,-16813.451565915533,-3169.4773637625417,-187500.02235174447,-187500.02235174447,-187500.02235174447,-187500.02235174447
$SILENCE,29802.452600294662,-12325.556555456706,-16571.113952531094,-3145.8739216177373,-187500.02235174447,-187500.02235174447,-187500.02235174447,-187500.02235174447
$SILENCE,29671.471377786565,-12444.46783595894,-16832.629362658186,-3243.394582676242,-187500.02235174447,-187500.02235174447,-187500.02235174447,-187500.02235174447
$SILENCE,29592.055629736857,-12475.55911249627,-17067.993231772572,-3255.5986351488395,-187500.02235174447,-187500.02235174447,-187500.02235174447,-187500.02235174447
$SILENCE,29684.368334337276,-12375.803276992236,-16862.71481069503,-3167.9574451395806,-187500.02235174447,-187500.02235174447,-187500.02235174447,-187500.02235174447
$SILENCE,29797.177588603212,-12328.708151424904,-16575.651356655522,-3132.2393575,-187500.02235174447,-187500.02235174447,-187500.02235174447,-187500.02235174447
$SILENCE,29700.796866511926,-12434.45425444296,-16762.04255366833,-3227.390733646242,-187500.02235174447,-187500.02235174447,-187500.02235174447,-187500.02235174447
$SILENCE,29570.821472504318,-12499.497830807904,-17078.94558655567,-3283.3147982734204,-187500.02235174447,-187500.02235174447,-187500.02235174447,-187500.02235174447
$SILENCE,29638.05551982588,-12400.278437170797,-16940.096549999304,-3196.232401875544,-187500.02235174447,-187500.02235174447,-187500.02235174447,-187500.02235174447
$SILENCE,29781.643126206774,-12311.944343083424,-16614.43163328548,-3125.690296374595,-187500.02235174447,-187500.02235174447,-187500.02235174447,-187500.02235174447
$SILENCE,29734.21272447261,-12410.426129153506,-16692.863904579153,-3206.4695008360745,-187500.02235174447,-187500.02235174447,-187500.02235174447,-187500.02235174447
$SILENCE,29588.635812835197,-12504.66108377708,-17042.780464026986,-3277.682158670683,-187500.02235174447,-187500.02235174447,-187500.02235174447,-187500.02235174447
$SILENCE,29643.218772795055,-12413.30950418824,-16968.84089336883,-3212.035085205446,-187500.02235174447,-187500.02235174447,-187500.02235174447,-187500.02235174447
$SILENCE,29782.045457606968,-12318.940439097934,-16650.19442441397,-3142.81173262736,-187500.02235174447,-187500.02235174447,-187500.02235174447,-187500.02235174447
$SILENCE,29777.284536037987,-12380.564198561216,-16632.15656663854,-3184.6765499921503,-187500.02235174447,-187500.02235174447,-187500.02235174447,-187500.02235174447
$SILENCE,29619.883551583716,-12496.770917984357,-16995.88650415975,-3277.928027859691,-187500.02235174447,-187500.02235174447,-187500.02235174447,-187500.02235174447
$SILENCE,29610.71933635704,-12441.584460924205,-17019.825222471383,-3224.261489422499,-187500.02235174447,-187500.02235174447,-187500.02235174447,-187500.02235174447
$SILENCE,29730.725852337582,-12330.049256092223,-16721.205916548482,-3142.007069826969,-187500.02235174447,-187500.02235174447,-187500.02235174447,-187500.02235174447
$SILENCE,29777.59746046036,-12352.11042786961,-16595.745574920842,-3163.4200410151534,-187500.02235174447,-187500.02235174447,-187500.02235174447,-187500.02235174447
$SILENCE,29628.980711577027,-12482.331691066229,-16943.49401515651,-3274.687024913672,-187500.02235174447,-187500.02235174447,-187500.02235174447,-187500.02235174447
$SILENCE,29602.270376952933,-12447.731190649414,-17040.65704830373,-3243.618100120795,-187500.02235174447,-187500.02235174447,-187500.02235174447,-187500.02235174447
$SILENCE,29730.770555826493,-12332.10561658211,-16753.101855886205,-3152.557093209874,-187500.02235174447,-187500.02235174447,-187500.02235174447,-187500.02235174447
$SILENCE,29805.291271840488,-12322.002628088312,-16565.12368501707,-3155.3510612667874,-187500.02235174447,-187500.02235174447,-187500.02235174447,-187500.02235174447
$SILENCE,29656.2498398125,-12451.12865580662,-16883.14430512718,-3260.203094506633,-187500.02235174447,-187500.02235174447,-187500.02235174447,-187500.02235174447
$SILENCE,29587.22765293451,-12465.210254813464,-17069.356688184344,-3256.805629349426,-187500.02235174447,-187500.02235174447,-187500.02235174447,-187500.02235174447
$SILENCE,29685.77649423796,-12369.276567611287,-16837.591449927266,-3187.9622564270803,-187500.02235174447,-187500.02235174447,-187500.02235174447,-187500.02235174447
$SILENCE,29794.450675779663,-12344.734352199359,-16573.349126976627,-3144.465761717053,-187500.02235174447,-187500.02235174447,-187500.02235174447,-187500.02235174447
$SILENCE,29684.569500037374,-12454.548472708282,-16803.19211521055,-3224.3285446558652,-187500.02235174447,-187500.02235174447,-187500.02235174447,-187500.02235174447
$SILENCE,29575.247117906467,-12467.445429258994,-17071.61421437433,-3272.340091745865,-187500.02235174447,-187500.02235174447,-187500.02235174447,-187500.02235174447
$SILENCE,29676.165244122178,-12348.847073179135,-16882.04906964887,-3201.2391926335326,-187500.02235174447,-187500.02235174447,-187500.02235174447,-187500.02235174447
$SILENCE,29811.683870754707,-12304.0541772907,-16572.74562987633,-3141.9400145936033,-187500.02235174447,-187500.02235174447,-187500.02235174447,-187500.02235174447
$SILENCE,29716.197218441634,-12428.441635184483,-16738.93084990154,-3239.3265651853762,-187500.02235174447,-187500.02235174447,-187500.02235174447,-187500.02235174447
$SILENCE,29597.308289683857,-12481.728193965935,-17049.061304218925,-3275.8940191142583,-187500.02235174447,-187500.02235174447,-187500.02235174447,-187500.02235174447
$SILENCE,29673.706552232095,-12383.648739296048,-16917.230715421523,-3206.625963047262,-187500.02235174447,-187500.02235174447,-187500.02235174447,-187500.02235174447
$SILENCE,29805.157161373754,-12305.238819746832,-16596.930217376976,-3142.3199942493434,-187500.02235174447,-187500.02235174447,-187500.02235174447,-187500.02235174447
$SILENCE,29749.814242102417,-12394.221114423408,-16669.640442090087,-3213.8902799952366,-187500.02235174447,-187500.02235174447,-187500.02235174447,-187500.02235174447
$SILENCE,29597.867083295238,-12488.61253125817,-17032.051626688437,-3293.216621067121,-187500.02235174447,-187500.02235174447,-187500.02235174447,-187500.02235174447
$SILENCE,29624.018624307948,-12405.68755932898,-16985.40353601021,-3227.8601202798036,-187500.02235174447,-187500.02235174447,-187500.02235174447,-187500.02235174447
$SILENCE,29750.194221758156,-12312.190212272431,-16671.16036071305,-3154.881674633226,-187500.02235174447,-187500.02235174447,-187500.02235174447,-187500.02235174447
$SILENCE,29753.50227993754,-12362.861616952612,-16630.86016546013,-3201.2391926335326,-187500.02235174447,-187500.02235174447,-187500.02235174447,-187500.02235174447
$SILENCE,29610.652281123675,-12467.0430978588,-16982.564864464388,-3289.550934976451,-187500.02235174447,-187500.02235174447,-187500.02235174447,-187500.02235174447
$SILENCE,29625.404432464176,-12416.259934456342,-16999.775707694975,-3236.0185070059906,-187500.02235174447,-187500.02235174447,-187500.02235174447,-187500.02235174447
$SILENCE,29754.97749507159,-12320.750930398814,-16697.02132904784,-3141.403572726676,-187500.02235174447,-187500.02235174447,-187500.02235174447,-187500.02235174447
$SILENCE,29799.725687471117,-12337.402980018018,-16570.197531008427,-3151.8641891317593,-187500.02235174447,-187500.02235174447,-187500.02235174447,-187500.02235174447
$SILENCE,29633.04872906789,-12472.295757805796,-16925.63497133672,-3272.340091745865,-187500.02235174447,-187500.02235174447,-187500.02235174447,-187500.02235174447
$SILENCE,29595.207225705057,-12443.50671094736,-17037.930135480183,-3252.6035013918286,-187500.02235174447,-187500.02235174447,-187500.02235174447,-187500.02235174447
$SILENCE,29720.108773721313,-12325.1095205676,-16762.154312390605,-3171.9584073970805,-187500.02235174447,-187500.02235174447,-187500.02235174447,-187500.02235174447
$SILENCE,29796.730553714104,-12308.323360481663,-16555.825359323666,-3175.691148721117,-187500.02235174447,-187500.02235174447,-187500.02235174447,-187500.02235174447
$SILENCE,29656.987447379524,-12443.596117925183,-16855.852825147253,-3280.7219959166046,-187500.02235174447,-187500.02235174447,-187500.02235174447,-187500.02235174447
$SILENCE,29584.836016277794,-12459.868187888645,-17060.3265834244,-3277.190420292666,-187500.02235174447,-187500.02235174447,-187500.02235174447,-187500.02235174447
$SILENCE,29700.774514767472,-12356.625480249582,-16820.648827630142,-3178.4404132891195,-187500.02235174447,-187500.02235174447,-187500.02235174447,-187500.02235174447
$SILENCE,29809.47104805363,-12302.824831345659,-16546.303516185704,-3137.6708314026396,-187500.02235174447,-187500.02235174447,-187500.02235174447,-187500.02235174447
$SILENCE,29680.613241268784,-12422.138443248086,-16788.75288829242,-3255.6656903822054,-187500.02235174447,-187500.02235174447,-187500.02235174447,-187500.02235174447
$SILENCE,29580.05274296436,-12467.601891470182,-17063.411124159233,-3269.7025859001383,-187500.02235174447,-187500.02235174447,-187500.02235174447,-187500.02235174447
$SILENCE,29677.1040173893,-12365.476771053884,-16871.074363121315,-3165.7222706940497,-187500.02235174447,-187500.02235174447,-187500.02235174447,-187500.02235174447
$SILENCE,29805.671251496227,-12287.871514305058,-16564.922519316973,-3132.395819711187,-187500.02235174447,-187500.02235174447,-187500.02235174447,-187500.02235174447
$SILENCE,29724.60147435683,-12391.449498110951,-16712.466384466457,-3227.9495272576246,-187500.02235174447,-187500.02235174447,-187500.02235174447,-187500.02235174447
$SILENCE,29577.012905718435,-12475.268539818353,-17050.357705397335,-3298.3351705473865,-187500.02235174447,-187500.02235174447,-187500.02235174447,-187500.02235174447
$SILENCE,29638.346092503798,-12382.799373006746,-16940.07419825485,-3222.9874399885466,-187500.02235174447,-187500.02235174447,-187500.02235174447,-187500.02235174447
$SILENCE,29774.199995303155,-12296.566342898172,-16617.38206355358,-3142.81173262736,-187500.02235174447,-187500.02235174447,-187500.02235174447,-187500.02235174447
$SILENCE,29752.384692714775,-12375.311538614218,-16643.399494099558,-3185.1235848812566,-187500.02235174447,-187500.02235174447,-187500.02235174447,-187500.02235174447
$SILENCE,29591.42978089211,-12477.838990430713,-17010.772765966984,-3271.1554492897335,-187500.02235174447,-187500.02235174447,-187500.02235174447,-187500.02235174447
$SILENCE,29624.756231874973,-12383.78284976278,-16974.250015527014,-3223.0097917330017,-187500.02235174447,-187500.02235174447,-187500.02235174447,-187500.02235174447
$SILENCE,29774.490567981073,-12295.158182997488,-16641.030209187295,-3131.1664737661454,-187500.02235174447,-187500.02235174447,-187500.02235174447,-187500.02235174447
$SILENCE,29768.902631867248,-12354.077381381678,-16601.4676215014,-3200.2110123885886,-187500.02235174447,-187500.02235174447,-187500.02235174447,-187500.02235174447
$SILENCE,29595.43074314961,-12482.018766643854,-16982.497809231023,-3315.1883858666883,-187500.02235174447,-187500.02235174447,-187500.02235174447,-187500.02235174447
$SILENCE,29607.366574688742,-12422.808995581747,-17013.387920068257,-3251.552969402429,-187500.02235174447,-187500.02235174447,-187500.02235174447,-187500.02235174447
$SILENCE,29732.64810236074,-12299.539124910729,-16710.477079209933,-3158.2120845570666,-187500.02235174447,-187500.02235174447,-187500.02235174447,-187500.02235174447
$SILENCE,29779.519710483517,-12304.545915668717,-16568.387039707548,-3174.595913242807,-187500.02235174447,-187500.02235174447,-187500.02235174447,-187500.02235174447
$SILENCE,29629.42774646613,-12440.243356256886,-16908.44647985059,-3273.0553475684346,-187500.02235174447,-187500.02235174447,-187500.02235174447,-187500.02235174447
$SILENCE,29585.171292444622,-12432.464949186438,-17040.880565748284,-3252.0447077804456,-187500.02235174447,-187500.02235174447,-187500.02235174447,-187500.02235174447
$SILENCE,29700.72981127856,-12328.529337469261,-16779.45456259901,-3169.164439340167,-187500.02235174447,-187500.02235174447,-187500.02235174447,-187500.02235174447
$SILENCE,29781.643126206774,-12303.271866234763,-16564.028449538764,-3145.2033692840782,-187500.02235174447,-187500.02235174447,-187500.02235174447,-187500.02235174447
$SILENCE,29642.95055186159,-12429.31335321824,-16853.125912323703,-3259.040803794957,-187500.02235174447,-187500.02235174447,-187500.02235174447,-187500.02235174447
$SILENCE,29573.168405672124,-12443.350248736173,-17061.399467158255,-3275.916370858714,-187500.02235174447,-187500.02235174447,-187500.02235174447,-187500.02235174447
$SILENCE,29671.404322553197,-12335.123102083577,-16836.4738627045,-3200.658047277695,-187500.02235174447,-187500.02235174447,-187500.02235174447,-187500.02235174447
$SILENCE,29774.64703019226,-12291.023110273256,-16571.51628393129,-3155.3734130112425,-187500.02235174447,-187500.02235174447,-187500.02235174447,-187500.02235174447
$SILENCE,29663.469453271566,-12407.78862330778,-16783.924911490074,-3241.40527741972,-187500.02235174447,-187500.02235174447,-187500.02235174447,-187500.02235174447
$SILENCE,29559.75735899894,-12440.422170212529,-17063.81345555943,-3269.143792288756,-187500.02235174447,-187500.02235174447,-187500.02235174447,-187500.02235174447
$SILENCE,29629.494801699497,-12353.339773814652,-16904.378462359724,-3191.560887284385,-187500.02235174447,-187500.02235174447,-187500.02235174447,-187500.02235174447
$SILENCE,29760.9230590967,-12285.301063692697,-16598.316025533204,-3130.719438877039,-187500.02235174447,-187500.02235174447,-187500.02235174447,-187500.02235174447
$SILENCE,29710.676337561174,-12372.539922301761,-16705.671454152045,-3213.979686973058,-187500.02235174447,-187500.02235174447,-187500.02235174447,-187500.02235174447
$SILENCE,29573.32486788331,-12458.370621010139,-17044.389789627767,-3305.241859584077,-187500.02235174447,-187500.02235174447,-187500.02235174447,-187500.02235174447
$SILENCE,29610.67463286813,-12371.645852523548,-16963.49882644401,-3246.590882133351,-187500.02235174447,-187500.02235174447,-187500.02235174447,-187500.02235174447
$SILENCE,29729.675320348182,-12281.14363922401,-16645.813482500733,-3165.3422910383097,-187500.02235174447,-187500.02235174447,-187500.02235174447,-187500.02235174447
$SILENCE,29713.49265736254,-12348.578852245671,-16654.329497138202,-3201.4850618225414,-187500.02235174447,-187500.02235174447,-187500.02235174447,-187500.02235174447
$SILENCE,29574.151882428156,-12452.13448430711,-17013.097347390336,-3278.3080075154317,-187500.02235174447,-187500.02235174447,-187500.02235174447,-187500.02235174447
$SILENCE,29603.43266766461,-12385.034547452278,-16996.26648381549,-3222.3168876548875,-187500.02235174447,-187500.02235174447,-187500.02235174447,-187500.02235174447
$SILENCE,29733.98920702806,-12292.095994007112,-16679.83283756171,-3140.755372137472,-187500.02235174447,-187500.02235174447,-187500.02235174447,-187500.02235174447
$SILENCE,29745.343893211353,-12330.697456681426,-16606.80968842622,-3157.452125245586,-187500.02235174447,-187500.02235174447,-187500.02235174447,-187500.02235174447
$SILENCE,29579.628059819708,-12436.108283532654,-16967.812713123883,-3251.4188589356972,-187500.02235174447,-187500.02235174447,-187500.02235174447,-187500.02235174447
$SILENCE,29567.625173047207,-12399.630236581594,-17036.99136221306,-3241.07000125289,-187500.02235174447,-187500.02235174447,-187500.02235174447,-187500.02235174447
$SILENCE,29702.54030257944,-12304.098880779611,-16734.50520449939,-3163.3529857817875,-187500.02235174447,-187500.02235174447,-187500.02235174447,-187500.02235174447
$SILENCE,29774.13294006979,-12304.165936012976,-16562.329716960157,-3173.2101050865776,-187500.02235174447,-187500.02235174447,-187500.02235174447,-187500.02235174447
$SILENCE,29620.241179495002,-12429.55922240725,-16892.77790698742,-3280.7666994055153,-187500.02235174447,-187500.02235174447,-187500.02235174447,-187500.02235174447
$SILENCE,29570.508548081943,-12421.333780447696,-17044.590955327865,-3259.8007631064374,-187500.02235174447,-187500.02235174447,-187500.02235174447,-187500.02235174447
$SILENCE,29691.49854081852,-12312.145508783522,-16783.053193456315,-3161.8554189032816,-187500.02235174447,-187500.02235174447,-187500.02235174447,-187500.02235174447
$SILENCE,29758.12909103979,-12282.66355784697,-16572.499760687322,-3143.6387471722064,-187500.02235174447,-187500.02235174447,-187500.02235174447,-187500.02235174447
$SILENCE,29617.581321904818,-12423.993638037879,-16847.828548887795,-3251.6423763802504,-187500.02235174447,-187500.02235174447,-187500.02235174447,-187500.02235174447
$SILENCE,29549.676722249595,-12437.583498666705,-17052.749342054052,-3240.5782628748734,-187500.02235174447,-187500.02235174447,-187500.02235174447,-187500.02235174447
$SILENCE,29657.16626133517,-12326.495328723828,-16837.926726094094,-3164.0682416043574,-187500.02235174447,-187500.02235174447,-187500.02235174447,-187500.02235174447
$SILENCE,29762.085349808378,-12288.832639316635,-16574.913749088497,-3144.421058228142,-187500.02235174447,-187500.02235174447,-187500.02235174447,-187500.02235174447
$SILENCE,29671.940764420127,-12390.376614377095,-16766.468199070478,-3238.1642744737,-187500.02235174447,-187500.02235174447,-187500.02235174447,-187500.02235174447
$SILENCE,29553.878850207195,-12432.50965267535,-17052.61523158732,-3275.1787632916885,-187500.02235174447,-187500.02235174447,-187500.02235174447,-187500.02235174447
$SILENCE,29622.833981851814,-12339.369933530084,-16908.53588682841,-3197.908782709692,-187500.02235174447,-187500.02235174447,-187500.02235174447,-187500.02235174447
$SILENCE,29755.692750894163,-12265.81034252767,-16597.55606622172,-3138.9001773476816,-187500.02235174447,-187500.02235174447,-187500.02235174447,-187500.02235174447
$SILENCE,29697.60056705482,-12350.456398779917,-16695.054375535772,-3216.8854137522476,-187500.02235174447,-187500.02235174447,-187500.02235174447,-187500.02235174447
$SILENCE,29554.99643742996,-12443.260841758352,-17036.70078953514,-3276.7433854035603,-187500.02235174447,-187500.02235174447,-187500.02235174447,-187500.02235174447
$SILENCE,29607.76890608894,-12367.309614099218,-16949.93131755964,-3203.362608356787,-187500.02235174447,-187500.02235174447,-187500.02235174447,-187500.02235174447
$SILENCE,29743.421643188198,-12280.137810723521,-16628.58028752569,-3133.0663720448465,-187500.02235174447,-187500.02235174447,-187500.02235174447,-187500.02235174447
$SILENCE,29735.26325646201,-12340.398113775029,-16624.75813922383,-3196.4782710645522,-187500.02235174447,-187500.02235174447,-187500.02235174447,-187500.02235174447
$SILENCE,29570.553251570855,-12441.584460924205,-16991.818486668883,-3287.65103669775,-187500.02235174447,-187500.02235174447,-187500.02235174447,-187500.02235174447
$SILENCE,29578.577527830308,-12382.955835217934,-17000.200390839625,-3235.59382386134,-187500.02235174447,-187500.02235174447,-187500.02235174447,-187500.02235174447
$SILENCE,29704.328442135866,-12290.866648062069,-16705.850268107686,-3175.8252591878486,-187500.02235174447,-187500.02235174447,-187500.02235174447,-187500.02235174447
$SILENCE,29729.07182324789,-12315.967657085379,-16615.973903652895,-3198.0875966653343,-187500.02235174447,-187500.02235174447,-187500.02235174447,-187500.02235174447
$SILENCE,29593.463789637543,-12431.257954985853,-16951.093608271316,-3289.8862111432804,-187500.02235174447,-187500.02235174447,-187500.02235174447,-187500.02235174447
$SILENCE,29585.148940700168,-12400.16667844852,-17019.914629449206,-3248.1108007563116,-187500.02235174447,-187500.02235174447,-187500.02235174447,-187500.02235174447
$SILENCE,29707.390631126244,-12301.975465056357,-16733.007637620885,-3163.3529857817875,-187500.02235174447,-187500.02235174447,-187500.02235174447,-187500.02235174447
$SILENCE,29770.51195746803,-12286.016319515267,-16553.74664708932,-3145.7621628954607,-187500.02235174447,-187500.02235174447,-187500.02235174447,-187500.02235174447
$SILENCE,29624.398603963687,-12405.888725029079,-16866.313441552335,-3238.7007163406274,-187500.02235174447,-187500.02235174447,-187500.02235174447,-187500.02235174447
$SILENCE,29557.85746072024,-12405.911076773535,-17039.807682014427,-3246.7026408556276,-187500.02235174447,-187500.02235174447,-187500.02235174447,-187500.02235174447
$SILENCE,29666.375180050753,-12302.91423832348,-16793.69262381704,-3173.075994619846,-187500.02235174447,-187500.02235174447,-187500.02235174447,-187500.02235174447
$SILENCE,29752.407044459233,-12273.633453087026,-16561.770923348777,-3155.462819989064,-187500.02235174447,-187500.02235174447,-187500.02235174447,-187500.02235174447
$SILENCE,29617.201342249078,-12409.532059375295,-16828.337827722768,-3257.0514985384348,-187500.02235174447,-187500.02235174447,-187500.02235174447,-187500.02235174447
$SILENCE,29526.60972197172,-12442.120902791132,-17066.585071871887,-3270.127269044789,-187500.02235174447,-187500.02235174447,-187500.02235174447,-187500.02235174447
$SILENCE,29635.90975235817,-12321.421482732474,-16852.611822201234,-3184.140108125223,-187500.02235174447,-187500.02235174447,-187500.02235174447,-187500.02235174447
$SILENCE,29776.390466259774,-12272.538217608717,-16548.47163539787,-3142.9011396051815,-187500.02235174447,-187500.02235174447,-187500.02235174447,-187500.02235174447
$SILENCE,29693.86782573078,-12386.710928286426,-16723.999884605397,-3231.59286160384,-187500.02235174447,-187500.02235174447,-187500.02235174447,-187500.02235174447
$SILENCE,29552.425986817598,-12448.044115071789,-17045.865004761818,-3288.4109960092305,-187500.02235174447,-187500.02235174447,-187500.02235174447,-187500.02235174447
$SILENCE,29620.263531239456,-12345.896642911035,-16901.808011747362,-3199.004018188002,-187500.02235174447,-187500.02235174447,-187500.02235174447,-187500.02235174447
$SILENCE,29747.444957190153,-12260.624737814038,-16588.95064460643,-3128.5066161759637,-187500.02235174447,-187500.02235174447,-187500.02235174447,-187500.02235174447
$SILENCE,29686.44704657162,-12350.344640057641,-16685.756049842366,-3213.487948595041,-187500.02235174447,-187500.02235174447,-187500.02235174447,-187500.02235174447
$SILENCE,29534.969274398005,-12441.36094347965,-17035.672609290195,-3287.6286849532944,-187500.02235174447,-187500.02235174447,-187500.02235174447,-187500.02235174447
$SILENCE,29585.528920355908,-12349.9646604019,-16967.58919567933,-3229.3129836693984,-187500.02235174447,-187500.02235174447,-187500.02235174447,-187500.02235174447
$SILENCE,29733.050433760935,-12272.538217608717,-16638.66092427503,-3159.5084857354746,-187500.02235174447,-187500.02235174447,-187500.02235174447,-187500.02235174447
$SILENCE,29729.36239592581,-12328.372875258074,-16612.844659429153,-3200.009846688491,-187500.02235174447,-187500.02235174447,-187500.02235174447,-187500.02235174447
$SILENCE,29570.19562365957,-12441.673867902025,-16977.870998128772,-3271.8707051123033,-187500.02235174447,-187500.02235174447,-187500.02235174447,-187500.02235174447
$SILENCE,29588.233481435,-12390.331910888186,-16990.6114924683,-3221.3110591543987,-187500.02235174447,-187500.02235174447,-187500.02235174447,-187500.02235174447
$SILENCE,29701.757991523504,-12287.245665460308,-16695.121430769137,-3164.872904404748,-187500.02235174447,-187500.02235174447,-187500.02235174447,-187500.02235174447
$SILENCE,29724.757936568018,-12297.125136509554,-16586.38019399407,-3190.0856721503346,-187500.02235174447,-187500.02235174447,-187500.02235174447,-187500.02235174447
$SILENCE,29585.707734311552,-12421.803167081258,-16925.07617772534,-3279.2467807825547,-187500.02235174447,-187500.02235174447,-187500.02235174447,-187500.02235174447
$SILENCE,29567.96044921404,-12388.990806220867,-17015.958370680615,-3245.4062396772197,-187500.02235174447,-187500.02235174447,-187500.02235174447,-187500.02235174447
$SILENCE,29703.300261890923,-12274.1475432095,-16726.235059050927,-3165.364642782765,-187500.02235174447,-187500.02235174447,-187500.02235174447,-187500.02235174447
$SILENCE,29767.963858600124,-12279.467258389863,-16544.694190584923,-3159.776706668938,-187500.02235174447,-187500.02235174447,-187500.02235174447,-187500.02235174447
$SILENCE,29614.854409081272,-12418.226887968409,-16863.13949383968,-3277.302179014943,-187500.02235174447,-187500.02235174447,-187500.02235174447,-187500.02235174447
$SILENCE,29561.94782995556,-12419.70210310246,-17033.683304033675,-3267.6462254102503,-187500.02235174447,-187500.02235174447,-187500.02235174447,-187500.02235174447
$SILENCE,29659.066159613867,-12302.087223778633,-16801.381623909667,-3189.39276807222,-187500.02235174447,-187500.02235174447,-187500.02235174447,-187500.02235174447
$SILENCE,29743.64516063275,-12266.32443265014,-16567.247100740326,-3171.980759141536,-187500.02235174447,-187500.02235174447,-187500.02235174447,-187500.02235174447
$SILENCE,29620.15177251718,-12392.790602778268,-16815.731443849974,-3270.1496207892446,-187500.02235174447,-187500.02235174447,-187500.02235174447,-187500.02235174447
$SILENCE,29539.3725680557,-12422.98780953739,-17054.246908932557,-3283.1806878066886,-187500.02235174447,-187500.02235174447,-187500.02235174447,-187500.02235174447
$SILENCE,29639.642493682208,-12304.43415694644,-16854.310554779837,-3189.459823305586,-187500.02235174447,-187500.02235174447,-187500.02235174447,-187500.02235174447
$SILENCE,29759.961934085124,-12243.033914927712,-16559.669859369977,-3139.9730610815363,-187500.02235174447,-187500.02235174447,-187500.02235174447,-187500.02235174447
$SILENCE,29662.3518660488,-12375.289186869764,-16733.45467250999,-3230.028239491968,-187500.02235174447,-187500.02235174447,-187500.02235174447,-187500.02235174447
$SILENCE,29523.70399519253,-12450.391048239595,-17057.84553978986,-3295.4741472571072,-187500.02235174447,-187500.02235174447,-187500.02235174447,-187500.02235174447
$SILENCE,29611.971034046535,-12356.469018038395,-16917.789509032908,-3220.4169893761864,-187500.02235174447,-187500.02235174447,-187500.02235174447,-187500.02235174447
$SILENCE,29744.427471688687,-12272.851142031092,-16601.847601157144,-3162.9283026371363,-187500.02235174447,-187500.02235174447,-187500.02235174447,-187500.02235174447
$SILENCE,29693.01845944148,-12339.63815446355,-16674.580177614713,-3239.192454718644,-187500.02235174447,-187500.02235174447,-187500.02235174447,-187500.02235174447
talvez,29544.401710558144,-12435.817710854735,-17026.08371091887,-3308.5722695079176,-187500.02235174447,-187500.02235174447,-187500.02235174447,-187500.02235174447
talvez,29586.311231411844,-12358.771247717292,-16966.78453287894,-3240.198283219133,-187500.02235174447,-187500.02235174447,-187500.02235174447,-187500.02235174447
talvez,29723.796811556436,-12262.301118648187,-16642.460720832434,-3150.0536978308796,-187500.02235174447,-187500.02235174447,-187500.02235174447,-187500.02235174447
talvez,29711.63746257275,-12316.794671630225,-16609.29073206076,-3176.6075702437843,-187500.02235174447,-187500.02235174447,-187500.02235174447,-187500.02235174447
talvez,29554.527050796398,-12432.643763142081,-16982.31899527538,-3282.2195627951105,-187500.02235174447,-187500.02235174447,-187500.02235174447,-187500.02235174447
talvez,29560.69613226606,-12379.088983427166,-17015.578391024876,-3252.201169991633,-187500.02235174447,-187500.02235174447,-187500.02235174447,-187500.02235174447
talvez,29692.459665830098,-12277.701470577893,-16712.622846677645,-3182.10609937979,-187500.02235174447,-187500.02235174447,-187500.02235174447,-187500.02235174447
talvez,29743.868678077302,-12296.588694642627,-16576.724240389376,-3187.001131415502,-187500.02235174447,-187500.02235174447,-187500.02235174447,-187500.02235174447
talvez,29578.130492941204,-12432.353190464162,-16928.317180671358,-3289.8862111432804,-187500.02235174447,-187500.02235174447,-187500.02235174447,-187500.02235174447
talvez,29556.918687453115,-12394.712852801425,-17033.593897055853,-3268.2497225105435,-187500.02235174447,-187500.02235174447,-187500.02235174447,-187500.02235174447
talvez,29682.177863380657,-12287.29036894922,-16748.206823850494,-3165.9904916275136,-187500.02235174447,-187500.02235174447,-187500.02235174447,-187500.02235174447
talvez,29743.60045714384,-12289.279674205742,-16555.870062812577,-3149.71842166405,-187500.02235174447,-187500.02235174447,-187500.02235174447,-187500.02235174447
talvez,29595.609557105254,-12418.562164135237,-16879.746839969976,-3272.4742022125965,-187500.02235174447,-187500.02235174447,-187500.02235174447,-187500.02235174447
talvez,29531.437698774065,-12413.778890821803,-17072.19535973017,-3286.5558012194397,-187500.02235174447,-187500.02235174447,-187500.02235174447,-187500.02235174447
talvez,29652.62885721074,-12294.755851597292,-16821.47584217499,-3197.8640792207816,-187500.02235174447,-187500.02235174447,-187500.02235174447,-187500.02235174447
talvez,29756.16213752772,-12261.51880759225,-16556.987650035342,-3156.759221167472,-187500.02235174447,-187500.02235174447,-187500.02235174447,-187500.02235174447
talvez,29650.52779323194,-12388.700233542948,-16786.27184465788,-3241.4723326530857,-187500.02235174447,-187500.02235174447,-187500.02235174447,-187500.02235174447
talvez,29529.180172584078,-12427.279344472809,-17069.557853884442,-3290.93674313268,-187500.02235174447,-187500.02235174447,-187500.02235174447,-187500.02235174447
talvez,29614.027394536424,-12320.549764698717,-16887.01115691795,-3216.8854137522476,-187500.02235174447,-187500.02235174447,-187500.02235174447,-187500.02235174447
talvez,29751.69178863666,-12266.883226261525,-16578.646490412535,-3155.7310409225274,-187500.02235174447,-187500.02235174447,-187500.02235174447,-187500.02235174447
talvez,29676.478168544552,-12373.389288591063,-16726.972666617952,-3246.009736777513,-187500.02235174447,-187500.02235174447,-187500.02235174447,-187500.02235174447
talvez,29546.3239605813,-12439.952783578967,-17055.453903133144,-3304.392493294775,-187500.02235174447,-187500.02235174447,-187500.02235174447,-187500.02235174447
talvez,29605.801952576872,-12343.527357998772,-16938.464872654065,-3215.58901257384,-187500.02235174447,-187500.02235174447,-187500.02235174447,-187500.02235174447
talvez,29727.015462758,-12260.244758158298,-16622.23239210038,-3139.3695639812427,-187500.02235174447,-187500.02235174447,-187500.02235174447,-187500.02235174447
talvez,29688.235186128044,-12342.745046942837,-16672.523817124824,-3209.5763933153626,-187500.02235174447,-187500.02235174447,-187500.02235174447,-187500.02235174447
talvez,29564.339466612277,-12443.75258013637,-17015.354873580323,-3278.1068418153336,-187500.02235174447,-187500.02235174447,-187500.02235174447,-187500.02235174447
talvez,29603.700888598072,-12370.036526922766,-16964.906986344693,-3219.8581957648034,-187500.02235174447,-187500.02235174447,-187500.02235174447,-187500.02235174447
talvez,29727.663663347204,-12279.690775834415,-16658.375162884615,-3159.620244457751,-187500.02235174447,-187500.02235174447,-187500.02235174447,-187500.02235174447
talvez,29719.304110920923,-12329.781035158758,-16627.216831113914,-3206.581259558351,-187500.02235174447,-187500.02235174447,-187500.02235174447,-187500.02235174447
talvez,29560.69613226606,-12430.78856835229,-16990.16445757919,-3283.113632573323,-187500.02235174447,-187500.02235174447,-187500.02235174447,-187500.02235174447
talvez,29572.721370783016,-12386.532114330783,-17017.388882325755,-3236.0632104949013,-187500.02235174447,-187500.02235174447,-187500.02235174447,-187500.02235174447
talvez,29703.54613107993,-12296.722805109359,-16716.377939746137,-3163.040061359413,-187500.02235174447,-187500.02235174447,-187500.02235174447,-187500.02235174447
talvez,29733.58687562786,-12308.010436059289,-16591.85637138562,-3183.134279624734,-187500.02235174447,-187500.02235174447,-187500.02235174447,-187500.02235174447
talvez,29580.47742610901,-12430.430940441007,-16935.961477275072,-3278.7997458934483,-187500.02235174447,-187500.02235174447,-187500.02235174447,-187500.02235174447
talvez,29561.32198111081,-12416.706969345447,-17044.501548350043,-3247.395544933742,-187500.02235174447,-187500.02235174447,-187500.02235174447,-187500.02235174447
talvez,29694.98541295355,-12310.62559016056,-16761.08142865675,-3146.9244536071365,-187500.02235174447,-187500.02235174447,-187500.02235174447,-187500.02235174447
talvez,29765.08048356539,-12289.212618972377,-16558.976955291862,-3132.5299301779187,-187500.02235174447,-187500.02235174447,-187500.02235174447,-187500.02235174447
talvez,29623.973920819037,-12414.225925710909,-16861.172540327614,-3236.197320961633,-187500.02235174447,-187500.02235174447,-187500.02235174447,-187500.02235174447
talvez,29541.451280290043,-12431.16854800803,-17073.916444053226,-3245.294480954943,-187500.02235174447,-187500.02235174447,-187500.02235174447,-187500.02235174447
talvez,29638.279037270433,-12325.690665923437,-16851.181310556094,-3186.48704129303,-187500.02235174447,-187500.02235174447,-187500.02235174447,-187500.02235174447
talvez,29757.190317772667,-12281.52361887975,-16569.8622548416,-3152.6912036766057,-187500.02235174447,-187500.02235174447,-187500.02235174447,-187500.02235174447
talvez,29661.63661022623,-12405.307579673241,-16783.4108213676,-3248.4237251786863,-187500.02235174447,-187500.02235174447,-187500.02235174447,-187500.02235174447
talvez,29553.74473974046,-12456.962461109455,-17062.71822008112,-3268.137963788267,-187500.02235174447,-187500.02235174447,-187500.02235174447,-187500.02235174447
talvez,29653.746444433506,-12363.621576264093,-16880.23857834799,-3173.1877533421225,-187500.02235174447,-187500.02235174447,-187500.02235174447,-187500.02235174447
talvez,29787.432228020698,-12283.065889247167,-16573.460885698903,-3113.687409602095,-187500.02235174447,-187500.02235174447,-187500.02235174447,-187500.02235174447
talvez,29704.77547702497,-12379.714832271915,-16710.477079209933,-3203.0943874233235,-187500.02235174447,-187500.02235174447,-187500.02235174447,-187500.02235174447
talvez,29569.435664348086,-12465.925510636034,-17053.46459787662,-3278.196248793155,-187500.02235174447,-187500.02235174447,-187500.02235174447,-187500.02235174447
talvez,29616.41903119314,-12387.604998064638,-16955.474550184554,-3206.3800938582535,-187500.02235174447,-187500.02235174447,-187500.02235174447,-187500.02235174447
talvez,29751.60238165884,-12300.612008644583,-16633.117691650117,-3129.2442237429887,-187500.02235174447,-187500.02235174447,-187500.02235174447,-187500.02235174447
talvez,29727.618959858297,-12372.517570557306,-16668.075819978218,-3203.653181034706,-187500.02235174447,-187500.02235174447,-187500.02235174447,-187500.02235174447
talvez,29591.787408803393,-12470.909949649567,-17015.64544625824,-3270.395489978253,-187500.02235174447,-187500.02235174447,-187500.02235174447,-187500.02235174447
talvez,29601.108086241256,-12417.623390868115,-17001.89912341823,-3204.591954301829,-187500.02235174447,-187500.02235174447,-187500.02235174447,-187500.02235174447
talvez,29734.726814595084,-12311.430252960952,-16686.717174853944,-3132.7310958780167,-187500.02235174447,-187500.02235174447,-187500.02235174447,-187500.02235174447
talvez,29779.519710483517,-12347.796541189737,-16601.780545923775,-3177.948674911103,-187500.02235174447,-187500.02235174447,-187500.02235174447,-187500.02235174447
talvez,29606.09252525479,-12476.542589252305,-16977.915701617683,-3278.1068418153336,-187500.02235174447,-187500.02235174447,-187500.02235174447,-187500.02235174447
talvez,29621.068194039846,-12440.779798123813,-17026.910725463717,-3241.3158704418984,-187500.02235174447,-187500.02235174447,-187500.02235174447,-187500.02235174447
talvez,29744.673340877696,-12336.888889895547,-16729.386655019123,-3148.7796483969273,-187500.02235174447,-187500.02235174447,-187500.02235174447,-187500.02235174447
talvez,29759.291381751467,-12347.081285367167,-16604.6192174696,-3158.2567880459774,-187500.02235174447,-187500.02235174447,-187500.02235174447,-187500.02235174447
talvez,29608.461810167053,-12493.507563293882,-16941.43765466662,-3250.837713579859,-187500.02235174447,-187500.02235174447,-187500.02235174447,-187500.02235174447
talvez,29580.790350531384,-12480.52119976535,-17086.411069203743,-3231.659916837206,-187500.02235174447,-187500.02235174447,-187500.02235174447,-187500.02235174447
talvez,29715.75018355253,-12349.092942368145,-16786.428306869067,-3154.166418810656,-187500.02235174447,-187500.02235174447,-187500.02235174447,-187500.02235174447
talvez,29795.814132191437,-12339.682857952459,-16566.442437939935,-3155.038136844413,-187500.02235174447,-187500.02235174447,-187500.02235174447,-187500.02235174447
talvez,29661.547203248407,-12477.66017647507,-16859.786732171386,-3247.619062378295,-187500.02235174447,-187500.02235174447,-187500.02235174447,-187500.02235174447
talvez,29601.890397297193,-12494.580447027738,-17069.222577717614,-3239.237158207555,-187500.02235174447,-187500.02235174447,-187500.02235174447,-187500.02235174447
talvez,29720.734622566062,-12385.25806489683,-16827.4214062001,-3161.4977909919967,-187500.02235174447,-187500.02235174447,-187500.02235174447,-187500.02235174447
talvez,29834.370891376842,-12338.878195152069,-16553.27726045576,-3141.202407026578,-187500.02235174447,-187500.02235174447,-187500.02235174447,-187500.02235174447
talvez,29734.07861400588,-12455.978984353422,-16762.958975190995,-3239.3489169298314,-187500.02235174447,-187500.02235174447,-187500.02235174447,-187500.02235174447
talvez,29595.564853616343,-12512.439490847528,-17070.98836552958,-3269.8590481113256,-187500.02235174447,-187500.02235174447,-187500.02235174447,-187500.02235174447
talvez,29672.454854542597,-12417.109300745644,-16910.21226766256,-3165.588160227318,-187500.02235174447,-187500.02235174447,-187500.02235174447,-187500.02235174447
talvez,29802.832579950405,-12350.702267968925,-16597.310197032715,-3118.3812759377097,-187500.02235174447,-187500.02235174447,-187500.02235174447,-187500.02235174447
talvez,29739.2195152306,-12449.139350550098,-16711.192335032505,-3213.622059061773,-187500.02235174447,-187500.02235174447,-187500.02235174447,-187500.02235174447
talvez,29608.327699700323,-12533.919517269078,-17052.83874903187,-3279.067966826912,-187500.02235174447,-187500.02235174447,-187500.02235174447,-187500.02235174447
talvez,29671.78430220894,-12444.356077236662,-16954.78164610644,-3204.68136127965,-187500.02235174447,-187500.02235174447,-187500.02235174447,-187500.02235174447
talvez,29814.790763233992,-12355.574948260182,-16622.7241304784,-3121.041133527891,-187500.02235174447,-187500.02235174447,-187500.02235174447,-187500.02235174447
talvez,29786.627565220308,-12425.714722360937,-16639.890270220076,-3181.144974368212,-187500.02235174447,-187500.02235174447,-187500.02235174447,-187500.02235174447
talvez,29619.48122018352,-12530.007961989399,-17017.590048025853,-3270.1719725336998,-187500.02235174447,-187500.02235174447,-187500.02235174447,-187500.02235174447
talvez,29646.86210714127,-12462.013955356355,-17001.921475162682,-3210.3363526268427,-187500.02235174447,-187500.02235174447,-187500.02235174447,-187500.02235174447
talvez,29794.070696123923,-12369.857712967125,-16678.312918938747,-3127.500787675475,-187500.02235174447,-187500.02235174447,-187500.02235174447,-187500.02235174447
talvez,29812.689699255196,-12402.22303893841,-16597.354900521626,-3161.00605261398,-187500.02235174447,-187500.02235174447,-187500.02235174447,-187500.02235174447
talvez,29650.796014165404,-12522.721293296969,-16958.246166497014,-3267.4450597101522,-187500.02235174447,-187500.02235174447,-187500.02235174447,-187500.02235174447
talvez,29641.184764049623,-12480.923531165545,-17029.190603398158,-3235.839693050348,-187500.02235174447,-187500.02235174447,-187500.02235174447,-187500.02235174447
talvez,29773.50709122504,-12375.73622175887,-16733.87935565464,-3143.7058024055723,-187500.02235174447,-187500.02235174447,-187500.02235174447,-187500.02235174447
talvez,29834.728519288128,-12389.840172510168,-16571.315118231192,-3149.584311197318,-187500.02235174447,-187500.02235174447,-187500.02235174447,-187500.02235174447
talvez,29672.79013070943,-12533.226613190964,-16913.58738107531,-3258.705527628127,-187500.02235174447,-187500.02235174447,-187500.02235174447,-187500.02235174447
talvez,29615.14498175919,-12515.52403158236,-17070.496627151566,-3240.421800663686,-187500.02235174447,-187500.02235174447,-187500.02235174447,-187500.02235174447
talvez,29741.901724565236,-12393.125878945099,-16805.315530933804,-3148.399668741187,-187500.02235174447,-187500.02235174447,-187500.02235174447,-187500.02235174447
talvez,29844.33976940391,-12363.666279753004,-16557.010001779796,-3126.0926277747903,-187500.02235174447,-187500.02235174447,-187500.02235174447,-187500.02235174447
talvez,29708.776439282472,-12492.52408653785,-16832.31643823581,-3243.372230931787,-187500.02235174447,-187500.02235174447,-187500.02235174447,-187500.02235174447
talvez,29609.221769478536,-12522.989514230432,-17078.207978988645,-3266.908617843225,-187500.02235174447,-187500.02235174447,-187500.02235174447,-187500.02235174447
talvez,29716.532494608462,-12419.724454846913,-16861.66427870563,-3168.0245003729465,-187500.02235174447,-187500.02235174447,-187500.02235174447,-187500.02235174447
talvez,29827.464202340154,-12370.595320534148,-16575.80781886671,-3111.9216217901258,-187500.02235174447,-187500.02235174447,-187500.02235174447,-187500.02235174447
talvez,29737.02904427398,-12483.024595144343,-16765.79764673682,-3207.6317915477507,-187500.02235174447,-187500.02235174447,-187500.02235174447,-187500.02235174447
talvez,29614.697946870085,-12546.078866252765,-17064.215786959623,-3267.0874317988673,-187500.02235174447,-187500.02235174447,-187500.02235174447,-187500.02235174447
talvez,29700.327479878364,-12445.719533648436,-16908.02179670594,-3190.4433000616195,-187500.02235174447,-187500.02235174447,-187500.02235174447,-187500.02235174447
talvez,29833.879152998827,-12361.453457051928,-16592.459868485912,-3118.2918689598882,-187500.02235174447,-187500.02235174447,-187500.02235174447,-187500.02235174447
talvez,29761.303038752445,-12460.18111231102,-16706.11848904115,-3199.808680988393,-187500.02235174447,-187500.02235174447,-187500.02235174447,-187500.02235174447
talvez,29624.10803128577,-12550.660973866103,-17057.3761531563,-3263.7346701305714,-187500.02235174447,-187500.02235174447,-187500.02235174447,-187500.02235174447
talvez,29675.271174343965,-12452.313298262752,-16968.371506735268,-3187.9622564270803,-187500.02235174447,-187500.02235174447,-187500.02235174447,-187500.02235174447
talvez,29822.345652859887,-12357.83247445017,-16630.122557893104,-3099.2928861728774,-187500.02235174447,-187500.02235174447,-187500.02235174447,-187500.02235174447
talvez,29801.67028923873,-12426.139405505588,-16629.22848811489,-3152.4229827431423,-187500.02235174447,-187500.02235174447,-187500.02235174447,-187500.02235174447
talvez,29630.43357496662,-12551.085657010753,-17008.582295010365,-3252.3799839472754,-187500.02235174447,-187500.02235174447,-187500.02235174447,-187500.02235174447
talvez,29639.955418104582,-12486.37735681264,-17007.956446165615,-3200.7027507666053,-187500.02235174447,-187500.02235174447,-187500.02235174447,-187500.02235174447
talvez,29774.69173368117,-12376.83145723718,-16688.68412836601,-3134.340421478799,-187500.02235174447,-187500.02235174447,-187500.02235174447,-187500.02235174447
talvez,29830.526391330528,-12420.283248458296,-16599.43361275597,-3179.0662621338683,-187500.02235174447,-187500.02235174447,-187500.02235174447,-187500.02235174447
talvez,29674.01947665447,-12554.349011701228,-16964.795227622417,-3276.251647025543,-187500.02235174447,-187500.02235174447,-187500.02235174447,-187500.02235174447
talvez,29655.601639223296,-12507.56681055627,-17037.75132152454,-3226.2731464234766,-187500.02235174447,-187500.02235174447,-187500.02235174447,-187500.02235174447
talvez,29786.47110300912,-12396.925675502502,-16739.243774323913,-3131.457046444064,-187500.02235174447,-187500.02235174447,-187500.02235174447,-187500.02235174447
talvez,29844.607990337372,-12386.487410841872,-16561.770923348777,-3125.5785376523186,-187500.02235174447,-187500.02235174447,-187500.02235174447,-187500.02235174447
talvez,29698.740506022037,-12516.351046127207,-16883.032546404906,-3237.806646562415,-187500.02235174447,-187500.02235174447,-187500.02235174447,-187500.02235174447
talvez,29627.1925720206,-12523.436549119539,-17065.020449760013,-3248.0884490118565,-187500.02235174447,-187500.02235174447,-187500.02235174447,-187500.02235174447
talvez,29733.050433760935,-12408.727396574903,-16819.03950202936,-3159.2402648020106,-187500.02235174447,-187500.02235174447,-187500.02235174447,-187500.02235174447
talvez,29827.687719784706,-12379.558370060728,-16570.398696708526,-3122.7398661064944,-187500.02235174447,-187500.02235174447,-187500.02235174447,-187500.02235174447
talvez,29711.570407339386,-12514.0041129594,-16816.245533972447,-3211.811567760893,-187500.02235174447,-187500.02235174447,-187500.02235174447,-187500.02235174447
talvez,29620.375289961732,-12518.653275806104,-17057.577318856398,-3201.462710078086,-187500.02235174447,-187500.02235174447,-187500.02235174447,-187500.02235174447
talvez,29714.31967190739,-12408.369768663619,-16858.535034481887,-3114.402665424665,-187500.02235174447,-187500.02235174447,-187500.02235174447,-187500.02235174447
talvez,29833.387414620807,-12378.194913648953,-16561.726219859866,-3115.095569502779,-187500.02235174447,-187500.02235174447,-187500.02235174447,-187500.02235174447
talvez,29737.431375674176,-12489.528952780838,-16750.88903318513,-3227.8601202798036,-187500.02235174447,-187500.02235174447,-187500.02235174447,-187500.02235174447
talvez,29604.594958376285,-12541.608517361703,-17066.67447884971,-3270.8872283562696,-187500.02235174447,-187500.02235174447,-187500.02235174447,-187500.02235174447
talvez,29688.682221017152,-12451.50863546236,-16916.001369476482,-3177.300474321899,-187500.02235174447,-187500.02235174447,-187500.02235174447,-187500.02235174447
talvez,29813.740231244592,-12373.63515778007,-16603.926313391486,-3101.9303920186035,-187500.02235174447,-187500.02235174447,-187500.02235174447,-187500.02235174447
talvez,29742.818146087906,-12452.22389128493,-16697.848343592686,-3171.7348899525273,-187500.02235174447,-187500.02235174447,-187500.02235174447,-187500.02235174447
talvez,29594.693135582584,-12524.442377620027,-17043.22749891609,-3247.9543385451248,-187500.02235174447,-187500.02235174447,-187500.02235174447,-187500.02235174447
talvez,29662.508328259984,-12447.440617971495,-16954.133445517236,-3188.5657535273735,-187500.02235174447,-187500.02235174447,-187500.02235174447,-187500.02235174447
talvez,29803.90546368426,-12372.964605446412,-16625.33928457967,-3124.0362672849024,-187500.02235174447,-187500.02235174447,-187500.02235174447,-187500.02235174447
talvez,29803.145504372776,-12414.225925710909,-16591.23052254087,-3172.2489800749995,-187500.02235174447,-187500.02235174447,-187500.02235174447,-187500.02235174447
talvez,29655.087549100823,-12517.915668239079,-16940.431826166132,-3252.2458734805437,-187500.02235174447,-187500.02235174447,-187500.02235174447,-187500.02235174447
talvez,29658.708531702585,-12475.55911249627,-16954.960460062084,-3207.3412188698317,-187500.02235174447,-187500.02235174447,-187500.02235174447,-187500.02235174447
talvez,29778.692695938673,-12379.960701460923,-16655.044752960774,-3140.3530407372764,-187500.02235174447,-187500.02235174447,-187500.02235174447,-187500.02235174447
talvez,29808.04053640849,-12399.876105770601,-16549.343353431625,-3190.599762272807,-187500.02235174447,-187500.02235174447,-187500.02235174447,-187500.02235174447
talvez,29663.648267227207,-12509.578467557249,-16888.955758685563,-3285.4382139966747,-187500.02235174447,-187500.02235174447,-187500.02235174447,-187500.02235174447
talvez,29635.753290146982,-12469.770010682347,-16977.40161149521,-3238.9689372740913,-187500.02235174447,-187500.02235174447,-187500.02235174447,-187500.02235174447
talvez,29764.342875998365,-12365.744991987347,-16681.64332886259,-3141.2471105154887,-187500.02235174447,-187500.02235174447,-187500.02235174447,-187500.02235174447
talvez,29833.387414620807,-12352.937442414457,-16478.287157808205,-3132.8652063447485,-187500.02235174447,-187500.02235174447,-187500.02235174447,-187500.02235174447
talvez,29673.97477316556,-12487.584351013227,-16798.542952363845,-3234.319774427387,-187500.02235174447,-187500.02235174447,-187500.02235174447,-187500.02235174447
