WORD,Channel_1,Channel_2,Channel_3,Channel_4,Channel_5,Channel_6,Channel_7,Channel_8
$SILENCE,24420.487811623552,-14423.357179565095,-20344.043713098017,-8332.08213234927,-187500.02235174447,-187500.02235174447,-187500.02235174447,-187500.02235174447
$SILENCE,24408.64138706224,-14441.707961762902,-20489.106534612958,-8327.70119043603,-187500.02235174447,-187500.02235174447,-187500.02235174447,-187500.02235174447
$SILENCE,24490.94051014668,-14359.341783445096,-20193.43765895816,-8225.061979897258,-187500.02235174447,-187500.02235174447,-187500.02235174447,-187500.02235174447
$SILENCE,24523.19407739569,-14315.30884686814,-19962.94647013503,-8204.00663662036,-187500.02235174447,-187500.02235174447,-187500.02235174447,-187500.02235174447
$SILENCE,24432.445994907142,-14411.42134802596,-20275.848540764873,-8325.845995646237,-187500.02235174447,-187500.02235174447,-187500.02235174447,-187500.02235174447
$SILENCE,24403.88046549326,-14450.827473500667,-20504.909217942863,-8347.616594745707,-187500.02235174447,-187500.02235174447,-187500.02235174447,-187500.02235174447
$SILENCE,24477.328297773398,-14379.480705199327,-20262.571604558423,-8246.184378407524,-187500.02235174447,-187500.02235174447,-187500.02235174447,-187500.02235174447
$SILENCE,24541.27663866003,-14318.795719003168,-19959.750170677922,-8183.3312729992,-187500.02235174447,-187500.02235174447,-187500.02235174447,-187500.02235174447
$SILENCE,24455.624753907294,-14394.523429217748,-20193.080031046873,-8290.060852773291,-187500.02235174447,-187500.02235174447,-187500.02235174447,-187500.02235174447
$SILENCE,24386.177883884655,-14455.543691580737,-20506.518543543643,-8345.783751700372,-187500.02235174447,-187500.02235174447,-187500.02235174447,-187500.02235174447
$SILENCE,24460.56448943192,-14383.03463256772,-20316.416956951256,-8249.827712753739,-187500.02235174447,-187500.02235174447,-187500.02235174447,-187500.02235174447
$SILENCE,24531.888905988802,-14310.235000876786,-19983.510075033915,-8177.653929907553,-187500.02235174447,-187500.02235174447,-187500.02235174447,-187500.02235174447
$SILENCE,24470.77923664799,-14373.825713852135,-20118.291094099415,-8261.674137315053,-187500.02235174447,-187500.02235174447,-187500.02235174447,-187500.02235174447
$SILENCE,24396.705555523105,-14454.962546224899,-20478.824732163517,-8346.811931945316,-187500.02235174447,-187500.02235174447,-187500.02235174447,-187500.02235174447
$SILENCE,24438.682131610174,-14405.967522378865,-20382.488713561146,-8286.462221915986,-187500.02235174447,-187500.02235174447,-187500.02235174447,-187500.02235174447
$SILENCE,24515.147449391778,-14327.289381896184,-20037.64600010467,-8198.664569695542,-187500.02235174447,-187500.02235174447,-187500.02235174447,-187500.02235174447
$SILENCE,24496.2825770715,-14362.538082902203,-20054.29804972387,-8247.01139295237,-187500.02235174447,-187500.02235174447,-187500.02235174447,-187500.02235174447
$SILENCE,24404.260445149,-14451.945060723432,-20445.56533641402,-8350.812894202816,-187500.02235174447,-187500.02235174447,-187500.02235174447,-187500.02235174447
$SILENCE,24426.276913437476,-14424.385359810038,-20435.28353396458,-8304.365969224687,-187500.02235174447,-187500.02235174447,-187500.02235174447,-187500.02235174447
$SILENCE,24505.31268183144,-14341.259222180752,-20098.353338045283,-8204.14074708709,-187500.02235174447,-187500.02235174447,-187500.02235174447,-187500.02235174447
$SILENCE,24514.454545313663,-14339.068751224131,-20003.380775854683,-8207.515860499843,-187500.02235174447,-187500.02235174447,-187500.02235174447,-187500.02235174447
$SILENCE,24425.516954125997,-14433.549575036715,-20380.812332726997,-8316.748835652928,-187500.02235174447,-187500.02235174447,-187500.02235174447,-187500.02235174447
$SILENCE,24430.07670999488,-14427.469900544871,-20453.321391740013,-8292.877172574661,-187500.02235174447,-187500.02235174447,-187500.02235174447,-187500.02235174447
$SILENCE,24502.675175985718,-14344.991963504788,-20147.482472358046,-8216.255392581868,-187500.02235174447,-187500.02235174447,-187500.02235174447,-187500.02235174447
$SILENCE,24518.09787965988,-14333.302001154661,-19979.03972614285,-8214.221383836435,-187500.02235174447,-187500.02235174447,-187500.02235174447,-187500.02235174447
$SILENCE,24406.428564361166,-14430.152109879507,-20340.467433985166,-8322.180309555568,-187500.02235174447,-187500.02235174447,-187500.02235174447,-187500.02235174447
$SILENCE,24383.49567455002,-14435.740045993334,-20503.791630720098,-8312.434948973054,-187500.02235174447,-187500.02235174447,-187500.02235174447,-187500.02235174447
$SILENCE,24480.546948974963,-14358.447713666883,-20213.733042923577,-8211.561526246252,-187500.02235174447,-187500.02235174447,-187500.02235174447,-187500.02235174447
$SILENCE,24546.015208484558,-14320.78502425969,-19953.58108920826,-8191.154383558558,-187500.02235174447,-187500.02235174447,-187500.02235174447,-187500.02235174447
$SILENCE,24458.93281208668,-14415.467013772372,-20251.038104419484,-8321.666219433097,-187500.02235174447,-187500.02235174447,-187500.02235174447,-187500.02235174447
$SILENCE,24413.916398753692,-14456.236595658851,-20503.232837108713,-8351.148170369646,-187500.02235174447,-187500.02235174447,-187500.02235174447,-187500.02235174447
$SILENCE,24483.653841454252,-14378.810152865668,-20273.322793641426,-8253.91808198906,-187500.02235174447,-187500.02235174447,-187500.02235174447,-187500.02235174447
$SILENCE,24539.779071781526,-14315.822936990613,-19972.62477548418,-8193.389558004088,-187500.02235174447,-187500.02235174447,-187500.02235174447,-187500.02235174447
$SILENCE,24465.303059256443,-14395.216333295863,-20181.6135861413,-8287.959788794493,-187500.02235174447,-187500.02235174447,-187500.02235174447,-187500.02235174447
$SILENCE,24400.997090458524,-14455.141360180542,-20501.310587085558,-8344.062667377313,-187500.02235174447,-187500.02235174447,-187500.02235174447,-187500.02235174447
$SILENCE,24455.110663784824,-14398.256170541785,-20342.45673924169,-8265.809210039284,-187500.02235174447,-187500.02235174447,-187500.02235174447,-187500.02235174447
$SILENCE,24522.300007617476,-14332.609097076547,-20009.706319535533,-8178.23507526339,-187500.02235174447,-187500.02235174447,-187500.02235174447,-187500.02235174447
$SILENCE,24479.18349256319,-14372.171684762441,-20104.88004742623,-8238.540081803809,-187500.02235174447,-187500.02235174447,-187500.02235174447,-187500.02235174447
$SILENCE,24400.527703824962,-14450.559252567204,-20476.746019929175,-8339.011173130415,-187500.02235174447,-187500.02235174447,-187500.02235174447,-187500.02235174447
$SILENCE,24447.64518113675,-14406.593371223615,-20394.60335905592,-8290.530239406853,-187500.02235174447,-187500.02235174447,-187500.02235174447,-187500.02235174447
$SILENCE,24544.741159050605,-14325.143614428474,-20033.980314013996,-8189.14272655758,-187500.02235174447,-187500.02235174447,-187500.02235174447,-187500.02235174447
$SILENCE,24514.633359269304,-14359.297079956184,-20034.852032047755,-8236.01433468036,-187500.02235174447,-187500.02235174447,-187500.02235174447,-187500.02235174447
$SILENCE,24403.83576200435,-14455.90131949202,-20439.03862703307,-8349.114161624213,-187500.02235174447,-187500.02235174447,-187500.02235174447,-187500.02235174447
$SILENCE,24422.54417211344,-14425.502947032805,-20452.874356850905,-8304.589486669242,-187500.02235174447,-187500.02235174447,-187500.02235174447,-187500.02235174447
$SILENCE,24515.482725558606,-14337.370018645528,-20113.060785896872,-8186.214648033935,-187500.02235174447,-187500.02235174447,-187500.02235174447,-187500.02235174447
$SILENCE,24517.762603493047,-14340.208690191352,-20004.54306656636,-8190.170906802525,-187500.02235174447,-187500.02235174447,-187500.02235174447,-187500.02235174447
$SILENCE,24423.79586980294,-14442.736142007845,-20376.520797791578,-8313.999571084925,-187500.02235174447,-187500.02235174447,-187500.02235174447,-187500.02235174447
$SILENCE,24427.349797171333,-14435.114197148587,-20473.214444305235,-8321.085074077258,-187500.02235174447,-187500.02235174447,-187500.02235174447,-187500.02235174447
$SILENCE,24514.342786591387,-14355.60904212106,-20166.347344678325,-8223.67617174103,-187500.02235174447,-187500.02235174447,-187500.02235174447,-187500.02235174447
$SILENCE,24535.37577812383,-14339.918117513433,-19978.52563602038,-8215.473081525932,-187500.02235174447,-187500.02235174447,-187500.02235174447,-187500.02235174447
$SILENCE,24439.55384964393,-14435.829452971157,-20315.5452389175,-8332.998553871937,-187500.02235174447,-187500.02235174447,-187500.02235174447,-187500.02235174447
$SILENCE,24415.458669121108,-14448.368781610583,-20501.690566741298,-8331.299821293333,-187500.02235174447,-187500.02235174447,-187500.02235174447,-187500.02235174447
$SILENCE,24493.779181692506,-14361.420495679438,-20231.703845465643,-8216.031875137314,-187500.02235174447,-187500.02235174447,-187500.02235174447,-187500.02235174447
$SILENCE,24540.807252026472,-14315.085329423588,-19962.00769686791,-8167.483886180388,-187500.02235174447,-187500.02235174447,-187500.02235174447,-187500.02235174447
$SILENCE,24455.289477740465,-14413.254191071295,-20232.553211754945,-8274.861666543682,-187500.02235174447,-187500.02235174447,-187500.02235174447,-187500.02235174447
$SILENCE,24399.946558469124,-14455.275470647273,-20510.050119167583,-8326.404789257622,-187500.02235174447,-187500.02235174447,-187500.02235174447,-187500.02235174447
$SILENCE,24474.534329716484,-14382.833466867623,-20303.11766900035,-8253.672212800051,-187500.02235174447,-187500.02235174447,-187500.02235174447,-187500.02235174447
$SILENCE,24548.809176541472,-14321.254410893252,-19982.683060489067,-8186.639331178586,-187500.02235174447,-187500.02235174447,-187500.02235174447,-187500.02235174447
$SILENCE,24473.50614947154,-14390.924798360444,-20158.568937607877,-8272.693547331519,-187500.02235174447,-187500.02235174447,-187500.02235174447,-187500.02235174447
$SILENCE,24397.376107856766,-14462.472732361883,-20499.991834162694,-8343.213301088012,-187500.02235174447,-187500.02235174447,-187500.02235174447,-187500.02235174447
$SILENCE,24450.550907915942,-14414.774109694257,-20370.239957599635,-8273.744079320917,-187500.02235174447,-187500.02235174447,-187500.02235174447,-187500.02235174447
$SILENCE,24533.56528682295,-14328.474024352316,-20025.30783716534,-8179.754993886351,-187500.02235174447,-187500.02235174447,-187500.02235174447,-187500.02235174447
$SILENCE,24487.140713589277,-14372.931644073922,-20106.422317793647,-8251.079410443237,-187500.02235174447,-187500.02235174447,-187500.02235174447,-187500.02235174447
$SILENCE,24403.902817237715,-14458.114142193097,-20476.701316440263,-8351.528150025386,-187500.02235174447,-187500.02235174447,-187500.02235174447,-187500.02235174447
$SILENCE,24457.07761729689,-14417.523374262259,-20401.934731237263,-8273.29704443181,-187500.02235174447,-187500.02235174447,-187500.02235174447,-187500.02235174447
$SILENCE,24540.382568881818,-14334.710161055347,-20058.522529425925,-8172.4012699605555,-187500.02235174447,-187500.02235174447,-187500.02235174447,-187500.02235174447
$SILENCE,24516.37679533682,-14361.934585801911,-20035.410825659135,-8218.781139705317,-187500.02235174447,-187500.02235174447,-187500.02235174447,-187500.02235174447
$SILENCE,24410.183657429658,-14460.684592805457,-20432.511917652122,-8343.235652832467,-187500.02235174447,-187500.02235174447,-187500.02235174447,-187500.02235174447
$SILENCE,24432.937733285158,-14427.04521740022,-20459.311659254035,-8306.265867503389,-187500.02235174447,-187500.02235174447,-187500.02235174447,-187500.02235174447
$SILENCE,24527.306798375466,-14345.170777460431,-20115.966512676063,-8195.177697560513,-187500.02235174447,-187500.02235174447,-187500.02235174447,-187500.02235174447
$SILENCE,24534.638170556806,-14346.377771661017,-19989.52269429239,-8191.3331975142,-187500.02235174447,-187500.02235174447,-187500.02235174447,-187500.02235174447
$SILENCE,24423.17002095819,-14451.989764212343,-20373.32449833447,-8316.324152508278,-187500.02235174447,-187500.02235174447,-187500.02235174447,-187500.02235174447
$SILENCE,24413.73758479805,-14455.566043325192,-20502.11524988595,-8312.256135017411,-187500.02235174447,-187500.02235174447,-187500.02235174447,-187500.02235174447
$SILENCE,24502.406955052254,-14366.539045159703,-20197.57273168239,-8208.298171555778,-187500.02235174447,-187500.02235174447,-187500.02235174447,-187500.02235174447
$SILENCE,24551.066702731456,-14331.580916831605,-19968.08737135975,-8171.28368273779,-187500.02235174447,-187500.02235174447,-187500.02235174447,-187500.02235174447
$SILENCE,24454.015428306513,-14426.799348211212,-20290.935968272206,-8290.530239406853,-187500.02235174447,-187500.02235174447,-187500.02235174447,-187500.02235174447
$SILENCE,24422.521820368984,-14450.33573512265,-20503.56811327554,-8324.951925868027,-187500.02235174447,-187500.02235174447,-187500.02235174447,-187500.02235174447
$SILENCE,24500.440001540184,-14379.413649965962,-20245.33840958338,-8220.81514845075,-187500.02235174447,-187500.02235174447,-187500.02235174447,-187500.02235174447
$SILENCE,24556.587583611916,-14331.111530198043,-19969.629641727166,-8179.3303107417005,-187500.02235174447,-187500.02235174447,-187500.02235174447,-187500.02235174447
$SILENCE,24467.426474979697,-14418.99858939631,-20229.401615786748,-8289.54676265082,-187500.02235174447,-187500.02235174447,-187500.02235174447,-187500.02235174447
$SILENCE,24410.183657429658,-14466.697212063935,-20514.92279945884,-8333.93732713906,-187500.02235174447,-187500.02235174447,-187500.02235174447,-187500.02235174447
$SILENCE,24486.40310602225,-14392.265903027763,-20312.863029582863,-8239.411799837566,-187500.02235174447,-187500.02235174447,-187500.02235174447,-187500.02235174447
$SILENCE,24560.946173780703,-14332.631448821003,-19985.05234540133,-8165.539284412776,-187500.02235174447,-187500.02235174447,-187500.02235174447,-187500.02235174447
$SILENCE,24504.0833358864,-14400.312531031674,-20131.053940183396,-8245.804398751783,-187500.02235174447,-187500.02235174447,-187500.02235174447,-187500.02235174447
$SILENCE,24423.706462825117,-14463.947947495932,-20480.56816823103,-8332.59622247174,-187500.02235174447,-187500.02235174447,-187500.02235174447,-187500.02235174447
$SILENCE,24463.961954589126,-14413.433005026938,-20371.737524478143,-8275.107535732692,-187500.02235174447,-187500.02235174447,-187500.02235174447,-187500.02235174447
$SILENCE,24541.90248750478,-14340.298097169174,-20031.275752934904,-8184.113584055136,-187500.02235174447,-187500.02235174447,-187500.02235174447,-187500.02235174447
$SILENCE,24506.832600454403,-14377.536103431716,-20078.34852675778,-8234.829692224228,-187500.02235174447,-187500.02235174447,-187500.02235174447,-187500.02235174447
$SILENCE,24419.0125964895,-14461.757476539313,-20452.56143242853,-8323.946097367538,-187500.02235174447,-187500.02235174447,-187500.02235174447,-187500.02235174447
$SILENCE,24456.78704461897,-14433.862499459088,-20412.417699386802,-8258.20961692448,-187500.02235174447,-187500.02235174447,-187500.02235174447,-187500.02235174447
$SILENCE,24553.368932410354,-14358.090085755597,-20065.54097718489,-8164.578159401198,-187500.02235174447,-187500.02235174447,-187500.02235174447,-187500.02235174447
$SILENCE,24547.937458507713,-14364.594443392092,-20013.32730213729,-8202.91140114205,-187500.02235174447,-187500.02235174447,-187500.02235174447,-187500.02235174447
$SILENCE,24439.687960110663,-14454.180235168962,-20401.08536494796,-8325.711885179506,-187500.02235174447,-187500.02235174447,-187500.02235174447,-187500.02235174447
$SILENCE,24451.914364327713,-14438.42225532797,-20452.494377195166,-8300.297951733823,-187500.02235174447,-187500.02235174447,-187500.02235174447,-187500.02235174447
$SILENCE,24543.62357182784,-14360.638184623504,-20129.243448882517,-8199.67039819603,-187500.02235174447,-187500.02235174447,-187500.02235174447,-187500.02235174447
$SILENCE,24556.185252211722,-14345.707219327358,-19982.95128142253,-8197.412872006043,-187500.02235174447,-187500.02235174447,-187500.02235174447,-187500.02235174447
$SILENCE,24443.331294456875,-14453.755552024311,-20351.06216085698,-8311.987914083948,-187500.02235174447,-187500.02235174447,-187500.02235174447,-187500.02235174447
$SILENCE,24436.69282635365,-14460.326964894173,-20484.30090955507,-8302.197850012524,-187500.02235174447,-187500.02235174447,-187500.02235174447,-187500.02235174447
$SILENCE,24534.861688001358,-14369.355364961073,-20184.42990594267,-8206.19710757698,-187500.02235174447,-187500.02235174447,-187500.02235174447,-187500.02235174447
$SILENCE,24575.72067686566,-14339.627544835514,-19954.072827586275,-8181.654892165053,-187500.02235174447,-187500.02235174447,-187500.02235174447,-187500.02235174447
$SILENCE,24466.532405201484,-14437.975220438866,-20270.282956395502,-8298.576867410764,-187500.02235174447,-187500.02235174447,-187500.02235174447,-187500.02235174447
$SILENCE,24432.066015251403,-14467.01013648631,-20492.124020114425,-8318.335809509255,-187500.02235174447,-187500.02235174447,-187500.02235174447,-187500.02235174447
$SILENCE,24514.253379613565,-14392.779993150234,-20245.025485161004,-8210.175718090024,-187500.02235174447,-187500.02235174447,-187500.02235174447,-187500.02235174447
$SILENCE,24575.050124532,-14336.677114567414,-19953.603440952713,-8155.503351152343,-187500.02235174447,-187500.02235174447,-187500.02235174447,-187500.02235174447
$SILENCE,24487.140713589277,-14419.356217307595,-20186.62037689929,-8265.20571293899,-187500.02235174447,-187500.02235174447,-187500.02235174447,-187500.02235174447
$SILENCE,24426.992169260047,-14462.763305039802,-20482.892749654384,-8321.845033388738,-187500.02235174447,-187500.02235174447,-187500.02235174447,-187500.02235174447
$SILENCE,24490.716992702128,-14402.65946419948,-20310.44904118169,-8242.20576789448,-187500.02235174447,-187500.02235174447,-187500.02235174447,-187500.02235174447
$SILENCE,24562.555499381484,-14333.302001154661,-19978.19035985355,-8164.108772767637,-187500.02235174447,-187500.02235174447,-187500.02235174447,-187500.02235174447
$SILENCE,24491.94633864717,-14394.65753968448,-20117.329969087838,-8247.704297030485,-187500.02235174447,-187500.02235174447,-187500.02235174447,-187500.02235174447
$SILENCE,24412.038852219448,-14463.970299240387,-20478.04242110758,-8325.60012645723,-187500.02235174447,-187500.02235174447,-187500.02235174447,-187500.02235174447
$SILENCE,24466.13007380129,-14413.164784093475,-20373.682126245752,-8250.073581942748,-187500.02235174447,-187500.02235174447,-187500.02235174447,-187500.02235174447
$SILENCE,24550.37379865334,-14341.885071025501,-20029.86759303422,-8177.944502585471,-187500.02235174447,-187500.02235174447,-187500.02235174447,-187500.02235174447
$SILENCE,24521.09301341689,-14377.51375168726,-20054.00747704595,-8231.074599155736,-187500.02235174447,-187500.02235174447,-187500.02235174447,-187500.02235174447
$SILENCE,24427.0145210045,-14468.999441742832,-20433.875374063897,-8327.611783458207,-187500.02235174447,-187500.02235174447,-187500.02235174447,-187500.02235174447
$SILENCE,24458.865756853316,-14431.828490713657,-20410.450745874732,-8266.63622458413,-187500.02235174447,-187500.02235174447,-187500.02235174447,-187500.02235174447
$SILENCE,24554.933554522224,-14353.50797814226,-20064.758666128953,-8160.71130761043,-187500.02235174447,-187500.02235174447,-187500.02235174447,-187500.02235174447
$SILENCE,24549.166804452754,-14353.575033375626,-19988.606272769724,-8194.90947662705,-187500.02235174447,-187500.02235174447,-187500.02235174447,-187500.02235174447
$SILENCE,24428.422680905187,-14450.805121756212,-20380.45470481571,-8308.12106229318,-187500.02235174447,-187500.02235174447,-187500.02235174447,-187500.02235174447
$SILENCE,24436.424605420187,-14443.518453063782,-20453.880185351394,-8277.029785755847,-187500.02235174447,-187500.02235174447,-187500.02235174447,-187500.02235174447
$SILENCE,24530.637208299308,-14360.146446245486,-20138.631181553745,-8180.425546220011,-187500.02235174447,-187500.02235174447,-187500.02235174447,-187500.02235174447
$SILENCE,24541.455452615675,-14347.249489694774,-19976.357516808213,-8187.533400956799,-187500.02235174447,-187500.02235174447,-187500.02235174447,-187500.02235174447
$SILENCE,24429.27204719449,-14447.29589787673,-20332.77843389254,-8320.570983954785,-187500.02235174447,-187500.02235174447,-187500.02235174447,-187500.02235174447
$SILENCE,24417.067994721892,-14452.459150845903,-20488.748906701676,-8314.3124955073,-187500.02235174447,-187500.02235174447,-187500.02235174447,-187500.02235174447
$SILENCE,24512.688757501695,-14377.647862153992,-20200.098478805838,-8206.711197699451,-187500.02235174447,-187500.02235174447,-187500.02235174447,-187500.02235174447
$SILENCE,24562.91312729277,-14338.97934424631,-19943.52280420337,-8156.5538831417425,-187500.02235174447,-187500.02235174447,-187500.02235174447,-187500.02235174447
$SILENCE,24465.50422495654,-14427.76047322279,-20243.57262177141,-8256.309718645778,-187500.02235174447,-187500.02235174447,-187500.02235174447,-187500.02235174447
$SILENCE,24416.73271855506,-14457.376534626072,-20491.364060802945,-8291.960751051993,-187500.02235174447,-187500.02235174447,-187500.02235174447,-187500.02235174447
$SILENCE,24494.293271814975,-14387.594388436602,-20263.331563869902,-8215.741302459395,-187500.02235174447,-187500.02235174447,-187500.02235174447,-187500.02235174447
$SILENCE,24561.19204296971,-14336.654762822958,-19963.169987579586,-8175.798735117762,-187500.02235174447,-187500.02235174447,-187500.02235174447,-187500.02235174447
$SILENCE,24472.925004115703,-14418.104519618097,-20184.89929257623,-8277.901503789604,-187500.02235174447,-187500.02235174447,-187500.02235174447,-187500.02235174447
$SILENCE,24413.849343520327,-14470.117028965597,-20493.73334571521,-8319.11812056519,-187500.02235174447,-187500.02235174447,-187500.02235174447,-187500.02235174447
$SILENCE,24492.32631830291,-14402.033615354732,-20315.478183684136,-8214.869584425638,-187500.02235174447,-187500.02235174447,-187500.02235174447,-187500.02235174447
$SILENCE,24580.52630192355,-14328.541079585682,-19975.10581911872,-8146.607356859131,-187500.02235174447,-187500.02235174447,-187500.02235174447,-187500.02235174447
$SILENCE,24519.640150027295,-14392.71293791687,-20096.20757057757,-8243.502169072886,-187500.02235174447,-187500.02235174447,-187500.02235174447,-187500.02235174447
$SILENCE,24430.3672826728,-14477.873084291588,-20470.979269859705,-8333.55734748332,-187500.02235174447,-187500.02235174447,-187500.02235174447,-187500.02235174447
$SILENCE,24477.08242858439,-14423.826566198655,-20388.791905497543,-8271.397146153111,-187500.02235174447,-187500.02235174447,-187500.02235174447,-187500.02235174447
$SILENCE,24563.91895579326,-14336.45359712286,-20036.237840203983,-8176.558694429243,-187500.02235174447,-187500.02235174447,-187500.02235174447,-187500.02235174447
$SILENCE,24536.649827557783,-14367.634280638014,-20034.002665758453,-8216.098930370681,-187500.02235174447,-187500.02235174447,-187500.02235174447,-187500.02235174447
$SILENCE,24428.534439627463,-14466.406639386016,-20436.021141531604,-8320.191004299046,-187500.02235174447,-187500.02235174447,-187500.02235174447,-187500.02235174447
$SILENCE,24462.35262898834,-14441.171519895974,-20423.75003382564,-8263.842256527216,-187500.02235174447,-187500.02235174447,-187500.02235174447,-187500.02235174447
$SILENCE,24556.05114174499,-14352.055114752666,-20073.028811577416,-8169.897874581561,-187500.02235174447,-187500.02235174447,-187500.02235174447,-187500.02235174447
$SILENCE,24557.504005134586,-14349.641126351491,-19971.037801627852,-8181.632540420597,-187500.02235174447,-187500.02235174447,-187500.02235174447,-187500.02235174447
$SILENCE,24441.923134556193,-14455.521339836281,-20367.557748265,-8292.676006874563,-187500.02235174447,-187500.02235174447,-187500.02235174447,-187500.02235174447
$SILENCE,24437.69865485414,-14448.61465079959,-20466.844197135473,-8282.237742213934,-187500.02235174447,-187500.02235174447,-187500.02235174447,-187500.02235174447
$SILENCE,24533.1406036783,-14357.598347377581,-20147.773045035967,-8179.978511330904,-187500.02235174447,-187500.02235174447,-187500.02235174447,-187500.02235174447
$SILENCE,24565.170653482754,-14342.913251270444,-19958.207900310506,-8171.842476349173,-187500.02235174447,-187500.02235174447,-187500.02235174447,-187500.02235174447
$SILENCE,24458.329314986386,-14446.625345543069,-20311.656035382275,-8296.45345168751,-187500.02235174447,-187500.02235174447,-187500.02235174447,-187500.02235174447
$SILENCE,24434.65881760822,-14461.399848628027,-20487.854836923463,-8297.21341099899,-187500.02235174447,-187500.02235174447,-187500.02235174447,-187500.02235174447
$SILENCE,24516.600312781375,-14385.18040003543,-20213.75539466803,-8199.536287729297,-187500.02235174447,-187500.02235174447,-187500.02235174447,-187500.02235174447
$SILENCE,24573.485502420128,-14333.994905232777,-19943.52280420337,-8152.798790073251,-187500.02235174447,-187500.02235174447,-187500.02235174447,-187500.02235174447
$SILENCE,24473.908480871738,-14426.017037155276,-20235.883621678786,-8271.575960108752,-187500.02235174447,-187500.02235174447,-187500.02235174447,-187500.02235174447
$SILENCE,24415.458669121108,-14465.356107396616,-20512.665273268853,-8323.811986900806,-187500.02235174447,-187500.02235174447,-187500.02235174447,-187500.02235174447
$SILENCE,24505.80442020946,-14392.08708907212,-20280.050668722473,-8229.398218321589,-187500.02235174447,-187500.02235174447,-187500.02235174447,-187500.02235174447
$SILENCE,24578.067610033468,-14335.090140711087,-19960.554833478313,-8156.03979301927,-187500.02235174447,-187500.02235174447,-187500.02235174447,-187500.02235174447
$SILENCE,24497.780143950004,-14409.812022425178,-20160.245318442026,-8256.957919234983,-187500.02235174447,-187500.02235174447,-187500.02235174447,-187500.02235174447
$SILENCE,24421.27012267949,-14476.844904046644,-20496.795534705583,-8321.532108966365,-187500.02235174447,-187500.02235174447,-187500.02235174447,-187500.02235174447
$SILENCE,24491.164027591232,-14406.749833434802,-20336.26530602757,-8233.265070112357,-187500.02235174447,-187500.02235174447,-187500.02235174447,-187500.02235174447
$SILENCE,24575.094828020912,-14329.859832508546,-19987.71220299151,-8149.535435382776,-187500.02235174447,-187500.02235174447,-187500.02235174447,-187500.02235174447
$SILENCE,24510.744155734083,-14385.94035934691,-20088.20564606257,-8228.705314243474,-187500.02235174447,-187500.02235174447,-187500.02235174447,-187500.02235174447
$SILENCE,24404.01457595999,-14471.145209210541,-20484.926758399815,-8333.244423060945,-187500.02235174447,-187500.02235174447,-187500.02235174447,-187500.02235174447
$SILENCE,24450.327390471386,-14425.301781332706,-20413.98232149867,-8272.268864186868,-187500.02235174447,-187500.02235174447,-187500.02235174447,-187500.02235174447
$SILENCE,24561.68378134773,-14337.682943067903,-20039.836471061288,-8159.571368643209,-187500.02235174447,-187500.02235174447,-187500.02235174447,-187500.02235174447
$SILENCE,24543.645923572294,-14368.79657134969,-20015.227200415993,-8187.622807934619,-187500.02235174447,-187500.02235174447,-187500.02235174447,-187500.02235174447
$SILENCE,24422.54417211344,-14475.906130779522,-20432.601324629944,-8304.231858757956,-187500.02235174447,-187500.02235174447,-187500.02235174447,-187500.02235174447
$SILENCE,24442.548983400942,-14448.279374632762,-20453.723723140207,-8273.855838043195,-187500.02235174447,-187500.02235174447,-187500.02235174447,-187500.02235174447
$SILENCE,24545.1434904508,-14354.536158387204,-20099.090945612304,-8177.072784551715,-187500.02235174447,-187500.02235174447,-187500.02235174447,-187500.02235174447
$SILENCE,24554.41946439975,-14345.863681538545,-19973.317679562293,-8176.849267107162,-187500.02235174447,-187500.02235174447,-187500.02235174447,-187500.02235174447
$SILENCE,24434.480003652574,-14452.794427012734,-20367.110713375892,-8291.469012673977,-187500.02235174447,-187500.02235174447,-187500.02235174447,-187500.02235174447
$SILENCE,24433.16125072971,-14451.363915367594,-20481.730458942708,-8289.055024272802,-187500.02235174447,-187500.02235174447,-187500.02235174447,-187500.02235174447
$SILENCE,24519.818963982936,-14364.169760247441,-20173.85753081531,-8197.05524409476,-187500.02235174447,-187500.02235174447,-187500.02235174447,-187500.02235174447
$SILENCE,24546.708112562672,-14333.816091277135,-19964.33227829126,-8178.279778752301,-187500.02235174447,-187500.02235174447,-187500.02235174447,-187500.02235174447
$SILENCE,24447.198146247643,-14443.294935619228,-20304.01173877856,-8290.68670161804,-187500.02235174447,-187500.02235174447,-187500.02235174447,-187500.02235174447
$SILENCE,24418.07382322238,-14470.049973732232,-20504.886866198405,-8300.342655222734,-187500.02235174447,-187500.02235174447,-187500.02235174447,-187500.02235174447
$SILENCE,24501.781106207505,-14381.693527900403,-20234.251944333548,-8209.236944822902,-187500.02235174447,-187500.02235174447,-187500.02235174447,-187500.02235174447
$SILENCE,24571.809121585982,-14325.143614428474,-19941.913478602586,-8151.837665061673,-187500.02235174447,-187500.02235174447,-187500.02235174447,-187500.02235174447
$SILENCE,24478.244719296064,-14418.305685318195,-20215.342368524358,-8256.265015156867,-187500.02235174447,-187500.02235174447,-187500.02235174447,-187500.02235174447
$SILENCE,24404.21574166009,-14468.708869064913,-20521.136584417414,-8309.775091382873,-187500.02235174447,-187500.02235174447,-187500.02235174447,-187500.02235174447
$SILENCE,24482.849178653858,-14395.70807167388,-20307.140983002304,-8234.807340479772,-187500.02235174447,-187500.02235174447,-187500.02235174447,-187500.02235174447
$SILENCE,24575.60891814338,-14329.345742386073,-19963.32644979077,-8168.713232125429,-187500.02235174447,-187500.02235174447,-187500.02235174447,-187500.02235174447
$SILENCE,24498.540103261486,-14405.408728767483,-20142.40862636669,-8260.288329158822,-187500.02235174447,-187500.02235174447,-187500.02235174447,-187500.02235174447
$SILENCE,24410.049546962924,-14481.58347387117,-20501.265883596647,-8327.343562524744,-187500.02235174447,-187500.02235174447,-187500.02235174447,-187500.02235174447
$SILENCE,24473.640259938275,-14418.350388807106,-20357.991201638128,-8246.005564451882,-187500.02235174447,-187500.02235174447,-187500.02235174447,-187500.02235174447
$SILENCE,24561.393208669808,-14335.067788966631,-19997.9716536965,-8153.223473217902,-187500.02235174447,-187500.02235174447,-187500.02235174447,-187500.02235174447
$SILENCE,24510.833562711905,-14382.252321511785,-20069.20666327556,-8212.43324428001,-187500.02235174447,-187500.02235174447,-187500.02235174447,-187500.02235174447
$SILENCE,24418.58791334485,-14472.128685966574,-20462.329144755502,-8301.907277334605,-187500.02235174447,-187500.02235174447,-187500.02235174447,-187500.02235174447
$SILENCE,24454.41775970671,-14429.52626103476,-20415.770461055097,-8254.320413389256,-187500.02235174447,-187500.02235174447,-187500.02235174447,-187500.02235174447
$SILENCE,24542.505984605075,-14334.419588377428,-20061.49531143848,-8180.71611889793,-187500.02235174447,-187500.02235174447,-187500.02235174447,-187500.02235174447
$SILENCE,24526.546839063983,-14360.772295090235,-20017.708244050533,-8219.317581572244,-187500.02235174447,-187500.02235174447,-187500.02235174447,-187500.02235174447
$SILENCE,24415.391613887743,-14472.374555155582,-20429.337969939468,-8325.689533435052,-187500.02235174447,-187500.02235174447,-187500.02235174447,-187500.02235174447
$SILENCE,24440.067939766403,-14445.552461809215,-20454.796606874064,-8262.747021048906,-187500.02235174447,-187500.02235174447,-187500.02235174447,-187500.02235174447
$SILENCE,24542.796557282993,-14353.440922908894,-20105.707061971076,-8161.560673899731,-187500.02235174447,-187500.02235174447,-187500.02235174447,-187500.02235174447
$SILENCE,24550.82083354245,-14349.909347284956,-19968.243833570938,-8197.05524409476,-187500.02235174447,-187500.02235174447,-187500.02235174447,-187500.02235174447
$SILENCE,24426.746300071038,-14466.607805086114,-20368.764742465584,-8327.745893924939,-187500.02235174447,-187500.02235174447,-187500.02235174447,-187500.02235174447
$SILENCE,24424.846401792336,-14459.879930005067,-20495.34267131599,-8303.784823868851,-187500.02235174447,-187500.02235174447,-187500.02235174447,-187500.02235174447
$SILENCE,24533.27471414503,-14357.754809588769,-20167.442580156636,-8184.71708115543,-187500.02235174447,-187500.02235174447,-187500.02235174447,-187500.02235174447
não,24570.758589596582,-14332.050303465165,-19938.38190297865,-8161.1359907550805,-187500.02235174447,-187500.02235174447,-187500.02235174447,-187500.02235174447
não,24447.019332292002,-14444.568985053182,-20287.247930437083,-8290.619646384674,-187500.02235174447,-187500.02235174447,-187500.02235174447,-187500.02235174447
não,24411.79298303044,-14471.502837121825,-20513.58169479152,-8319.07341707628,-187500.02235174447,-187500.02235174447,-187500.02235174447,-187500.02235174447
não,24508.017242910533,-14395.238685040318,-20249.406427074246,-8228.258279354368,-187500.02235174447,-187500.02235174447,-187500.02235174447,-187500.02235174447
não,24567.696400606204,-14343.069713481631,-19952.7093711745,-8173.161229272036,-187500.02235174447,-187500.02235174447,-187500.02235174447,-187500.02235174447
não,24472.79089364897,-14425.435891799438,-20209.687377177164,-8270.503076374898,-187500.02235174447,-187500.02235174447,-187500.02235174447,-187500.02235174447
não,24417.35856739981,-14472.173389455485,-20510.675968012332,-8299.158012766602,-187500.02235174447,-187500.02235174447,-187500.02235174447,-187500.02235174447
não,24490.94051014668,-14405.788708423222,-20308.817363836453,-8225.464311297454,-187500.02235174447,-187500.02235174447,-187500.02235174447,-187500.02235174447
não,24559.58271736893,-14334.687809310892,-19975.217577840995,-8166.4110024465335,-187500.02235174447,-187500.02235174447,-187500.02235174447,-187500.02235174447
não,24491.409896780242,-14399.7984409092,-20133.713797773577,-8249.671250542551,-187500.02235174447,-187500.02235174447,-187500.02235174447,-187500.02235174447
não,24404.483962593553,-14469.714697565401,-20504.171610375837,-8327.723542180483,-187500.02235174447,-187500.02235174447,-187500.02235174447,-187500.02235174447
não,24475.89778612826,-14417.121042862063,-20373.32449833447,-8260.333032647733,-187500.02235174447,-187500.02235174447,-187500.02235174447,-187500.02235174447
não,24567.875214561845,-14335.69363781138,-20009.25928464643,-8169.942578070471,-187500.02235174447,-187500.02235174447,-187500.02235174447,-187500.02235174447
não,24523.641112284793,-14379.078373799131,-20057.248479991973,-8223.072674640736,-187500.02235174447,-187500.02235174447,-187500.02235174447,-187500.02235174447
não,24423.97468375858,-14478.923616280988,-20455.310696996534,-8301.907277334605,-187500.02235174447,-187500.02235174447,-187500.02235174447,-187500.02235174447
não,24456.563527174418,-14438.355200094606,-20421.13487972437,-8254.789800022818,-187500.02235174447,-187500.02235174447,-187500.02235174447,-187500.02235174447
não,24547.2445544296,-14344.723742571325,-20066.21152951855,-8174.725851383907,-187500.02235174447,-187500.02235174447,-187500.02235174447,-187500.02235174447
não,24541.90248750478,-14362.292213713195,-20002.28554037637,-8205.14657558758,-187500.02235174447,-187500.02235174447,-187500.02235174447,-187500.02235174447
não,24426.902762282225,-14470.452305132427,-20415.926923266285,-8325.913050879604,-187500.02235174447,-187500.02235174447,-187500.02235174447,-187500.02235174447
não,24431.529573384476,-14449.709886277902,-20480.09878159747,-8294.821774342272,-187500.02235174447,-187500.02235174447,-187500.02235174447,-187500.02235174447
não,24533.878211245326,-14361.241681723795,-20129.757539004986,-8180.894932853572,-187500.02235174447,-187500.02235174447,-187500.02235174447,-187500.02235174447
não,24560.63324935833,-14347.495358883782,-19958.453769499512,-8193.881296382106,-187500.02235174447,-187500.02235174447,-187500.02235174447,-187500.02235174447
não,24446.058207280425,-14452.637964801546,-20337.6511141838,-8303.471899446477,-187500.02235174447,-187500.02235174447,-187500.02235174447,-187500.02235174447
não,24428.109756482812,-14463.858540518111,-20495.253264338167,-8278.97438752346,-187500.02235174447,-187500.02235174447,-187500.02235174447,-187500.02235174447
não,24516.153277892266,-14381.715879644857,-20200.880789861774,-8201.547944730275,-187500.02235174447,-187500.02235174447,-187500.02235174447,-187500.02235174447
não,24560.454435402684,-14339.582841346604,-19954.56456596429,-8185.745261400374,-187500.02235174447,-187500.02235174447,-187500.02235174447,-187500.02235174447
não,24457.390541719265,-14433.683685503447,-20273.97099423063,-8291.759585351896,-187500.02235174447,-187500.02235174447,-187500.02235174447,-187500.02235174447
não,24410.809506274403,-14475.749668568335,-20523.97525596324,-8307.294047748333,-187500.02235174447,-187500.02235174447,-187500.02235174447,-187500.02235174447
não,24506.273806843023,-14396.42332749645,-20262.884528980798,-8210.421587279032,-187500.02235174447,-187500.02235174447,-187500.02235174447,-187500.02235174447
não,24576.882967577338,-14335.559527344649,-19945.959144349,-8162.164171000025,-187500.02235174447,-187500.02235174447,-187500.02235174447,-187500.02235174447
não,24481.50807398654,-14421.971371408865,-20190.196656012136,-8274.928721777049,-187500.02235174447,-187500.02235174447,-187500.02235174447,-187500.02235174447
não,24416.196276688133,-14477.962491269409,-20514.319302358545,-8320.481576976965,-187500.02235174447,-187500.02235174447,-187500.02235174447,-187500.02235174447
não,24483.966765876623,-14410.326112547651,-20333.091358314916,-8228.571203776743,-187500.02235174447,-187500.02235174447,-187500.02235174447,-187500.02235174447
não,24554.06183648847,-14336.543004100682,-19994.887112961664,-8174.502333939355,-187500.02235174447,-187500.02235174447,-187500.02235174447,-187500.02235174447
não,24501.401126551766,-14399.239647297818,-20123.409643579682,-8253.761619777873,-187500.02235174447,-187500.02235174447,-187500.02235174447,-187500.02235174447
não,24409.98249172956,-14473.112162722608,-20502.67404349733,-8328.058818347314,-187500.02235174447,-187500.02235174447,-187500.02235174447,-187500.02235174447
não,24455.736512629574,-14435.360066337595,-20406.963873739707,-8265.608044339186,-187500.02235174447,-187500.02235174447,-187500.02235174447,-187500.02235174447
não,24564.120121493357,-14357.12896074402,-20018.15527893964,-8165.673394879508,-187500.02235174447,-187500.02235174447,-187500.02235174447,-187500.02235174447
não,24542.841260771904,-14380.46418195536,-20031.00753200144,-8198.597514462175,-187500.02235174447,-187500.02235174447,-187500.02235174447,-187500.02235174447
não,24432.15542222922,-14469.692345820946,-20449.432188204788,-8300.677931389562,-187500.02235174447,-187500.02235174447,-187500.02235174447,-187500.02235174447
não,24453.79191086196,-14435.941211693433,-20440.357379955934,-8258.388430880123,-187500.02235174447,-187500.02235174447,-187500.02235174447,-187500.02235174447
não,24542.77420553854,-14345.304887927163,-20083.44472449359,-8180.112621797636,-187500.02235174447,-187500.02235174447,-187500.02235174447,-187500.02235174447
não,24542.729502049628,-14355.497283398783,-19990.10383964823,-8206.264162810345,-187500.02235174447,-187500.02235174447,-187500.02235174447,-187500.02235174447
não,24424.55582911442,-14466.250177174828,-20403.387594626856,-8318.112292064701,-187500.02235174447,-187500.02235174447,-187500.02235174447,-187500.02235174447
não,24424.93580877016,-14452.056819445708,-20488.480685768212,-8285.12111724867,-187500.02235174447,-187500.02235174447,-187500.02235174447,-187500.02235174447
não,24519.37192909383,-14365.533216659214,-20155.640859084233,-8193.925999871017,-187500.02235174447,-187500.02235174447,-187500.02235174447,-187500.02235174447
não,24551.111406220367,-14351.451617652372,-19966.790970181344,-8195.311808027245,-187500.02235174447,-187500.02235174447,-187500.02235174447,-187500.02235174447
não,24448.807471848428,-14453.196758412929,-20327.123442545348,-8296.229934242956,-187500.02235174447,-187500.02235174447,-187500.02235174447,-187500.02235174447
não,24435.50818389752,-14459.611709071603,-20495.52148527163,-8291.513716162886,-187500.02235174447,-187500.02235174447,-187500.02235174447,-187500.02235174447
não,24525.205734396666,-14371.590539406603,-20206.491077720057,-8184.582970688698,-187500.02235174447,-187500.02235174447,-187500.02235174447,-187500.02235174447
não,24570.825644829947,-14333.547870343671,-19948.17196705007,-8155.123371496603,-187500.02235174447,-187500.02235174447,-187500.02235174447,-187500.02235174447
não,24472.61207969333,-14431.783787224746,-20250.278145108005,-8259.997756480903,-187500.02235174447,-187500.02235174447,-187500.02235174447,-187500.02235174447
não,24422.097137224333,-14474.00623250082,-20519.504907072176,-8305.952943081014,-187500.02235174447,-187500.02235174447,-187500.02235174447,-187500.02235174447
não,24488.817094423426,-14402.950036877399,-20291.45005839468,-8222.647991496086,-187500.02235174447,-187500.02235174447,-187500.02235174447,-187500.02235174447
não,24560.901470291792,-14332.251469165263,-19963.169987579586,-8157.179731986491,-187500.02235174447,-187500.02235174447,-187500.02235174447,-187500.02235174447
não,24480.70341118615,-14409.208525324884,-20178.059658772905,-8264.468105371965,-187500.02235174447,-187500.02235174447,-187500.02235174447,-187500.02235174447
não,24413.715233053594,-14479.169485469996,-20517.381491348922,-8318.73814090945,-187500.02235174447,-187500.02235174447,-187500.02235174447,-187500.02235174447
não,24475.048419838957,-14414.505888760792,-20355.487806259134,-8242.630451039131,-187500.02235174447,-187500.02235174447,-187500.02235174447,-187500.02235174447
não,24555.201775455687,-14331.402102875962,-19999.20099964154,-8169.160267014536,-187500.02235174447,-187500.02235174447,-187500.02235174447,-187500.02235174447
não,24503.61394925284,-14392.645882683502,-20100.67791946863,-8240.283517871323,-187500.02235174447,-187500.02235174447,-187500.02235174447,-187500.02235174447
não,24417.58208484436,-14477.38134591357,-20487.228988078714,-8308.83631811575,-187500.02235174447,-187500.02235174447,-187500.02235174447,-187500.02235174447
não,24468.588765691373,-14430.777958724257,-20400.213646914202,-8228.705314243474,-187500.02235174447,-187500.02235174447,-187500.02235174447,-187500.02235174447
não,24568.05402851749,-14336.274783167219,-20029.48761337848,-8143.321650424201,-187500.02235174447,-187500.02235174447,-187500.02235174447,-187500.02235174447
não,24535.12990893482,-14361.800475335178,-20029.308799422837,-8212.746168702384,-187500.02235174447,-187500.02235174447,-187500.02235174447,-187500.02235174447
não,24426.746300071038,-14470.452305132427,-20443.28545847958,-8318.291106020344,-187500.02235174447,-187500.02235174447,-187500.02235174447,-187500.02235174447
não,24469.706352914138,-14440.836243729145,-20441.13969101187,-8262.277634415344,-187500.02235174447,-187500.02235174447,-187500.02235174447,-187500.02235174447
não,24560.275621447043,-14352.859777553056,-20092.02779436443,-8172.267159493824,-187500.02235174447,-187500.02235174447,-187500.02235174447,-187500.02235174447
não,24549.211507941665,-14355.40787642096,-19995.06592691731,-8186.035834078292,-187500.02235174447,-187500.02235174447,-187500.02235174447,-187500.02235174447
não,24435.88816355326,-14464.283223662762,-20391.764687510098,-8283.869419559172,-187500.02235174447,-187500.02235174447,-187500.02235174447,-187500.02235174447
não,24437.966875787602,-14457.912976492998,-20486.469028767235,-8274.25816944339,-187500.02235174447,-187500.02235174447,-187500.02235174447,-187500.02235174447
não,24521.115365161346,-14365.667327125946,-20166.257937700502,-8199.603342962664,-187500.02235174447,-187500.02235174447,-187500.02235174447,-187500.02235174447
não,24565.32711569394,-14342.376809403517,-19956.106836331706,-8181.297264253768,-187500.02235174447,-187500.02235174447,-187500.02235174447,-187500.02235174447
não,24464.520748200506,-14455.230767158362,-20308.213866736158,-8290.284370217845,-187500.02235174447,-187500.02235174447,-187500.02235174447,-187500.02235174447
não,24431.417814662196,-14461.66806956149,-20502.606988263964,-8282.528314891853,-187500.02235174447,-187500.02235174447,-187500.02235174447,-187500.02235174447
não,24511.682929001207,-14371.70229812888,-20232.53086001049,-8189.209781790946,-187500.02235174447,-187500.02235174447,-187500.02235174447,-187500.02235174447
não,24564.030714515535,-14323.35547487205,-19954.6092694532,-8163.795848345262,-187500.02235174447,-187500.02235174447,-187500.02235174447,-187500.02235174447
não,24464.90072785625,-14429.839185457133,-20233.827261188897,-8253.605157566686,-187500.02235174447,-187500.02235174447,-187500.02235174447,-187500.02235174447
não,24417.917361011194,-14478.43187790297,-20512.039424424103,-8285.992835282426,-187500.02235174447,-187500.02235174447,-187500.02235174447,-187500.02235174447
não,24495.209693337645,-14398.524391475248,-20296.479200897124,-8219.116415872148,-187500.02235174447,-187500.02235174447,-187500.02235174447,-187500.02235174447
não,24570.825644829947,-14334.30782965515,-19967.349763792725,-8170.322557726212,-187500.02235174447,-187500.02235174447,-187500.02235174447,-187500.02235174447
não,24502.295196329975,-14410.147298592008,-20149.829405525852,-8259.550721591797,-187500.02235174447,-187500.02235174447,-187500.02235174447,-187500.02235174447
não,24421.851268035327,-14482.499895393838,-20503.836334209005,-8317.665257175597,-187500.02235174447,-187500.02235174447,-187500.02235174447,-187500.02235174447
não,24491.901635158258,-14416.249324828306,-20340.892117129817,-8231.141654389103,-187500.02235174447,-187500.02235174447,-187500.02235174447,-187500.02235174447
não,24592.596243929416,-14323.9813237168,-19968.556757993312,-8139.074818977692,-187500.02235174447,-187500.02235174447,-187500.02235174447,-187500.02235174447
não,24544.42823462823,-14379.011318565765,-20046.87727056471,-8219.943430416994,-187500.02235174447,-187500.02235174447,-187500.02235174447,-187500.02235174447
não,24441.051416522434,-14476.91195928001,-20446.03472304758,-8332.976202127482,-187500.02235174447,-187500.02235174447,-187500.02235174447,-187500.02235174447
não,24474.824902394404,-14430.66620000198,-20381.88521646085,-8276.247474699912,-187500.02235174447,-187500.02235174447,-187500.02235174447,-187500.02235174447
não,24569.68570586273,-14339.068751224131,-20011.829735258787,-8182.884238110094,-187500.02235174447,-187500.02235174447,-187500.02235174447,-187500.02235174447
não,24551.20081319819,-14364.505036414272,-19977.698621475534,-8222.357418818166,-187500.02235174447,-187500.02235174447,-187500.02235174447,-187500.02235174447
não,24436.178736231177,-14463.612671329103,-20399.498391091634,-8331.121007337691,-187500.02235174447,-187500.02235174447,-187500.02235174447,-187500.02235174447
não,24452.45080619464,-14441.842072229634,-20430.254391462135,-8287.289236460834,-187500.02235174447,-187500.02235174447,-187500.02235174447,-187500.02235174447
não,24542.70715030517,-14351.719838585836,-20079.622576191734,-8197.546982472775,-187500.02235174447,-187500.02235174447,-187500.02235174447,-187500.02235174447
não,24564.030714515535,-14335.157195944454,-19929.552963918803,-8188.494525968376,-187500.02235174447,-187500.02235174447,-187500.02235174447,-187500.02235174447
não,24457.03291380798,-14442.04323792973,-20316.64047439581,-8294.77707085336,-187500.02235174447,-187500.02235174447,-187500.02235174447,-187500.02235174447
não,24456.898803341246,-14452.548557823726,-20438.43512993278,-8274.034651998836,-187500.02235174447,-187500.02235174447,-187500.02235174447,-187500.02235174447
não,24548.071568974447,-14368.997737049787,-20125.42130058066,-8183.666549166031,-187500.02235174447,-187500.02235174447,-187500.02235174447,-187500.02235174447
não,24580.59335715692,-14332.184413931896,-19906.26244619637,-8190.95321785846,-187500.02235174447,-187500.02235174447,-187500.02235174447,-187500.02235174447
não,24468.432303480186,-14434.71186574839,-20259.352953356858,-8317.061760075303,-187500.02235174447,-187500.02235174447,-187500.02235174447,-187500.02235174447
não,24431.440166406654,-14459.030563715765,-20476.589557717987,-8321.912088622104,-187500.02235174447,-187500.02235174447,-187500.02235174447,-187500.02235174447
não,24516.332091847908,-14371.478780684327,-20204.881752119276,-8207.582915733208,-187500.02235174447,-187500.02235174447,-187500.02235174447,-187500.02235174447
não,24586.851845604404,-14318.683960280892,-19900.383937404626,-8152.396458673055,-187500.02235174447,-187500.02235174447,-187500.02235174447,-187500.02235174447
não,24495.723783460115,-14412.158955592986,-20159.641821341735,-8261.517675103865,-187500.02235174447,-187500.02235174447,-187500.02235174447,-187500.02235174447
não,24433.340064685355,-14468.261834175806,-20464.206691289746,-8307.919896593083,-187500.02235174447,-187500.02235174447,-187500.02235174447,-187500.02235174447
não,24500.730574218105,-14397.13858331902,-20263.890357481287,-8222.715046729452,-187500.02235174447,-187500.02235174447,-187500.02235174447,-187500.02235174447
não,24582.336793224433,-14321.16500391543,-19918.779423091346,-8156.643290119564,-187500.02235174447,-187500.02235174447,-187500.02235174447,-187500.02235174447
não,24511.70528074566,-14392.869400128056,-20091.379593775226,-8258.790762280318,-187500.02235174447,-187500.02235174447,-187500.02235174447,-187500.02235174447
não,24427.0145210045,-14469.379421398571,-20461.032743577092,-8333.110312594214,-187500.02235174447,-187500.02235174447,-187500.02235174447,-187500.02235174447
não,24478.714105929626,-14400.625455454046,-20333.806614137487,-8261.092991959214,-187500.02235174447,-187500.02235174447,-187500.02235174447,-187500.02235174447
não,24555.559403366973,-14317.834593991589,-19983.934758178566,-8177.877447352105,-187500.02235174447,-187500.02235174447,-187500.02235174447,-187500.02235174447
não,24514.096917402378,-14370.763524861757,-20045.7820350864,-8228.906479943571,-187500.02235174447,-187500.02235174447,-187500.02235174447,-187500.02235174447
não,24444.962971802113,-14473.447438889438,-20419.972589012694,-8303.874230846672,-187500.02235174447,-187500.02235174447,-187500.02235174447,-187500.02235174447
não,24497.89190267228,-14434.086016903642,-20357.70062896021,-8246.542006318808,-187500.02235174447,-187500.02235174447,-187500.02235174447,-187500.02235174447
não,24590.964566584178,-14332.474986609815,-19993.501304805435,-8156.397420930555,-187500.02235174447,-187500.02235174447,-187500.02235174447,-187500.02235174447
não,24562.577851125938,-14348.054152495164,-19950.831824640256,-8196.76467141684,-187500.02235174447,-187500.02235174447,-187500.02235174447,-187500.02235174447
não,24438.704483354628,-14464.95377599642,-20374.88912044634,-8325.398960757133,-187500.02235174447,-187500.02235174447,-187500.02235174447,-187500.02235174447
não,24448.203974748132,-14446.58064205416,-20427.99686527215,-8287.602160883209,-187500.02235174447,-187500.02235174447,-187500.02235174447,-187500.02235174447
não,24556.72169407865,-14347.115379228042,-20072.447666221582,-8176.983377573893,-187500.02235174447,-187500.02235174447,-187500.02235174447,-187500.02235174447
não,24574.267813476064,-14332.117358698531,-19925.32848421675,-8199.201011562469,-187500.02235174447,-187500.02235174447,-187500.02235174447,-187500.02235174447
não,24453.031951550478,-14442.713790263391,-20320.84260235341,-8318.000533342425,-187500.02235174447,-187500.02235174447,-187500.02235174447,-187500.02235174447
não,24433.98826527456,-14458.427066615472,-20468.47587448071,-8305.058873302803,-187500.02235174447,-187500.02235174447,-187500.02235174447,-187500.02235174447
não,24522.098841917377,-14364.8403125811,-20158.47953063006,-8208.946372144983,-187500.02235174447,-187500.02235174447,-187500.02235174447,-187500.02235174447
não,24586.449514204207,-14321.321466126617,-19895.868885024654,-8160.823066332707,-187500.02235174447,-187500.02235174447,-187500.02235174447,-187500.02235174447
não,24487.52069324502,-14427.738121478335,-20226.629999474288,-8280.941341035526,-187500.02235174447,-187500.02235174447,-187500.02235174447,-187500.02235174447
não,24441.61021013382,-14466.29488066374,-20472.230967549203,-8335.45724576202,-187500.02235174447,-187500.02235174447,-187500.02235174447,-187500.02235174447
não,24524.982216952114,-14380.03949881071,-20212.70486267863,-8236.81899748075,-187500.02235174447,-187500.02235174447,-187500.02235174447,-187500.02235174447
não,24587.231825260144,-14309.720910754313,-19906.597722363204,-8173.451801949955,-187500.02235174447,-187500.02235174447,-187500.02235174447,-187500.02235174447
não,24493.354498547855,-14405.721653189858,-20155.059713728395,-8271.754774064395,-187500.02235174447,-187500.02235174447,-187500.02235174447,-187500.02235174447
não,24425.047567492435,-14470.38524989906,-20474.287328039092,-8307.919896593083,-187500.02235174447,-187500.02235174447,-187500.02235174447,-187500.02235174447
não,24491.521655502518,-14397.719728674858,-20283.470485624133,-8210.645104723586,-187500.02235174447,-187500.02235174447,-187500.02235174447,-187500.02235174447
não,24571.004458785592,-14316.538192813183,-19941.444091969024,-8167.975624558405,-187500.02235174447,-187500.02235174447,-187500.02235174447,-187500.02235174447
não,24508.933664433203,-14386.677966913936,-20084.65171869418,-8269.273730429857,-187500.02235174447,-187500.02235174447,-187500.02235174447,-187500.02235174447
não,24424.377015158774,-14478.767154069801,-20460.898633110362,-8351.952833170037,-187500.02235174447,-187500.02235174447,-187500.02235174447,-187500.02235174447
não,24485.1290565883,-14411.75662419279,-20341.78618690803,-8260.377736136645,-187500.02235174447,-187500.02235174447,-187500.02235174447,-187500.02235174447
não,24582.470903691163,-14312.961913700334,-19967.57328123728,-8168.4673629364215,-187500.02235174447,-187500.02235174447,-187500.02235174447,-187500.02235174447
não,24540.71784504865,-14355.027896765221,-20005.235970644473,-8230.292288099801,-187500.02235174447,-187500.02235174447,-187500.02235174447,-187500.02235174447
não,24433.317712940898,-14474.00623250082,-20423.593571614456,-8323.02967584487,-187500.02235174447,-187500.02235174447,-187500.02235174447,-187500.02235174447
não,24466.577108690395,-14435.181252381952,-20404.549885338532,-8262.590558837719,-187500.02235174447,-187500.02235174447,-187500.02235174447,-187500.02235174447
não,24572.59143264192,-14332.966724987833,-20032.23687794648,-8180.872581109117,-187500.02235174447,-187500.02235174447,-187500.02235174447,-187500.02235174447
não,24564.0977697489,-14346.154254216464,-19954.51986247538,-8222.849157196184,-187500.02235174447,-187500.02235174447,-187500.02235174447,-187500.02235174447
não,24458.28461149748,-14457.264775903795,-20363.534434263045,-8322.716751422495,-187500.02235174447,-187500.02235174447,-187500.02235174447,-187500.02235174447
não,24457.41289346372,-14439.919822206477,-20440.312676467023,-8299.292123233334,-187500.02235174447,-187500.02235174447,-187500.02235174447,-187500.02235174447
não,24536.56042057996,-14345.729571071814,-20112.926675430142,-8222.96091591846,-187500.02235174447,-187500.02235174447,-187500.02235174447,-187500.02235174447
não,24567.00349652809,-14329.613963319536,-19933.531574431847,-8217.887069927105,-187500.02235174447,-187500.02235174447,-187500.02235174447,-187500.02235174447
não,24469.41578023622,-14441.819720485179,-20300.904846299272,-8316.525318208376,-187500.02235174447,-187500.02235174447,-187500.02235174447,-187500.02235174447
não,24444.672399124196,-14451.453322345415,-20476.075467595514,-8309.350408238222,-187500.02235174447,-187500.02235174447,-187500.02235174447,-187500.02235174447
não,24535.50988859056,-14361.50990265726,-20186.933301321664,-8220.681037984019,-187500.02235174447,-187500.02235174447,-187500.02235174447,-187500.02235174447
não,24575.921842565756,-14331.200937175863,-19931.452862197504,-8201.48088949691,-187500.02235174447,-187500.02235174447,-187500.02235174447,-187500.02235174447
não,24468.32054475791,-14438.66812451698,-20252.490967809077,-8331.299821293333,-187500.02235174447,-187500.02235174447,-187500.02235174447,-187500.02235174447
não,24440.82789907788,-14461.891587006045,-20493.10749687046,-8355.193836116057,-187500.02235174447,-187500.02235174447,-187500.02235174447,-187500.02235174447
não,24531.687740288704,-14374.786838863713,-20238.588182757878,-8257.114381446168,-187500.02235174447,-187500.02235174447,-187500.02235174447,-187500.02235174447
não,24600.128781810854,-14304.959989185332,-19917.460670168482,-8200.273895296323,-187500.02235174447,-187500.02235174447,-187500.02235174447,-187500.02235174447
não,24516.823830225927,-14391.260074527274,-20151.08110321535,-8297.146355765624,-187500.02235174447,-187500.02235174447,-187500.02235174447,-187500.02235174447
não,24437.653951365228,-14463.836188773656,-20501.399994063377,-8347.907167423626,-187500.02235174447,-187500.02235174447,-187500.02235174447,-187500.02235174447
não,24505.111516131346,-14403.508830488781,-20334.41011123778,-8264.736326305429,-187500.02235174447,-187500.02235174447,-187500.02235174447,-187500.02235174447
não,24577.218243744166,-14332.966724987833,-19987.354575080226,-8192.987226603893,-187500.02235174447,-187500.02235174447,-187500.02235174447,-187500.02235174447
não,24513.068737157435,-14388.756679148279,-20109.73037597303,-8274.481686887942,-187500.02235174447,-187500.02235174447,-187500.02235174447,-187500.02235174447
não,24429.24969545003,-14461.265738161295,-20487.877188667917,-8383.401737618655,-187500.02235174447,-187500.02235174447,-187500.02235174447,-187500.02235174447
não,24494.42738228171,-14405.118156089564,-20377.057239658505,-8308.612800671197,-187500.02235174447,-187500.02235174447,-187500.02235174447,-187500.02235174447
não,24594.2055695302,-14318.907477725445,-20006.15239216714,-8205.39244477659,-187500.02235174447,-187500.02235174447,-187500.02235174447,-187500.02235174447
não,24560.454435402684,-14354.625565365026,-20029.219392445015,-8261.137695448124,-187500.02235174447,-187500.02235174447,-187500.02235174447,-187500.02235174447
não,24436.469308909098,-14465.020831229787,-20457.85879586444,-8365.520342054408,-187500.02235174447,-187500.02235174447,-187500.02235174447,-187500.02235174447
não,24462.1738150327,-14432.834319214144,-20457.18824353078,-8331.009248615414,-187500.02235174447,-187500.02235174447,-187500.02235174447,-187500.02235174447
não,24566.66822036126,-14328.78694877469,-20084.964643116553,-8235.790817235806,-187500.02235174447,-187500.02235174447,-187500.02235174447,-187500.02235174447
não,24574.938365809725,-14338.018219234733,-19978.36917380919,-8231.38752357811,-187500.02235174447,-187500.02235174447,-187500.02235174447,-187500.02235174447
não,24460.36332373182,-14454.023772957777,-20391.429411343266,-8347.907167423626,-187500.02235174447,-187500.02235174447,-187500.02235174447,-187500.02235174447
não,24464.83367262288,-14448.346429866127,-20490.939377658295,-8341.827492931783,-187500.02235174447,-187500.02235174447,-187500.02235174447,-187500.02235174447
não,24566.310592449976,-14352.613908364048,-20151.03639972644,-8247.167855163558,-187500.02235174447,-187500.02235174447,-187500.02235174447,-187500.02235174447
não,24589.355240983397,-14326.037684206687,-19952.217632796484,-8241.311698116268,-187500.02235174447,-187500.02235174447,-187500.02235174447,-187500.02235174447
não,24472.2768035265,-14431.873194202566,-20329.49272745761,-8351.528150025386,-187500.02235174447,-187500.02235174447,-187500.02235174447,-187500.02235174447
não,24453.613096906316,-14448.301726377216,-20514.766337247653,-8354.3221180823,-187500.02235174447,-187500.02235174447,-187500.02235174447,-187500.02235174447
não,24529.05023444298,-14364.236815480806,-20232.10617686584,-8264.021070482859,-187500.02235174447,-187500.02235174447,-187500.02235174447,-187500.02235174447
não,24574.223109987153,-14314.392425345473,-19959.70546718901,-8228.48179679892,-187500.02235174447,-187500.02235174447,-187500.02235174447,-187500.02235174447
não,24477.03772509548,-14412.829507926645,-20260.24702313507,-8341.715734209507,-187500.02235174447,-187500.02235174447,-187500.02235174447,-187500.02235174447
não,24439.822070577393,-14462.428028872971,-20523.34940711849,-8356.087905894268,-187500.02235174447,-187500.02235174447,-187500.02235174447,-187500.02235174447
não,24511.794687723483,-14393.56230420617,-20296.948587530685,-8269.16197170758,-187500.02235174447,-187500.02235174447,-187500.02235174447,-187500.02235174447
não,24577.799389100004,-14314.459480578838,-19980.067906387798,-8228.258279354368,-187500.02235174447,-187500.02235174447,-187500.02235174447,-187500.02235174447
não,24503.010452152546,-14380.263016255263,-20178.75256285102,-8314.781882140862,-187500.02235174447,-187500.02235174447,-187500.02235174447,-187500.02235174447
não,24424.958160514612,-14453.420275857483,-20516.621532037443,-8361.117048396713,-187500.02235174447,-187500.02235174447,-187500.02235174447,-187500.02235174447
não,24492.54983574746,-14392.310606516672,-20352.760893435585,-8282.885942803137,-187500.02235174447,-187500.02235174447,-187500.02235174447,-187500.02235174447
não,24573.083171019935,-14311.419643332916,-20002.978444454486,-8221.217479850946,-187500.02235174447,-187500.02235174447,-187500.02235174447,-187500.02235174447
não,24524.646940785282,-14371.478780684327,-20098.6439107232,-8292.877172574661,-187500.02235174447,-187500.02235174447,-187500.02235174447,-187500.02235174447
não,24431.417814662196,-14463.567967840192,-20490.984081147206,-8363.821609475805,-187500.02235174447,-187500.02235174447,-187500.02235174447,-187500.02235174447
não,24476.903614628747,-14415.131737605541,-20410.987187741663,-8294.799422597816,-187500.02235174447,-187500.02235174447,-187500.02235174447,-187500.02235174447
não,24572.412618686274,-14321.634390548992,-20038.361255927237,-8208.097005855681,-187500.02235174447,-187500.02235174447,-187500.02235174447,-187500.02235174447
não,24538.639132814307,-14355.653745609969,-20031.767491312923,-8259.148390191602,-187500.02235174447,-187500.02235174447,-187500.02235174447,-187500.02235174447
não,24418.923189511683,-14464.394982385038,-20464.4302087343,-8373.768135758417,-187500.02235174447,-187500.02235174447,-187500.02235174447,-187500.02235174447
não,24443.0183700345,-14429.19098486793,-20478.377697274413,-8336.194853329045,-187500.02235174447,-187500.02235174447,-187500.02235174447,-187500.02235174447
não,24557.839281301414,-14325.098910939565,-20101.951968902587,-8235.612003280165,-187500.02235174447,-187500.02235174447,-187500.02235174447,-187500.02235174447
não,24566.511758150074,-14323.64604754997,-19969.540234749347,-8241.468160327455,-187500.02235174447,-187500.02235174447,-187500.02235174447,-187500.02235174447
não,24449.925059071193,-14441.663258273991,-20377.861902458895,-8358.479542550987,-187500.02235174447,-187500.02235174447,-187500.02235174447,-187500.02235174447
não,24441.20787873362,-14437.52818554976,-20499.209523106758,-8340.911071409115,-187500.02235174447,-187500.02235174447,-187500.02235174447,-187500.02235174447
não,24539.935533992713,-14336.36419014504,-20162.36873416528,-8228.973535176938,-187500.02235174447,-187500.02235174447,-187500.02235174447,-187500.02235174447
não,24584.214339758677,-14312.179602644397,-19940.281801257348,-8207.940543644494,-187500.02235174447,-187500.02235174447,-187500.02235174447,-187500.02235174447
não,24467.73939940207,-14439.361028595094,-20312.192477249202,-8323.3649520117,-187500.02235174447,-187500.02235174447,-187500.02235174447,-187500.02235174447
não,24434.07767225238,-14457.220072414884,-20525.517526330656,-8346.78958020086,-187500.02235174447,-187500.02235174447,-187500.02235174447,-187500.02235174447
não,24522.56822855094,-14366.159065503964,-20244.891374694274,-8272.715899075973,-187500.02235174447,-187500.02235174447,-187500.02235174447,-187500.02235174447
$SILENCE,24569.10456050689,-14325.143614428474,-19967.819150426287,-8248.643070297609,-187500.02235174447,-187500.02235174447,-187500.02235174447,-187500.02235174447
$SILENCE,24464.65485866724,-14416.674007972957,-20253.4297410762,-8349.471789535499,-187500.02235174447,-187500.02235174447,-187500.02235174447,-187500.02235174447
$SILENCE,24435.329369941875,-14444.501929819815,-20519.482555327722,-8353.450400048543,-187500.02235174447,-187500.02235174447,-187500.02235174447,-187500.02235174447
$SILENCE,24524.982216952114,-14366.539045159703,-20283.91752051324,-8252.688736044018,-187500.02235174447,-187500.02235174447,-187500.02235174447,-187500.02235174447
$SILENCE,24594.2055695302,-14301.897800194956,-19949.066036828284,-8193.680130682007,-187500.02235174447,-187500.02235174447,-187500.02235174447,-187500.02235174447
$SILENCE,24513.918103446736,-14384.107516301576,-20137.71476003108,-8282.394204425122,-187500.02235174447,-187500.02235174447,-187500.02235174447,-187500.02235174447
$SILENCE,24426.276913437476,-14464.417334129494,-20506.764412732653,-8353.942138426559,-187500.02235174447,-187500.02235174447,-187500.02235174447,-187500.02235174447
$SILENCE,24478.535291973985,-14404.447603755905,-20371.737524478143,-8288.02684402786,-187500.02235174447,-187500.02235174447,-187500.02235174447,-187500.02235174447
$SILENCE,24567.539938395017,-14317.096986424565,-20000.67621477559,-8206.130052343613,-187500.02235174447,-187500.02235174447,-187500.02235174447,-187500.02235174447
$SILENCE,24529.027882698523,-14362.582786391114,-20068.290241752893,-8267.507942617887,-187500.02235174447,-187500.02235174447,-187500.02235174447,-187500.02235174447
$SILENCE,24425.338140170355,-14456.080133447664,-20479.76350543064,-8351.885777936672,-187500.02235174447,-187500.02235174447,-187500.02235174447,-187500.02235174447
$SILENCE,24462.956126088637,-14415.601124239103,-20424.018254759107,-8297.816908099283,-187500.02235174447,-187500.02235174447,-187500.02235174447,-187500.02235174447
$SILENCE,24555.581755111427,-14329.010466219243,-20057.002610802963,-8219.496395527887,-187500.02235174447,-187500.02235174447,-187500.02235174447,-187500.02235174447
$SILENCE,24542.841260771904,-14343.561451859649,-20004.498363077448,-8241.132884160625,-187500.02235174447,-187500.02235174447,-187500.02235174447,-187500.02235174447
$SILENCE,24437.92217229869,-14446.24536588733,-20412.305940664522,-8331.813911415806,-187500.02235174447,-187500.02235174447,-187500.02235174447,-187500.02235174447
$SILENCE,24461.07857955439,-14423.066606887176,-20457.836444119985,-8303.807175613305,-187500.02235174447,-187500.02235174447,-187500.02235174447,-187500.02235174447
$SILENCE,24552.13958646531,-14332.765559287735,-20108.50103002799,-8212.343837302189,-187500.02235174447,-187500.02235174447,-187500.02235174447,-187500.02235174447
$SILENCE,24561.259098203078,-14321.343817871073,-19951.6588391851,-8215.517785014843,-187500.02235174447,-187500.02235174447,-187500.02235174447,-187500.02235174447
$SILENCE,24439.64325662175,-14435.360066337595,-20363.98146915215,-8336.910109151615,-187500.02235174447,-187500.02235174447,-187500.02235174447,-187500.02235174447
$SILENCE,24420.487811623552,-14445.86538623159,-20509.312511600558,-8333.825568416783,-187500.02235174447,-187500.02235174447,-187500.02235174447,-187500.02235174447
$SILENCE,24528.290275131498,-14348.456483895361,-20177.8137895839,-8231.186357878012,-187500.02235174447,-187500.02235174447,-187500.02235174447,-187500.02235174447
$SILENCE,24580.280432734544,-14308.603323531548,-19926.446071439514,-8212.299133813278,-187500.02235174447,-187500.02235174447,-187500.02235174447,-187500.02235174447
$SILENCE,24477.17183556221,-14420.071473130165,-20259.375305101312,-8321.822681644284,-187500.02235174447,-187500.02235174447,-187500.02235174447,-187500.02235174447
$SILENCE,24434.1670792302,-14447.698229276924,-20497.510790528155,-8334.809045172817,-187500.02235174447,-187500.02235174447,-187500.02235174447,-187500.02235174447
$SILENCE,24513.448716813175,-14358.738286344802,-20216.41525225821,-8227.274802598335,-187500.02235174447,-187500.02235174447,-187500.02235174447,-187500.02235174447
$SILENCE,24578.49229317812,-14298.522686782204,-19919.785251591835,-8186.862848623139,-187500.02235174447,-187500.02235174447,-187500.02235174447,-187500.02235174447
$SILENCE,24495.120286359823,-14392.064737327664,-20202.512467207012,-8314.781882140862,-187500.02235174447,-187500.02235174447,-187500.02235174447,-187500.02235174447
$SILENCE,24427.059224493412,-14456.750685781322,-20515.30277911458,-8351.349336069743,-187500.02235174447,-187500.02235174447,-187500.02235174447,-187500.02235174447
$SILENCE,24500.37294630682,-14379.32424298814,-20309.622026636844,-8257.650823313097,-187500.02235174447,-187500.02235174447,-187500.02235174447,-187500.02235174447
$SILENCE,24574.58073789844,-14301.428413561394,-19952.172929307573,-8190.886162625095,-187500.02235174447,-187500.02235174447,-187500.02235174447,-187500.02235174447
$SILENCE,24518.589618037895,-14372.730478373824,-20094.374727532235,-8262.948186749005,-187500.02235174447,-187500.02235174447,-187500.02235174447,-187500.02235174447
$SILENCE,24434.1670792302,-14452.61561305709,-20475.80724666205,-8334.585527728263,-187500.02235174447,-187500.02235174447,-187500.02235174447,-187500.02235174447
$SILENCE,24490.068792112925,-14394.344615262105,-20345.429521254246,-8259.885997758627,-187500.02235174447,-187500.02235174447,-187500.02235174447,-187500.02235174447
$SILENCE,24578.62640364485,-14309.944428198867,-19971.82011268379,-8180.5596566867425,-187500.02235174447,-187500.02235174447,-187500.02235174447,-187500.02235174447
$SILENCE,24539.62260957034,-14353.776199075724,-20019.29521790686,-8245.044439440304,-187500.02235174447,-187500.02235174447,-187500.02235174447,-187500.02235174447
$SILENCE,24441.811375833917,-14451.09569443413,-20433.830670574986,-8328.282335791866,-187500.02235174447,-187500.02235174447,-187500.02235174447,-187500.02235174447
$SILENCE,24479.27289954101,-14414.684702716435,-20396.816181756996,-8267.038555984325,-187500.02235174447,-187500.02235174447,-187500.02235174447,-187500.02235174447
$SILENCE,24590.137552039334,-14324.629524306003,-20020.14458419616,-8188.650988179564,-187500.02235174447,-187500.02235174447,-187500.02235174447,-187500.02235174447
$SILENCE,24581.24155774612,-14344.544928615682,-19949.42366473957,-8229.129997388125,-187500.02235174447,-187500.02235174447,-187500.02235174447,-187500.02235174447
$SILENCE,24461.436207465675,-14450.7604182673,-20362.908585418296,-8328.662315447607,-187500.02235174447,-187500.02235174447,-187500.02235174447,-187500.02235174447
$SILENCE,24467.426474979697,-14429.056874401198,-20430.097929250947,-8285.92578004906,-187500.02235174447,-187500.02235174447,-187500.02235174447,-187500.02235174447
$SILENCE,24583.38732521383,-14339.582841346604,-20076.87331162373,-8200.028026107315,-187500.02235174447,-187500.02235174447,-187500.02235174447,-187500.02235174447
$SILENCE,24614.92563664027,-14322.707274282846,-19898.64050133711,-8202.442014508488,-187500.02235174447,-187500.02235174447,-187500.02235174447,-187500.02235174447
$SILENCE,24497.601329994362,-14434.801272726212,-20287.091468225895,-8321.59916419973,-187500.02235174447,-187500.02235174447,-187500.02235174447,-187500.02235174447
$SILENCE,24478.22236755161,-14447.76528451029,-20449.923926582807,-8317.039408330847,-187500.02235174447,-187500.02235174447,-187500.02235174447,-187500.02235174447
$SILENCE,24564.365990682363,-14358.246547966784,-20140.084044943338,-8207.560563988753,-187500.02235174447,-187500.02235174447,-187500.02235174447,-187500.02235174447
$SILENCE,24609.047127848524,-14314.772405001213,-19884.44714360799,-8174.1670577725245,-187500.02235174447,-187500.02235174447,-187500.02235174447,-187500.02235174447
$SILENCE,24502.60812075235,-14420.809080697189,-20215.364720268815,-8295.73819586494,-187500.02235174447,-187500.02235174447,-187500.02235174447,-187500.02235174447
$SILENCE,24465.1242453008,-14465.803142285722,-20459.19990053176,-8312.211431528502,-187500.02235174447,-187500.02235174447,-187500.02235174447,-187500.02235174447
$SILENCE,24554.933554522224,-14382.922873845444,-20193.728231636076,-8211.270953568335,-187500.02235174447,-187500.02235174447,-187500.02235174447,-187500.02235174447
$SILENCE,24636.986808417656,-14310.88320146599,-19869.40441958957,-8140.482978878377,-187500.02235174447,-187500.02235174447,-187500.02235174447,-187500.02235174447
$SILENCE,24558.82275805745,-14394.27756002874,-20103.337777058816,-8264.222236182957,-187500.02235174447,-187500.02235174447,-187500.02235174447,-187500.02235174447
$SILENCE,24494.785010192994,-14460.19285442744,-20441.743188112163,-8343.436818532566,-187500.02235174447,-187500.02235174447,-187500.02235174447,-187500.02235174447
$SILENCE,24552.67602833224,-14391.774164649745,-20264.739723770588,-8253.113419188669,-187500.02235174447,-187500.02235174447,-187500.02235174447,-187500.02235174447
$SILENCE,24636.003331661625,-14320.02506494821,-19904.60841710668,-8170.322557726212,-187500.02235174447,-187500.02235174447,-187500.02235174447,-187500.02235174447
$SILENCE,24578.939328067223,-14387.259112269774,-20031.29810467936,-8245.938509218515,-187500.02235174447,-187500.02235174447,-187500.02235174447,-187500.02235174447
$SILENCE,24482.446847253665,-14470.832284788166,-20420.017292501605,-8323.007324100414,-187500.02235174447,-187500.02235174447,-187500.02235174447,-187500.02235174447
$SILENCE,24539.71201654816,-14410.102595103097,-20319.300331985993,-8264.199884438502,-187500.02235174447,-187500.02235174447,-187500.02235174447,-187500.02235174447
$SILENCE,24630.214229847697,-14325.478890595305,-19947.210842038494,-8178.57035143022,-187500.02235174447,-187500.02235174447,-187500.02235174447,-187500.02235174447
$SILENCE,24597.781848643048,-14364.281518969718,-19965.89690040313,-8223.452654296476,-187500.02235174447,-187500.02235174447,-187500.02235174447,-187500.02235174447
$SILENCE,24498.56245500594,-14469.446476631938,-20384.142742650838,-8327.835300902761,-187500.02235174447,-187500.02235174447,-187500.02235174447,-187500.02235174447
$SILENCE,24522.81409773995,-14428.81100521219,-20370.35171632191,-8286.372814938166,-187500.02235174447,-187500.02235174447,-187500.02235174447,-187500.02235174447
$SILENCE,24628.940180413745,-14335.939507000388,-19991.19907512654,-8162.454743677944,-187500.02235174447,-187500.02235174447,-187500.02235174447,-187500.02235174447
$SILENCE,24623.262837322098,-14348.098855984075,-19908.587027619724,-8188.76274690184,-187500.02235174447,-187500.02235174447,-187500.02235174447,-187500.02235174447
$SILENCE,24506.698489987673,-14461.198682927929,-20330.565611191465,-8319.811024643306,-187500.02235174447,-187500.02235174447,-187500.02235174447,-187500.02235174447
$SILENCE,24513.672234257727,-14454.33669738015,-20408.573199340488,-8291.759585351896,-187500.02235174447,-187500.02235174447,-187500.02235174447,-187500.02235174447
$SILENCE,24605.739069669136,-14352.233928708307,-20066.77032312993,-8195.37886326061,-187500.02235174447,-187500.02235174447,-187500.02235174447,-187500.02235174447
$SILENCE,24636.1150903839,-14323.824861505613,-19875.148817914585,-8183.577142188209,-187500.02235174447,-187500.02235174447,-187500.02235174447,-187500.02235174447
$SILENCE,24526.815059997447,-14442.825548985667,-20251.77571198651,-8296.87813483216,-187500.02235174447,-187500.02235174447,-187500.02235174447,-187500.02235174447
$SILENCE,24498.80832419495,-14461.846883517133,-20436.4234729318,-8297.459280187999,-187500.02235174447,-187500.02235174447,-187500.02235174447,-187500.02235174447
$SILENCE,24582.44855194671,-14377.290234242706,-20145.09083570133,-8216.724779215428,-187500.02235174447,-187500.02235174447,-187500.02235174447,-187500.02235174447
$SILENCE,24629.92365716978,-14332.854966265557,-19875.66290803706,-8182.727775898908,-187500.02235174447,-187500.02235174447,-187500.02235174447,-187500.02235174447
$SILENCE,24534.124080434332,-14431.537918035738,-20183.08880127535,-8281.567189880276,-187500.02235174447,-187500.02235174447,-187500.02235174447,-187500.02235174447
$SILENCE,24504.239798097587,-14465.57962484117,-20439.61977238891,-8310.333884994256,-187500.02235174447,-187500.02235174447,-187500.02235174447,-187500.02235174447
$SILENCE,24595.032584075045,-14377.647862153992,-20187.626205399778,-8216.81418619325,-187500.02235174447,-187500.02235174447,-187500.02235174447,-187500.02235174447
$SILENCE,24664.45710235323,-14315.666474779426,-19856.26159384985,-8156.196255230458,-187500.02235174447,-187500.02235174447,-187500.02235174447,-187500.02235174447
$SILENCE,24577.06178153298,-14405.744004934313,-20082.908282626664,-8259.573073336252,-187500.02235174447,-187500.02235174447,-187500.02235174447,-187500.02235174447
$SILENCE,24495.209693337645,-14475.794372057246,-20436.75874909863,-8319.475748476476,-187500.02235174447,-187500.02235174447,-187500.02235174447,-187500.02235174447
$SILENCE,24541.94719099369,-14414.260019571784,-20279.7377443001,-8244.150369662091,-187500.02235174447,-187500.02235174447,-187500.02235174447,-187500.02235174447
$SILENCE,24626.570895501485,-14326.350608629062,-19916.76776609037,-8163.058240778237,-187500.02235174447,-187500.02235174447,-187500.02235174447,-187500.02235174447
$SILENCE,24583.43202870274,-14388.51080995927,-20018.825831273298,-8222.290363584802,-187500.02235174447,-187500.02235174447,-187500.02235174447,-187500.02235174447
$SILENCE,24484.74907693256,-14491.842924576154,-20419.65966459032,-8321.800329899828,-187500.02235174447,-187500.02235174447,-187500.02235174447,-187500.02235174447
$SILENCE,24533.677045545228,-14427.894583689522,-20328.50925070158,-8263.909311760583,-187500.02235174447,-187500.02235174447,-187500.02235174447,-187500.02235174447
$SILENCE,24642.842965464948,-14326.9317539849,-19943.6569146701,-8163.706441367441,-187500.02235174447,-187500.02235174447,-187500.02235174447,-187500.02235174447
$SILENCE,24622.525229755072,-14363.722725358335,-19939.588897179234,-8206.867659910638,-187500.02235174447,-187500.02235174447,-187500.02235174447,-187500.02235174447
$SILENCE,24507.592559765882,-14475.235578445861,-20362.908585418296,-8307.226992514967,-187500.02235174447,-187500.02235174447,-187500.02235174447,-187500.02235174447
$SILENCE,24524.356368107365,-14448.748761266323,-20376.207873369203,-8264.244587927413,-187500.02235174447,-187500.02235174447,-187500.02235174447,-187500.02235174447
$SILENCE,24625.498011767628,-14351.161044974453,-20015.473069605003,-8170.009633303837,-187500.02235174447,-187500.02235174447,-187500.02235174447,-187500.02235174447
$SILENCE,24613.763345928593,-14353.105646742064,-19918.04181552432,-8179.218552019424,-187500.02235174447,-187500.02235174447,-187500.02235174447,-187500.02235174447
$SILENCE,24497.646033483274,-14467.703040564424,-20327.749291390097,-8298.867440088683,-187500.02235174447,-187500.02235174447,-187500.02235174447,-187500.02235174447
$SILENCE,24526.032748941514,-14462.562139339703,-20406.13685919486,-8283.601198625707,-187500.02235174447,-187500.02235174447,-187500.02235174447,-187500.02235174447
$SILENCE,24621.720566954682,-14371.188208006408,-20074.59343368929,-8184.739432899885,-187500.02235174447,-187500.02235174447,-187500.02235174447,-187500.02235174447
$SILENCE,24653.54945105904,-14339.64989657997,-19860.41901831854,-8165.963967557427,-187500.02235174447,-187500.02235174447,-187500.02235174447,-187500.02235174447
$SILENCE,24545.769339295548,-14449.888700233543,-20229.267505320015,-8283.981178281449,-187500.02235174447,-187500.02235174447,-187500.02235174447,-187500.02235174447
$SILENCE,24512.688757501695,-14472.821590044688,-20439.530365411087,-8287.78097483885,-187500.02235174447,-187500.02235174447,-187500.02235174447,-187500.02235174447
$SILENCE,24605.135572568845,-14383.146391289996,-20143.03447521144,-8177.408060718544,-187500.02235174447,-187500.02235174447,-187500.02235174447,-187500.02235174447
$SILENCE,24662.691314541258,-14334.017256977233,-19861.581309030214,-8144.439237646966,-187500.02235174447,-187500.02235174447,-187500.02235174447,-187500.02235174447
$SILENCE,24547.199850940688,-14432.320229091672,-20173.47755115957,-8278.795573567817,-187500.02235174447,-187500.02235174447,-187500.02235174447,-187500.02235174447
$SILENCE,24493.019222381023,-14483.908055294522,-20455.020124318617,-8309.193946027035,-187500.02235174447,-187500.02235174447,-187500.02235174447,-187500.02235174447
$SILENCE,24583.029697302547,-14403.888810144523,-20213.263656290015,-8188.025139334815,-187500.02235174447,-187500.02235174447,-187500.02235174447,-187500.02235174447
$SILENCE,24662.512500585617,-14332.184413931896,-19867.45981782196,-8119.628801301576,-187500.02235174447,-187500.02235174447,-187500.02235174447,-187500.02235174447
$SILENCE,24588.371764227362,-14414.170612593964,-20062.97052657253,-8219.988133905905,-187500.02235174447,-187500.02235174447,-187500.02235174447,-187500.02235174447
$SILENCE,24504.99975740907,-14487.529037896282,-20425.29230419306,-8281.567189880276,-187500.02235174447,-187500.02235174447,-187500.02235174447,-187500.02235174447
$SILENCE,24573.57490939795,-14424.228897598852,-20281.838808278895,-8226.470139797942,-187500.02235174447,-187500.02235174447,-187500.02235174447,-187500.02235174447
$SILENCE,24668.525119844096,-14341.795664047679,-19912.47623115495,-8151.99412727286,-187500.02235174447,-187500.02235174447,-187500.02235174447,-187500.02235174447
$SILENCE,24617.54079074154,-14395.886885629521,-19992.56253153831,-8215.987171648405,-187500.02235174447,-187500.02235174447,-187500.02235174447,-187500.02235174447
$SILENCE,24516.533257548006,-14495.06157577772,-20397.4643823462,-8276.940378778027,-187500.02235174447,-187500.02235174447,-187500.02235174447,-187500.02235174447
$SILENCE,24556.9452115232,-14442.691438518936,-20326.54229718951,-8211.24860182388,-187500.02235174447,-187500.02235174447,-187500.02235174447,-187500.02235174447
$SILENCE,24655.292887126554,-14347.31654492814,-19953.268164785884,-8140.818255045207,-187500.02235174447,-187500.02235174447,-187500.02235174447,-187500.02235174447
$SILENCE,24644.184070132265,-14378.921911587944,-19929.865888341177,-8201.123261585624,-187500.02235174447,-187500.02235174447,-187500.02235174447,-187500.02235174447
$SILENCE,24534.437004856707,-14487.082003007175,-20353.54320449152,-8299.40388195561,-187500.02235174447,-187500.02235174447,-187500.02235174447,-187500.02235174447
$SILENCE,24550.597316097894,-14461.24338641684,-20374.799713468517,-8246.072619685248,-187500.02235174447,-187500.02235174447,-187500.02235174447,-187500.02235174447
$SILENCE,24639.423148563284,-14371.65759463997,-20023.34088365327,-8156.66564186402,-187500.02235174447,-187500.02235174447,-187500.02235174447,-187500.02235174447
$SILENCE,24645.68163701077,-14370.651766139481,-19890.906797755575,-8155.749220341351,-187500.02235174447,-187500.02235174447,-187500.02235174447,-187500.02235174447
$SILENCE,24540.740196793104,-14483.8186483167,-20289.505456627066,-8262.545855348808,-187500.02235174447,-187500.02235174447,-187500.02235174447,-187500.02235174447
$SILENCE,24543.087129960913,-14472.709831322412,-20403.90168474933,-8242.161064405569,-187500.02235174447,-187500.02235174447,-187500.02235174447,-187500.02235174447
$SILENCE,24633.38817756035,-14380.397126721995,-20083.087096582305,-8154.050487762748,-187500.02235174447,-187500.02235174447,-187500.02235174447,-187500.02235174447
$SILENCE,24683.634899095883,-14355.027896765221,-19854.428750804516,-8148.239034204368,-187500.02235174447,-187500.02235174447,-187500.02235174447,-187500.02235174447
$SILENCE,24579.788694356525,-14465.400810885527,-20209.083880076872,-8267.753811806895,-187500.02235174447,-187500.02235174447,-187500.02235174447,-187500.02235174447
$SILENCE,24545.031731728523,-14485.62913961758,-20425.85109780444,-8260.824771025751,-187500.02235174447,-187500.02235174447,-187500.02235174447,-187500.02235174447
$SILENCE,24630.97418915918,-14400.714862431869,-20151.237565426538,-8155.6151098746195,-187500.02235174447,-187500.02235174447,-187500.02235174447,-187500.02235174447
$SILENCE,24682.07027698401,-14349.12703622902,-19861.782474730313,-8135.587946842665,-187500.02235174447,-187500.02235174447,-187500.02235174447,-187500.02235174447
$SILENCE,24591.88098810685,-14447.76528451029,-20134.384350107237,-8254.879207000638,-187500.02235174447,-187500.02235174447,-187500.02235174447,-187500.02235174447
$SILENCE,24535.643999057294,-14500.940084569465,-20432.958952541227,-8286.998663782915,-187500.02235174447,-187500.02235174447,-187500.02235174447,-187500.02235174447
$SILENCE,24600.9557963557,-14426.687589488934,-20229.71454020912,-8202.307904041756,-187500.02235174447,-187500.02235174447,-187500.02235174447,-187500.02235174447
$SILENCE,24679.745695560658,-14353.038591508699,-19887.464629109458,-8138.940708510961,-187500.02235174447,-187500.02235174447,-187500.02235174447,-187500.02235174447
$SILENCE,24623.642816977837,-14424.675932487957,-20052.688724123087,-8211.785043690807,-187500.02235174447,-187500.02235174447,-187500.02235174447,-187500.02235174447
$SILENCE,24546.551650351485,-14503.801107859745,-20417.6703593338,-8276.15806772209,-187500.02235174447,-187500.02235174447,-187500.02235174447,-187500.02235174447
$SILENCE,24597.938310854235,-14438.802234983712,-20284.5880728469,-8216.121282115137,-187500.02235174447,-187500.02235174447,-187500.02235174447,-187500.02235174447
$SILENCE,24680.796227550058,-14348.456483895361,-19917.214800979473,-8143.813388802218,-187500.02235174447,-187500.02235174447,-187500.02235174447,-187500.02235174447
$SILENCE,24641.479509053173,-14400.08901358712,-19972.445961528538,-8190.394424247078,-187500.02235174447,-187500.02235174447,-187500.02235174447,-187500.02235174447
$SILENCE,24545.43406312872,-14502.661168892524,-20384.16509439529,-8267.26207342888,-187500.02235174447,-187500.02235174447,-187500.02235174447,-187500.02235174447
$SILENCE,24584.66137464778,-14455.767209025289,-20336.354713005392,-8202.844345908683,-187500.02235174447,-187500.02235174447,-187500.02235174447,-187500.02235174447
$SILENCE,24678.40459089334,-14362.202806735375,-19972.155388850617,-8131.98931598536,-187500.02235174447,-187500.02235174447,-187500.02235174447,-187500.02235174447
$SILENCE,24656.16460516031,-14383.32520524564,-19927.965990062476,-8182.481906709899,-187500.02235174447,-187500.02235174447,-187500.02235174447,-187500.02235174447
$SILENCE,24541.187231682212,-14498.079061279186,-20354.526681247557,-8288.049195772313,-187500.02235174447,-187500.02235174447,-187500.02235174447,-187500.02235174447
$SILENCE,24563.203699970687,-14478.655395347525,-20388.88131247536,-8244.686811529018,-187500.02235174447,-187500.02235174447,-187500.02235174447,-187500.02235174447
$SILENCE,24666.804035521036,-14382.65465291198,-20026.090148221272,-8158.051450020248,-187500.02235174447,-187500.02235174447,-187500.02235174447,-187500.02235174447
$SILENCE,24688.798152065057,-14363.521559658237,-19869.113846911652,-8160.599548888154,-187500.02235174447,-187500.02235174447,-187500.02235174447,-187500.02235174447
$SILENCE,24571.786769841525,-14482.075212249187,-20273.52395934152,-8268.558474607287,-187500.02235174447,-187500.02235174447,-187500.02235174447,-187500.02235174447
$SILENCE,24551.33492366492,-14494.189857743962,-20426.052263504538,-8255.3485936342,-187500.02235174447,-187500.02235174447,-187500.02235174447,-187500.02235174447
$SILENCE,24648.296791112043,-14394.814001895667,-20100.275588068438,-8160.085458765681,-187500.02235174447,-187500.02235174447,-187500.02235174447,-187500.02235174447
$SILENCE,24693.35790793394,-14347.60711760606,-19851.947707169977,-8137.979583499383,-187500.02235174447,-187500.02235174447,-187500.02235174447,-187500.02235174447
$SILENCE,24584.191988014223,-14460.326964894173,-20196.5669031819,-8259.01427972487,-187500.02235174447,-187500.02235174447,-187500.02235174447,-187500.02235174447
$SILENCE,24545.881098017824,-14498.973131057399,-20437.56341189902,-8277.409765411589,-187500.02235174447,-187500.02235174447,-187500.02235174447,-187500.02235174447
$SILENCE,24631.935314170758,-14414.975275394354,-20172.024687769972,-8185.81231663374,-187500.02235174447,-187500.02235174447,-187500.02235174447,-187500.02235174447
$SILENCE,24684.663079340826,-14358.403010177972,-19868.532701555814,-8154.318708696212,-187500.02235174447,-187500.02235174447,-187500.02235174447,-187500.02235174447
$SILENCE,24598.25123527661,-14451.989764212343,-20119.676902255644,-8248.173683664047,-187500.02235174447,-187500.02235174447,-187500.02235174447,-187500.02235174447
$SILENCE,24546.082263717923,-14508.450270706448,-20426.789871071564,-8273.274692687357,-187500.02235174447,-187500.02235174447,-187500.02235174447,-187500.02235174447
$SILENCE,24608.510685981597,-14432.789615725234,-20235.414235045224,-8189.053319579759,-187500.02235174447,-187500.02235174447,-187500.02235174447,-187500.02235174447
$SILENCE,24689.35694567644,-14354.26793745374,-19890.616225077658,-8129.575327584187,-187500.02235174447,-187500.02235174447,-187500.02235174447,-187500.02235174447
$SILENCE,24615.752651185114,-14425.94998192191,-20048.844224076776,-8226.738360731408,-187500.02235174447,-187500.02235174447,-187500.02235174447,-187500.02235174447
$SILENCE,24526.859763486358,-14509.724320140402,-20426.968685027205,-8295.78289935385,-187500.02235174447,-187500.02235174447,-187500.02235174447,-187500.02235174447
$SILENCE,24592.14920904031,-14447.519415321281,-20296.523904386035,-8238.942413204004,-187500.02235174447,-187500.02235174447,-187500.02235174447,-187500.02235174447
$SILENCE,24680.148026960855,-14362.560434646659,-19931.877545342155,-8164.444048934466,-187500.02235174447,-187500.02235174447,-187500.02235174447,-187500.02235174447
$SILENCE,24634.2151921052,-14407.08510960163,-19976.558682508312,-8224.525538030332,-187500.02235174447,-187500.02235174447,-187500.02235174447,-187500.02235174447
$SILENCE,24531.33011237742,-14511.311293996729,-20393.932806722263,-8312.50200420642,-187500.02235174447,-187500.02235174447,-187500.02235174447,-187500.02235174447
$SILENCE,24563.96365928217,-14460.282261405262,-20365.434332541747,-8252.979308721937,-187500.02235174447,-187500.02235174447,-187500.02235174447,-187500.02235174447
$SILENCE,24673.956593746734,-14361.062867768154,-19986.90754019112,-8150.541263883265,-187500.02235174447,-187500.02235174447,-187500.02235174447,-187500.02235174447
$SILENCE,24674.895367013858,-14381.380603478028,-19898.059355981273,-8159.169037243014,-187500.02235174447,-187500.02235174447,-187500.02235174447,-187500.02235174447
$SILENCE,24556.408769656275,-14496.559142656226,-20317.31102672947,-8256.577939579242,-187500.02235174447,-187500.02235174447,-187500.02235174447,-187500.02235174447
$SILENCE,24563.360162181874,-14481.069383748698,-20392.56935031049,-8248.77718076434,-187500.02235174447,-187500.02235174447,-187500.02235174447,-187500.02235174447
$SILENCE,24646.17337538879,-14390.053080326687,-20061.383552716205,-8196.027063849815,-187500.02235174447,-187500.02235174447,-187500.02235174447,-187500.02235174447
$SILENCE,24665.105302942433,-14373.199865007386,-19890.325652399737,-8202.442014508488,-187500.02235174447,-187500.02235174447,-187500.02235174447,-187500.02235174447
$SILENCE,24567.405827928287,-14489.00425303033,-20264.695020281677,-8294.620608642175,-187500.02235174447,-187500.02235174447,-187500.02235174447,-187500.02235174447
$SILENCE,24560.745008080605,-14493.854581577132,-20422.878315791884,-8278.3038351898,-187500.02235174447,-187500.02235174447,-187500.02235174447,-187500.02235174447
$SILENCE,24650.241392879652,-14404.313493289173,-20115.966512676063,-8179.598531675164,-187500.02235174447,-187500.02235174447,-187500.02235174447,-187500.02235174447
$SILENCE,24693.067335256022,-14366.337879459606,-19860.664887507544,-8153.961080784927,-187500.02235174447,-187500.02235174447,-187500.02235174447,-187500.02235174447
$SILENCE,24584.01317405858,-14471.704002821923,-20190.08489728986,-8267.887922273627,-187500.02235174447,-187500.02235174447,-187500.02235174447,-187500.02235174447
$SILENCE,24535.420481612742,-14505.030453804786,-20448.649877148855,-8281.12015499117,-187500.02235174447,-187500.02235174447,-187500.02235174447,-187500.02235174447
$SILENCE,24616.043223863035,-14417.098691117608,-20193.147086280238,-8183.688900910485,-187500.02235174447,-187500.02235174447,-187500.02235174447,-187500.02235174447
$SILENCE,24684.84189329647,-14352.658611852958,-19876.780495259824,-8147.769647570807,-187500.02235174447,-187500.02235174447,-187500.02235174447,-187500.02235174447
$SILENCE,24590.80810437299,-14440.992705940333,-20119.16281213317,-8259.841294269716,-187500.02235174447,-187500.02235174447,-187500.02235174447,-187500.02235174447
$SILENCE,24522.90350471777,-14506.237448005373,-20456.33887724148,-8315.586544941252,-187500.02235174447,-187500.02235174447,-187500.02235174447,-187500.02235174447
$SILENCE,24600.91109286679,-14437.662296016491,-20272.49577909658,-8231.946317189493,-187500.02235174447,-187500.02235174447,-187500.02235174447,-187500.02235174447
$SILENCE,24693.78259107859,-14358.537120644703,-19902.75322231689,-8146.003859758838,-187500.02235174447,-187500.02235174447,-187500.02235174447,-187500.02235174447
$SILENCE,24638.73024448517,-14423.468938287371,-20020.233991173984,-8207.269991310834,-187500.02235174447,-187500.02235174447,-187500.02235174447,-187500.02235174447
$SILENCE,24549.300914919488,-14507.802070117245,-20408.23792317366,-8287.333939949744,-187500.02235174447,-187500.02235174447,-187500.02235174447,-187500.02235174447
$SILENCE,24595.72548815316,-14450.738066522845,-20314.517058672554,-8224.346724074689,-187500.02235174447,-187500.02235174447,-187500.02235174447,-187500.02235174447
$SILENCE,24675.45416062524,-14364.505036414272,-19957.60440321021,-8150.965947027916,-187500.02235174447,-187500.02235174447,-187500.02235174447,-187500.02235174447
$SILENCE,24651.426035335786,-14405.073452600653,-19969.7637521939,-8202.397311019577,-187500.02235174447,-187500.02235174447,-187500.02235174447,-187500.02235174447
$SILENCE,24554.575926610938,-14508.942009084465,-20377.884254203353,-8296.006416798404,-187500.02235174447,-187500.02235174447,-187500.02235174447,-187500.02235174447
$SILENCE,24574.58073789844,-14471.413430144004,-20375.716134991188,-8257.784933779829,-187500.02235174447,-187500.02235174447,-187500.02235174447,-187500.02235174447
$SILENCE,24668.59217507746,-14371.992870806798,-20008.25345614594,-8166.165133257525,-187500.02235174447,-187500.02235174447,-187500.02235174447,-187500.02235174447
$SILENCE,24677.84579728196,-14378.072545298643,-19905.927170029543,-8172.155400771547,-187500.02235174447,-187500.02235174447,-187500.02235174447,-187500.02235174447
$SILENCE,24559.895641791303,-14491.328834453683,-20330.342093746913,-8291.625474885162,-187500.02235174447,-187500.02235174447,-187500.02235174447,-187500.02235174447
$SILENCE,24559.649772602294,-14483.05868900522,-20422.051301247036,-8279.868457301673,-187500.02235174447,-187500.02235174447,-187500.02235174447,-187500.02235174447
$SILENCE,24664.54650933105,-14389.695452415403,-20075.01811683394,-8178.14566828557,-187500.02235174447,-187500.02235174447,-187500.02235174447,-187500.02235174447
$SILENCE,24691.659175355337,-14367.120190515541,-19878.769800516344,-8160.867769821617,-187500.02235174447,-187500.02235174447,-187500.02235174447,-187500.02235174447
$SILENCE,24573.19492974221,-14484.846828561644,-20259.487063823588,-8272.626492098152,-187500.02235174447,-187500.02235174447,-187500.02235174447,-187500.02235174447
$SILENCE,24544.964676495158,-14500.448346191448,-20451.399141716855,-8279.622588112663,-187500.02235174447,-187500.02235174447,-187500.02235174447,-187500.02235174447
$SILENCE,24639.847831707935,-14410.19200208092,-20151.7069520601,-8193.188392303991,-187500.02235174447,-187500.02235174447,-187500.02235174447,-187500.02235174447
$SILENCE,24704.802001095057,-14360.45937066786,-19864.196463131484,-8157.9620430424275,-187500.02235174447,-187500.02235174447,-187500.02235174447,-187500.02235174447
$SILENCE,24606.409622002797,-14464.126761451575,-20173.254033715017,-8271.06186998628,-187500.02235174447,-187500.02235174447,-187500.02235174447,-187500.02235174447
$SILENCE,24552.363103909865,-14509.143174784564,-20454.707199896242,-8299.336826722245,-187500.02235174447,-187500.02235174447,-187500.02235174447,-187500.02235174447
$SILENCE,24629.521325769583,-14423.84891794311,-20214.448298746145,-8202.57612497522,-187500.02235174447,-187500.02235174447,-187500.02235174447,-187500.02235174447
$SILENCE,24701.85157082696,-14349.283498440207,-19877.294585382293,-8145.46741789191,-187500.02235174447,-187500.02235174447,-187500.02235174447,-187500.02235174447
$SILENCE,24619.284226809054,-14433.773092481268,-20092.608939720267,-8240.77525624934,-187500.02235174447,-187500.02235174447,-187500.02235174447,-187500.02235174447
$SILENCE,24541.790728782504,-14507.757366628333,-20447.398179459356,-8295.82760284276,-187500.02235174447,-187500.02235174447,-187500.02235174447,-187500.02235174447
$SILENCE,24605.403793502308,-14436.835281471645,-20276.317927398435,-8209.594572734186,-187500.02235174447,-187500.02235174447,-187500.02235174447,-187500.02235174447
$SILENCE,24692.866169555924,-14356.8383880661,-19913.549114888803,-8142.271118434802,-187500.02235174447,-187500.02235174447,-187500.02235174447,-187500.02235174447
$SILENCE,24632.315293826498,-14417.635132984537,-20024.458470876038,-8220.01048565036,-187500.02235174447,-187500.02235174447,-187500.02235174447,-187500.02235174447
$SILENCE,24543.19888868319,-14505.701006138446,-20418.22915294518,-8297.146355765624,-187500.02235174447,-187500.02235174447,-187500.02235174447,-187500.02235174447
$SILENCE,24592.640947418327,-14458.225900915373,-20334.58892519342,-8233.734456745919,-187500.02235174447,-187500.02235174447,-187500.02235174447,-187500.02235174447
não,24681.89146302837,-14368.528350416227,-19964.37698178017,-8154.274005207301,-187500.02235174447,-187500.02235174447,-187500.02235174447,-187500.02235174447
não,24660.67965754028,-14399.887847887023,-19954.229289797462,-8203.939581386994,-187500.02235174447,-187500.02235174447,-187500.02235174447,-187500.02235174447
não,24553.592449854907,-14509.277285251295,-20375.380858824356,-8303.382492468654,-187500.02235174447,-187500.02235174447,-187500.02235174447,-187500.02235174447
não,24569.30572620699,-14483.77394482779,-20390.222417142682,-8258.969576235959,-187500.02235174447,-187500.02235174447,-187500.02235174447,-187500.02235174447
não,24663.16070117482,-14382.811115123168,-20026.96186625503,-8160.4877901658765,-187500.02235174447,-187500.02235174447,-187500.02235174447,-187500.02235174447
não,24675.431808880785,-14370.651766139481,-19900.585103104724,-8170.635482148587,-187500.02235174447,-187500.02235174447,-187500.02235174447,-187500.02235174447
não,24562.019057514557,-14482.566950627202,-20315.008797050574,-8300.275599989367,-187500.02235174447,-187500.02235174447,-187500.02235174447,-187500.02235174447
não,24561.639077858817,-14478.610691858614,-20425.627580359887,-8289.16678299508,-187500.02235174447,-187500.02235174447,-187500.02235174447,-187500.02235174447
não,24658.06450343901,-14385.158048290974,-20087.088058839807,-8173.965892072427,-187500.02235174447,-187500.02235174447,-187500.02235174447,-187500.02235174447
não,24688.84285555397,-14358.023030522232,-19871.192559145995,-8156.576234886198,-187500.02235174447,-187500.02235174447,-187500.02235174447,-187500.02235174447
não,24576.994726299614,-14477.046069746742,-20240.309267080935,-8271.397146153111,-187500.02235174447,-187500.02235174447,-187500.02235174447,-187500.02235174447
não,24543.534164850018,-14506.975055572399,-20454.707199896242,-8286.328111449255,-187500.02235174447,-187500.02235174447,-187500.02235174447,-187500.02235174447
não,24623.620465233384,-14420.026769641254,-20174.729248849064,-8210.2874768123,-187500.02235174447,-187500.02235174447,-187500.02235174447,-187500.02235174447
não,24687.769971820115,-14361.621661379537,-19877.004012704376,-8175.306996739745,-187500.02235174447,-187500.02235174447,-187500.02235174447,-187500.02235174447
não,24600.464057977686,-14450.559252567204,-20158.635992841246,-8271.68771883103,-187500.02235174447,-187500.02235174447,-187500.02235174447,-187500.02235174447
não,24539.84612701489,-14497.29675022325,-20455.176586529804,-8296.252285987412,-187500.02235174447,-187500.02235174447,-187500.02235174447,-187500.02235174447
não,24611.282302294054,-14418.506851018294,-20229.8262989314,-8205.705369198962,-187500.02235174447,-187500.02235174447,-187500.02235174447,-187500.02235174447
não,24695.235454468188,-14343.650858837469,-19876.8922539821,-8141.75702831233,-187500.02235174447,-187500.02235174447,-187500.02235174447,-187500.02235174447
não,24629.946008914234,-14426.70994123339,-20069.92191909813,-8243.368058606155,-187500.02235174447,-187500.02235174447,-187500.02235174447,-187500.02235174447
não,24536.98510372461,-14506.863296850122,-20445.319467225014,-8307.226992514967,-187500.02235174447,-187500.02235174447,-187500.02235174447,-187500.02235174447
não,24586.382458970842,-14444.747799008823,-20306.82805857993,-8225.91134618656,-187500.02235174447,-187500.02235174447,-187500.02235174447,-187500.02235174447
não,24671.944936745756,-14357.55364388867,-19940.684132657545,-8158.677298864997,-187500.02235174447,-187500.02235174447,-187500.02235174447,-187500.02235174447
não,24627.174392601777,-14408.180345079942,-20005.839467744765,-8205.258334309858,-187500.02235174447,-187500.02235174447,-187500.02235174447,-187500.02235174447
não,24539.264981659053,-14509.67961665149,-20407.008577228615,-8283.534143392342,-187500.02235174447,-187500.02235174447,-187500.02235174447,-187500.02235174447
não,24579.09579027841,-14462.450380617427,-20360.606355739397,-8255.192131423013,-187500.02235174447,-187500.02235174447,-187500.02235174447,-187500.02235174447
não,24665.84291050946,-14363.32039395814,-19997.43521182957,-8186.2593515228455,-187500.02235174447,-187500.02235174447,-187500.02235174447,-187500.02235174447
não,24637.1656223733,-14383.213446523363,-19968.199130082026,-8229.241756110401,-187500.02235174447,-187500.02235174447,-187500.02235174447,-187500.02235174447
não,24503.815114952937,-14496.313273467216,-20405.265141161104,-8338.318269052299,-187500.02235174447,-187500.02235174447,-187500.02235174447,-187500.02235174447
não,24541.05312121548,-14467.792447542244,-20417.402138400335,-8268.089087973725,-187500.02235174447,-187500.02235174447,-187500.02235174447,-187500.02235174447
não,24660.74671277365,-14367.276652726729,-20037.668351849123,-8150.18363597198,-187500.02235174447,-187500.02235174447,-187500.02235174447,-187500.02235174447
não,24674.56009084703,-14360.235853223307,-19893.432544879026,-8157.537359897776,-187500.02235174447,-187500.02235174447,-187500.02235174447,-187500.02235174447
não,24553.81596729946,-14481.739936082357,-20302.938855044707,-8273.095878731714,-187500.02235174447,-187500.02235174447,-187500.02235174447,-187500.02235174447
não,24533.364121122853,-14489.20541873043,-20450.035685305083,-8273.20763745399,-187500.02235174447,-187500.02235174447,-187500.02235174447,-187500.02235174447
não,24608.577741214962,-14389.382527993028,-20149.739998548033,-8200.787985418796,-187500.02235174447,-187500.02235174447,-187500.02235174447,-187500.02235174447
não,24649.660247523814,-14344.857853038056,-19913.817335822267,-8177.318653740723,-187500.02235174447,-187500.02235174447,-187500.02235174447,-187500.02235174447
não,24548.47390037464,-14461.62336607258,-20255.68726726619,-8278.795573567817,-187500.02235174447,-187500.02235174447,-187500.02235174447,-187500.02235174447
não,24506.094992887378,-14493.899285066043,-20487.988947390193,-8296.900486576616,-187500.02235174447,-187500.02235174447,-187500.02235174447,-187500.02235174447
não,24599.48058122165,-14398.099708330597,-20206.58048469788,-8201.614999963642,-187500.02235174447,-187500.02235174447,-187500.02235174447,-187500.02235174447
não,24668.525119844096,-14332.899669754466,-19900.02630949334,-8151.904720295039,-187500.02235174447,-187500.02235174447,-187500.02235174447,-187500.02235174447
não,24570.177444240744,-14429.548612779214,-20176.159760494204,-8257.136733190624,-187500.02235174447,-187500.02235174447,-187500.02235174447,-187500.02235174447
não,24495.924949160213,-14495.910942067021,-20496.259092838656,-8302.019036056881,-187500.02235174447,-187500.02235174447,-187500.02235174447,-187500.02235174447
não,24568.925746551246,-14421.680798730946,-20289.57251186043,-8229.4429218105,-187500.02235174447,-187500.02235174447,-187500.02235174447,-187500.02235174447
não,24652.387160347364,-14349.350553673572,-19940.170042535072,-8184.337101499689,-187500.02235174447,-187500.02235174447,-187500.02235174447,-187500.02235174447
não,24583.744953125115,-14413.030673626743,-20112.680806241133,-8270.078393230247,-187500.02235174447,-187500.02235174447,-187500.02235174447,-187500.02235174447
não,24506.631434754305,-14488.57956988568,-20482.535121743098,-8302.846050601727,-187500.02235174447,-187500.02235174447,-187500.02235174447,-187500.02235174447
não,24578.894624578315,-14438.824586728168,-20332.577268192443,-8218.423511794033,-187500.02235174447,-187500.02235174447,-187500.02235174447,-187500.02235174447
não,24669.016858222112,-14356.07842875462,-19955.57039446478,-8147.1661504705135,-187500.02235174447,-187500.02235174447,-187500.02235174447,-187500.02235174447
não,24620.334758798454,-14397.339749019116,-20007.940531723565,-8202.62082846413,-187500.02235174447,-187500.02235174447,-187500.02235174447,-187500.02235174447
não,24509.559513277953,-14492.736994354367,-20427.885106549875,-8287.49040216093,-187500.02235174447,-187500.02235174447,-187500.02235174447,-187500.02235174447
não,24537.543897335996,-14452.369743868083,-20393.59753055543,-8243.68098302853,-187500.02235174447,-187500.02235174447,-187500.02235174447,-187500.02235174447
não,24631.53298277056,-14353.55268163117,-20025.48665112098,-8158.207912231435,-187500.02235174447,-187500.02235174447,-187500.02235174447,-187500.02235174447
não,24614.612712217895,-14377.357289476073,-19968.892034160144,-8190.7744039028175,-187500.02235174447,-187500.02235174447,-187500.02235174447,-187500.02235174447
não,24494.740306704083,-14491.530000153782,-20391.94350146574,-8297.705149377007,-187500.02235174447,-187500.02235174447,-187500.02235174447,-187500.02235174447
não,24514.409841824752,-14465.736087052357,-20435.90938280933,-8254.186302922524,-187500.02235174447,-187500.02235174447,-187500.02235174447,-187500.02235174447
não,24621.742918699136,-14372.998699307287,-20077.342698257293,-8152.75408658434,-187500.02235174447,-187500.02235174447,-187500.02235174447,-187500.02235174447
não,24639.95959043021,-14358.559472389159,-19919.762899847377,-8150.653022605542,-187500.02235174447,-187500.02235174447,-187500.02235174447,-187500.02235174447
não,24514.52160054703,-14472.620424344592,-20323.793032621506,-8275.040480499325,-187500.02235174447,-187500.02235174447,-187500.02235174447,-187500.02235174447
não,24500.350594562366,-14479.236540703361,-20475.270804795124,-8268.82669554075,-187500.02235174447,-187500.02235174447,-187500.02235174447,-187500.02235174447
não,24588.01413631608,-14385.18040003543,-20164.112170232795,-8167.7074036249405,-187500.02235174447,-187500.02235174447,-187500.02235174447,-187500.02235174447
não,24630.34834031443,-14353.530329886715,-19915.27019921186,-8144.662755091519,-187500.02235174447,-187500.02235174447,-187500.02235174447,-187500.02235174447
não,24529.094937931888,-14466.026659730276,-20247.260659606538,-8261.987061737425,-187500.02235174447,-187500.02235174447,-187500.02235174447,-187500.02235174447
não,24498.070716627924,-14495.463907177915,-20485.597310733476,-8271.955939764493,-187500.02235174447,-187500.02235174447,-187500.02235174447,-187500.02235174447
não,24587.38828747133,-14394.769298406756,-20219.7233104376,-8182.951293343461,-187500.02235174447,-187500.02235174447,-187500.02235174447,-187500.02235174447
não,24649.570840545995,-14332.206765676352,-19906.307149685283,-8141.377048656589,-187500.02235174447,-187500.02235174447,-187500.02235174447,-187500.02235174447
não,24554.1959469552,-14437.930516949955,-20158.635992841246,-8234.203843379479,-187500.02235174447,-187500.02235174447,-187500.02235174447,-187500.02235174447
não,24478.98232686309,-14500.694215380458,-20494.91798817134,-8283.802364325806,-187500.02235174447,-187500.02235174447,-187500.02235174447,-187500.02235174447
não,24555.76056906707,-14420.630266741548,-20301.955378288672,-8203.514898242343,-187500.02235174447,-187500.02235174447,-187500.02235174447,-187500.02235174447
não,24650.129634157376,-14340.543966358182,-19934.827975610253,-8122.4451211029445,-187500.02235174447,-187500.02235174447,-187500.02235174447,-187500.02235174447
não,24588.505874694096,-14413.924743404956,-20073.36408774425,-8188.025139334815,-187500.02235174447,-187500.02235174447,-187500.02235174447,-187500.02235174447
não,24494.695603215172,-14506.438613705472,-20465.503092468156,-8268.245550184913,-187500.02235174447,-187500.02235174447,-187500.02235174447,-187500.02235174447
não,24543.75768229457,-14440.90329896251,-20357.007724882096,-8216.411854793056,-187500.02235174447,-187500.02235174447,-187500.02235174447,-187500.02235174447
não,24639.557259030018,-14349.84229205159,-19990.014432670407,-8151.61414761712,-187500.02235174447,-187500.02235174447,-187500.02235174447,-187500.02235174447
não,24608.28716853704,-14390.65657742698,-20017.66354056162,-8207.761729688851,-187500.02235174447,-187500.02235174447,-187500.02235174447,-187500.02235174447
não,24504.105687630858,-14500.604808402635,-20432.936600796773,-8300.11913777818,-187500.02235174447,-187500.02235174447,-187500.02235174447,-187500.02235174447
não,24536.694531046694,-14462.092752706141,-20404.192257427247,-8232.48275905642,-187500.02235174447,-187500.02235174447,-187500.02235174447,-187500.02235174447
não,24635.44453805024,-14363.499207913783,-20035.477880892504,-8138.851301533139,-187500.02235174447,-187500.02235174447,-187500.02235174447,-187500.02235174447
não,24623.30754081101,-14376.105591786576,-19963.43820851305,-8177.877447352105,-187500.02235174447,-187500.02235174447,-187500.02235174447,-187500.02235174447
não,24508.531333033006,-14494.234561232874,-20384.835646728952,-8284.472916659464,-187500.02235174447,-187500.02235174447,-187500.02235174447,-187500.02235174447
não,24527.060929186457,-14472.128685966574,-20451.309734739036,-8253.225177910947,-187500.02235174447,-187500.02235174447,-187500.02235174447,-187500.02235174447
não,24635.533945028063,-14373.870417341044,-20096.766364188956,-8152.284699950779,-187500.02235174447,-187500.02235174447,-187500.02235174447,-187500.02235174447
não,24660.322029629,-14359.900577056478,-19911.023367765352,-8164.108772767637,-187500.02235174447,-187500.02235174447,-187500.02235174447,-187500.02235174447
não,24540.181403181723,-14469.871159776589,-20297.172104975238,-8286.59633238272,-187500.02235174447,-187500.02235174447,-187500.02235174447,-187500.02235174447
não,24514.32043484693,-14477.806029058222,-20477.081296096003,-8274.772259565862,-187500.02235174447,-187500.02235174447,-187500.02235174447,-187500.02235174447
não,24602.229845789654,-14399.910199631477,-20177.74673435053,-8178.927979341505,-187500.02235174447,-187500.02235174447,-187500.02235174447,-187500.02235174447
não,24658.422131350297,-14353.64208860899,-19910.196353220505,-8134.224490430891,-187500.02235174447,-187500.02235174447,-187500.02235174447,-187500.02235174447
não,24567.562290139474,-14452.43679910145,-20218.739833681564,-8248.151331919591,-187500.02235174447,-187500.02235174447,-187500.02235174447,-187500.02235174447
não,24534.74992927908,-14495.86623857811,-20473.10268558296,-8286.663387616085,-187500.02235174447,-187500.02235174447,-187500.02235174447,-187500.02235174447
não,24612.891627894835,-14414.952923649898,-20224.506583751034,-8199.804508662763,-187500.02235174447,-187500.02235174447,-187500.02235174447,-187500.02235174447
não,24676.21411993672,-14339.31462041314,-19900.674510082546,-8139.208929444424,-187500.02235174447,-187500.02235174447,-187500.02235174447,-187500.02235174447
não,24598.67591842126,-14424.318304576673,-20119.565143533368,-8236.43901782501,-187500.02235174447,-187500.02235174447,-187500.02235174447,-187500.02235174447
não,24517.382623837308,-14498.749613612845,-20463.379676744902,-8297.146355765624,-187500.02235174447,-187500.02235174447,-187500.02235174447,-187500.02235174447
não,24583.63319440284,-14429.19098486793,-20286.644433336787,-8204.028988364815,-187500.02235174447,-187500.02235174447,-187500.02235174447,-187500.02235174447
não,24664.099474441944,-14350.043457751688,-19936.169080277574,-8125.015571715305,-187500.02235174447,-187500.02235174447,-187500.02235174447,-187500.02235174447
não,24600.68757542224,-14407.912124146478,-20054.20864274605,-8211.62858147962,-187500.02235174447,-187500.02235174447,-187500.02235174447,-187500.02235174447
não,24511.548818534473,-14497.654378134535,-20441.56437415652,-8302.980161068459,-187500.02235174447,-187500.02235174447,-187500.02235174447,-187500.02235174447
não,24571.630307630337,-14441.931479207455,-20339.5510124625,-8228.504148543376,-187500.02235174447,-187500.02235174447,-187500.02235174447,-187500.02235174447
não,24662.82542500799,-14347.383600161505,-19972.602423739725,-8140.192406200458,-187500.02235174447,-187500.02235174447,-187500.02235174447,-187500.02235174447
não,24632.002369404123,-14380.08420229962,-19971.79776093933,-8173.4294502055,-187500.02235174447,-187500.02235174447,-187500.02235174447,-187500.02235174447
não,24519.640150027295,-14493.184029243474,-20393.776344511076,-8260.958881492483,-187500.02235174447,-187500.02235174447,-187500.02235174447,-187500.02235174447
não,24553.10071147689,-14458.29295614874,-20388.926015964273,-8228.593555521198,-187500.02235174447,-187500.02235174447,-187500.02235174447,-187500.02235174447
não,24653.437692336764,-14356.950146788377,-20023.854973775742,-8154.542226140765,-187500.02235174447,-187500.02235174447,-187500.02235174447,-187500.02235174447
não,24649.950820201735,-14359.140617744997,-19924.814394094275,-8184.806488133251,-187500.02235174447,-187500.02235174447,-187500.02235174447,-187500.02235174447
não,24532.581810066917,-14477.157828469019,-20336.488823472122,-8289.770280095372,-187500.02235174447,-187500.02235174447,-187500.02235174447,-187500.02235174447
não,24529.51962107654,-14472.419258644493,-20435.104720008938,-8261.405916381587,-187500.02235174447,-187500.02235174447,-187500.02235174447,-187500.02235174447
não,24611.59522671643,-14378.60898716557,-20110.17741086214,-8167.841514091673,-187500.02235174447,-187500.02235174447,-187500.02235174447,-187500.02235174447
não,24636.24920085063,-14341.683905325403,-19912.252713710393,-8153.782266829285,-187500.02235174447,-187500.02235174447,-187500.02235174447,-187500.02235174447
não,24530.48074608812,-14450.33573512265,-20276.317927398435,-8267.664404829075,-187500.02235174447,-187500.02235174447,-187500.02235174447,-187500.02235174447
não,24514.163972635746,-14477.783677313768,-20459.468121465223,-8266.993852495414,-187500.02235174447,-187500.02235174447,-187500.02235174447,-187500.02235174447
não,24606.275511536063,-14386.32033900265,-20167.84491155683,-8183.778307888307,-187500.02235174447,-187500.02235174447,-187500.02235174447,-187500.02235174447
não,24669.1733204333,-14334.888975010988,-19886.034117464318,-8145.445066147455,-187500.02235174447,-187500.02235174447,-187500.02235174447,-187500.02235174447
não,24562.86842380386,-14444.278412375263,-20190.017842056495,-8253.96278547797,-187500.02235174447,-187500.02235174447,-187500.02235174447,-187500.02235174447
não,24499.61298699534,-14488.15488674103,-20479.830560664006,-8289.278541717356,-187500.02235174447,-187500.02235174447,-187500.02235174447,-187500.02235174447
não,24578.000554800103,-14401.474821743348,-20246.701865995154,-8185.253523022357,-187500.02235174447,-187500.02235174447,-187500.02235174447,-187500.02235174447
não,24659.964401717712,-14328.049341207665,-19903.893161284108,-8130.4917491068545,-187500.02235174447,-187500.02235174447,-187500.02235174447,-187500.02235174447
não,24573.843130331414,-14411.600161981603,-20111.250294595993,-8236.930756203026,-187500.02235174447,-187500.02235174447,-187500.02235174447,-187500.02235174447
não,24499.2330073396,-14483.572779127691,-20468.542929714076,-8295.604085398209,-187500.02235174447,-187500.02235174447,-187500.02235174447,-187500.02235174447
não,24560.47678714714,-14418.640961485025,-20310.873724326342,-8204.587781976197,-187500.02235174447,-187500.02235174447,-187500.02235174447,-187500.02235174447
não,24645.74869224414,-14334.866623266535,-19942.919307103075,-8136.683182320975,-187500.02235174447,-187500.02235174447,-187500.02235174447,-187500.02235174447
não,24575.117179765366,-14390.410708237972,-20060.288317237893,-8235.746113746896,-187500.02235174447,-187500.02235174447,-187500.02235174447,-187500.02235174447
não,24484.36909727682,-14485.740898339856,-20459.24460402067,-8317.955829853516,-187500.02235174447,-187500.02235174447,-187500.02235174447,-187500.02235174447
não,24554.017132999557,-14436.075322160164,-20359.55582375,-8241.781084749828,-187500.02235174447,-187500.02235174447,-187500.02235174447,-187500.02235174447
não,24652.25304988063,-14342.242698936785,-19984.314737834306,-8147.769647570807,-187500.02235174447,-187500.02235174447,-187500.02235174447,-187500.02235174447
não,24619.21717157569,-14369.757696361268,-19969.875510916176,-8185.655854422553,-187500.02235174447,-187500.02235174447,-187500.02235174447,-187500.02235174447
não,24507.19022836569,-14480.734107581868,-20398.827838757974,-8294.441794686532,-187500.02235174447,-187500.02235174447,-187500.02235174447,-187500.02235174447
não,24529.407862354263,-14450.134569422553,-20424.353530925935,-8257.829637268738,-187500.02235174447,-187500.02235174447,-187500.02235174447,-187500.02235174447
não,24623.195782088733,-14352.971536275332,-20060.601241660268,-8160.823066332707,-187500.02235174447,-187500.02235174447,-187500.02235174447,-187500.02235174447
não,24627.68848272425,-14347.60711760606,-19931.788138364333,-8175.239941506379,-187500.02235174447,-187500.02235174447,-187500.02235174447,-187500.02235174447
não,24509.85008595587,-14461.936290494954,-20342.479090986144,-8282.304797447301,-187500.02235174447,-187500.02235174447,-187500.02235174447,-187500.02235174447
não,24506.497324287575,-14461.511607350303,-20454.23781326268,-8245.424419096043,-187500.02235174447,-187500.02235174447,-187500.02235174447,-187500.02235174447
não,24592.640947418327,-14367.723687615835,-20130.159870405183,-8161.828894833196,-187500.02235174447,-187500.02235174447,-187500.02235174447,-187500.02235174447
não,24634.729282227672,-14337.727646556814,-19906.7988880633,-8163.572330900709,-187500.02235174447,-187500.02235174447,-187500.02235174447,-187500.02235174447
não,24542.014246227056,-14445.440703086937,-20256.91661321123,-8273.766431065373,-187500.02235174447,-187500.02235174447,-187500.02235174447,-187500.02235174447
não,24508.41957431073,-14469.893511521044,-20477.014240862638,-8283.40003292561,-187500.02235174447,-187500.02235174447,-187500.02235174447,-187500.02235174447
não,24588.01413631608,-14381.917045344955,-20200.254941017025,-8187.466345723432,-187500.02235174447,-187500.02235174447,-187500.02235174447,-187500.02235174447
não,24648.9673434457,-14326.998809218267,-19902.909684528076,-8153.2681767068125,-187500.02235174447,-187500.02235174447,-187500.02235174447,-187500.02235174447
não,24556.498176634097,-14424.742987721324,-20182.440600686146,-8253.761619777873,-187500.02235174447,-187500.02235174447,-187500.02235174447,-187500.02235174447
não,24492.99687063657,-14474.229749945373,-20486.24551132268,-8289.613817884185,-187500.02235174447,-187500.02235174447,-187500.02235174447,-187500.02235174447
não,24560.141510980313,-14396.8480106411,-20273.747476786077,-8204.900706398572,-187500.02235174447,-187500.02235174447,-187500.02235174447,-187500.02235174447
