WORD,Channel_1,Channel_2,Channel_3,Channel_4,Channel_5,Channel_6,Channel_7,Channel_8
$SILENCE,22939.90825890401,-14752.531320158401,-20679.409286905444,-8677.237770228121,-187500.02235174447,-187500.02235174447,-187500.02235174447,-187500.02235174447
$SILENCE,23005.93531202499,-14718.981351730985,-20390.490638076146,-8622.543051545985,-187500.02235174447,-187500.02235174447,-187500.02235174447,-187500.02235174447
$SILENCE,22892.366098447575,-14806.913114418163,-20692.797981834174,-8727.216270830188,-187500.02235174447,-187500.02235174447,-187500.02235174447,-187500.02235174447
$SILENCE,22827.09900463808,-14843.07823694685,-20980.844912629713,-8768.388184116862,-187500.02235174447,-187500.02235174447,-187500.02235174447,-187500.02235174447
$SILENCE,22908.43700271094,-14774.771305891432,-20751.806587196184,-8675.874313816346,-187500.02235174447,-187500.02235174447,-187500.02235174447,-187500.02235174447
$SILENCE,22982.913015236023,-14724.122252955707,-20425.068786748503,-8644.447761112186,-187500.02235174447,-187500.02235174447,-187500.02235174447,-187500.02235174447
$SILENCE,22881.234929708833,-14800.296998059393,-20656.789321516673,-8769.863399250913,-187500.02235174447,-187500.02235174447,-187500.02235174447,-187500.02235174447
$SILENCE,22809.485830007296,-14844.039361958428,-20997.273444804367,-8808.93424855879,-187500.02235174447,-187500.02235174447,-187500.02235174447,-187500.02235174447
$SILENCE,22905.844200354124,-14775.553616947367,-20795.772468539773,-8698.874258860858,-187500.02235174447,-187500.02235174447,-187500.02235174447,-187500.02235174447
$SILENCE,23006.404698658553,-14708.990121959463,-20421.313693680015,-8607.142699616277,-187500.02235174447,-187500.02235174447,-187500.02235174447,-187500.02235174447
$SILENCE,22940.44470077094,-14769.116314544239,-20535.799328780096,-8680.545828407507,-187500.02235174447,-187500.02235174447,-187500.02235174447,-187500.02235174447
$SILENCE,22829.42358606143,-14848.84498701632,-20949.86539481466,-8796.50667864164,-187500.02235174447,-187500.02235174447,-187500.02235174447,-187500.02235174447
$SILENCE,22874.641165094516,-14803.135669605217,-20870.986088631882,-8735.844044189937,-187500.02235174447,-187500.02235174447,-187500.02235174447,-187500.02235174447
$SILENCE,22969.949003451944,-14732.235936192983,-20504.19396212029,-8648.158150691766,-187500.02235174447,-187500.02235174447,-187500.02235174447,-187500.02235174447
$SILENCE,22930.118194832587,-14761.114390029239,-20507.30085459958,-8707.300866520509,-187500.02235174447,-187500.02235174447,-187500.02235174447,-187500.02235174447
$SILENCE,22829.736510483803,-14839.479606089546,-20912.895609485582,-8800.015902521123,-187500.02235174447,-187500.02235174447,-187500.02235174447,-187500.02235174447
$SILENCE,22871.377810404043,-14814.512707532967,-20900.490391312887,-8732.535986010551,-187500.02235174447,-187500.02235174447,-187500.02235174447,-187500.02235174447
$SILENCE,22972.251233130843,-14731.900660026153,-20540.649657326896,-8642.324345388932,-187500.02235174447,-187500.02235174447,-187500.02235174447,-187500.02235174447
$SILENCE,22967.847939473148,-14735.499290883457,-20436.311714209525,-8668.38647942382,-187500.02235174447,-187500.02235174447,-187500.02235174447,-187500.02235174447
$SILENCE,22841.448824578387,-14838.451425844602,-20852.36708550061,-8792.326902428496,-187500.02235174447,-187500.02235174447,-187500.02235174447,-187500.02235174447
$SILENCE,22840.554754800174,-14828.08021641734,-20951.653534371082,-8741.052000648022,-187500.02235174447,-187500.02235174447,-187500.02235174447,-187500.02235174447
$SILENCE,22927.39128200904,-14742.696552598067,-20623.641684489452,-8639.463322098652,-187500.02235174447,-187500.02235174447,-187500.02235174447,-187500.02235174447
$SILENCE,22974.01702094281,-14726.469186123513,-20412.440051131256,-8670.174618980243,-187500.02235174447,-187500.02235174447,-187500.02235174447,-187500.02235174447
$SILENCE,22869.61202259207,-14820.570030280356,-20776.572320052663,-8791.388129161374,-187500.02235174447,-187500.02235174447,-187500.02235174447,-187500.02235174447
$SILENCE,22838.76661524375,-14844.46404510308,-20976.70983990548,-8768.857570750424,-187500.02235174447,-187500.02235174447,-187500.02235174447,-187500.02235174447
$SILENCE,22927.59244770914,-14767.194064521083,-20681.108019484047,-8667.71592709016,-187500.02235174447,-187500.02235174447,-187500.02235174447,-187500.02235174447
$SILENCE,22995.60880608664,-14715.762700529422,-20392.055260188015,-8652.069705971446,-187500.02235174447,-187500.02235174447,-187500.02235174447,-187500.02235174447
$SILENCE,22896.702336871906,-14802.88980041621,-20685.645423608476,-8761.436791591263,-187500.02235174447,-187500.02235174447,-187500.02235174447,-187500.02235174447
$SILENCE,22830.272952350733,-14843.257050902494,-20981.180188796545,-8779.742870300159,-187500.02235174447,-187500.02235174447,-187500.02235174447,-187500.02235174447
$SILENCE,22905.01718580928,-14775.665375669645,-20754.622906997552,-8686.044357543511,-187500.02235174447,-187500.02235174447,-187500.02235174447,-187500.02235174447
$SILENCE,22982.421276858007,-14712.186421416573,-20419.682016334777,-8637.295202886487,-187500.02235174447,-187500.02235174447,-187500.02235174447,-187500.02235174447
$SILENCE,22905.57597942066,-14779.912207116153,-20618.254914075722,-8719.326105037464,-187500.02235174447,-187500.02235174447,-187500.02235174447,-187500.02235174447
$SILENCE,22814.85024867657,-14852.264803917982,-20983.124790564158,-8764.923663726291,-187500.02235174447,-187500.02235174447,-187500.02235174447,-187500.02235174447
$SILENCE,22893.595444392617,-14794.97728287903,-20813.139773981547,-8698.896610605314,-187500.02235174447,-187500.02235174447,-187500.02235174447,-187500.02235174447
$SILENCE,22987.53982633827,-14716.76852902991,-20446.146481769858,-8642.771380278038,-187500.02235174447,-187500.02235174447,-187500.02235174447,-187500.02235174447
$SILENCE,22938.947133892434,-14762.567253418834,-20543.3989218949,-8736.022858145578,-187500.02235174447,-187500.02235174447,-187500.02235174447,-187500.02235174447
$SILENCE,22832.99986517428,-14844.821673014365,-20950.491243659406,-8806.564963646528,-187500.02235174447,-187500.02235174447,-187500.02235174447,-187500.02235174447
$SILENCE,22873.076542982646,-14806.287265573415,-20877.84807417966,-8721.404817271807,-187500.02235174447,-187500.02235174447,-187500.02235174447,-187500.02235174447
$SILENCE,22963.06466615971,-14722.512927354925,-20508.418441822345,-8649.94629024819,-187500.02235174447,-187500.02235174447,-187500.02235174447,-187500.02235174447
$SILENCE,22950.54768926474,-14740.193157219072,-20481.81986592053,-8709.267820032575,-187500.02235174447,-187500.02235174447,-187500.02235174447,-187500.02235174447
$SILENCE,22843.348722857085,-14836.730341521543,-20896.3329668442,-8784.794364547059,-187500.02235174447,-187500.02235174447,-187500.02235174447,-187500.02235174447
$SILENCE,22867.75682780228,-14814.825631955342,-20911.04041469579,-8703.81399438548,-187500.02235174447,-187500.02235174447,-187500.02235174447,-187500.02235174447
$SILENCE,22959.622497513592,-14732.571212359813,-20559.380419180445,-8635.752932519072,-187500.02235174447,-187500.02235174447,-187500.02235174447,-187500.02235174447
$SILENCE,22977.325079122198,-14732.638267593178,-20430.164984484316,-8684.680901131738,-187500.02235174447,-187500.02235174447,-187500.02235174447,-187500.02235174447
$SILENCE,22855.128092185034,-14839.099626433806,-20836.251477748334,-8782.559190101527,-187500.02235174447,-187500.02235174447,-187500.02235174447,-187500.02235174447
$SILENCE,22839.57127804414,-14838.496129333513,-20956.593269895708,-8728.244451075132,-187500.02235174447,-187500.02235174447,-187500.02235174447,-187500.02235174447
$SILENCE,22930.721691932882,-14758.029849294408,-20633.342341583055,-8642.57021457794,-187500.02235174447,-187500.02235174447,-187500.02235174447,-187500.02235174447
$SILENCE,22979.627308801093,-14726.469186123513,-20409.869600518894,-8670.219322469155,-187500.02235174447,-187500.02235174447,-187500.02235174447,-187500.02235174447
$SILENCE,22868.919118513957,-14813.775099965944,-20774.784180496237,-8803.145146744866,-187500.02235174447,-187500.02235174447,-187500.02235174447,-187500.02235174447
$SILENCE,22831.74816748478,-14839.300792133903,-20992.467819746475,-8788.974140760201,-187500.02235174447,-187500.02235174447,-187500.02235174447,-187500.02235174447
$SILENCE,22915.075470814165,-14760.555596417857,-20708.04187155269,-8682.222209241654,-187500.02235174447,-187500.02235174447,-187500.02235174447,-187500.02235174447
$SILENCE,22982.354221624642,-14714.712168540022,-20408.886123762863,-8654.1931216947,-187500.02235174447,-187500.02235174447,-187500.02235174447,-187500.02235174447
$SILENCE,22885.86174081108,-14805.21438183956,-20690.942787044383,-8757.949919456234,-187500.02235174447,-187500.02235174447,-187500.02235174447,-187500.02235174447
$SILENCE,22828.350702327574,-14852.60008008481,-20989.003299355903,-8773.417326619307,-187500.02235174447,-187500.02235174447,-187500.02235174447,-187500.02235174447
$SILENCE,22915.656616170003,-14775.575968691823,-20753.326505819143,-8671.67218585875,-187500.02235174447,-187500.02235174447,-187500.02235174447,-187500.02235174447
$SILENCE,22993.418335130016,-14717.48378485248,-20413.57999009848,-8632.131949917311,-187500.02235174447,-187500.02235174447,-187500.02235174447,-187500.02235174447
$SILENCE,22903.96665381988,-14787.198875808583,-20614.18689658486,-8740.739076225647,-187500.02235174447,-187500.02235174447,-187500.02235174447,-187500.02235174447
$SILENCE,22821.309902824152,-14842.6535538022,-20974.67583116005,-8762.040288691556,-187500.02235174447,-187500.02235174447,-187500.02235174447,-187500.02235174447
$SILENCE,22891.38262169154,-14780.87333212773,-20820.873477563084,-8681.95398830819,-187500.02235174447,-187500.02235174447,-187500.02235174447,-187500.02235174447
$SILENCE,22987.562178082728,-14720.38951163167,-20451.75676962814,-8648.627537325328,-187500.02235174447,-187500.02235174447,-187500.02235174447,-187500.02235174447
$SILENCE,22926.474860486374,-14774.078401813318,-20547.06460798557,-8754.127771154377,-187500.02235174447,-187500.02235174447,-187500.02235174447,-187500.02235174447
$SILENCE,22820.259370834752,-14858.791513298931,-20959.588403652717,-8816.332675973497,-187500.02235174447,-187500.02235174447,-187500.02235174447,-187500.02235174447
$SILENCE,22871.176644703944,-14815.205611611083,-20883.212492848932,-8718.499090492618,-187500.02235174447,-187500.02235174447,-187500.02235174447,-187500.02235174447
$SILENCE,22970.77601799679,-14726.469186123513,-20507.144392388393,-8639.105694187367,-187500.02235174447,-187500.02235174447,-187500.02235174447,-187500.02235174447
$SILENCE,22952.02290439879,-14743.165939231629,-20478.176531574314,-8704.395139741318,-187500.02235174447,-187500.02235174447,-187500.02235174447,-187500.02235174447
$SILENCE,22830.31765583964,-14847.41447537118,-20902.27853086931,-8795.769071074614,-187500.02235174447,-187500.02235174447,-187500.02235174447,-187500.02235174447
$SILENCE,22834.966818686346,-14826.895573961208,-20945.976191279435,-8745.499997794628,-187500.02235174447,-187500.02235174447,-187500.02235174447,-187500.02235174447
$SILENCE,22948.40192179703,-14739.29908744086,-20578.088829289536,-8648.158150691766,-187500.02235174447,-187500.02235174447,-187500.02235174447,-187500.02235174447
$SILENCE,22980.58843381267,-14735.76751181692,-20423.392405914357,-8664.005537510579,-187500.02235174447,-187500.02235174447,-187500.02235174447,-187500.02235174447
$SILENCE,22855.99981021879,-14837.691466533122,-20832.63049514657,-8782.313320912519,-187500.02235174447,-187500.02235174447,-187500.02235174447,-187500.02235174447
$SILENCE,22839.504222810774,-14832.5505653084,-20966.29392698931,-8763.135524169866,-187500.02235174447,-187500.02235174447,-187500.02235174447,-187500.02235174447
$SILENCE,22939.282410059262,-14750.117331757228,-20636.046902662147,-8662.61972935435,-187500.02235174447,-187500.02235174447,-187500.02235174447,-187500.02235174447
$SILENCE,22982.197759413455,-14729.084340224785,-20401.286530648056,-8652.941424005201,-187500.02235174447,-187500.02235174447,-187500.02235174447,-187500.02235174447
$SILENCE,22866.57218534615,-14821.486451803024,-20762.088389645625,-8766.555341071527,-187500.02235174447,-187500.02235174447,-187500.02235174447,-187500.02235174447
$SILENCE,22825.62378950403,-14842.608850313289,-20987.371622010665,-8765.035422448567,-187500.02235174447,-187500.02235174447,-187500.02235174447,-187500.02235174447
$SILENCE,22914.136697547045,-14771.73146864551,-20708.24303725279,-8681.730470863637,-187500.02235174447,-187500.02235174447,-187500.02235174447,-187500.02235174447
$SILENCE,22982.8236082582,-14722.356465143737,-20405.95804523922,-8646.705287302171,-187500.02235174447,-187500.02235174447,-187500.02235174447,-187500.02235174447
$SILENCE,22886.95697628939,-14802.845096927298,-20684.751353830263,-8745.87997745037,-187500.02235174447,-187500.02235174447,-187500.02235174447,-187500.02235174447
$SILENCE,22818.024196389222,-14848.12973119375,-20994.01009011389,-8768.9693294727,-187500.02235174447,-187500.02235174447,-187500.02235174447,-187500.02235174447
$SILENCE,22889.683889112937,-14788.048242097884,-20779.433343342942,-8674.466153915662,-187500.02235174447,-187500.02235174447,-187500.02235174447,-187500.02235174447
$SILENCE,22980.87900649059,-14725.39630238966,-20425.784042571075,-8632.780150506514,-187500.02235174447,-187500.02235174447,-187500.02235174447,-187500.02235174447
$SILENCE,22908.48170619985,-14784.337852518303,-20601.804030156618,-8737.945108168735,-187500.02235174447,-187500.02235174447,-187500.02235174447,-187500.02235174447
$SILENCE,22812.436260275397,-14846.967440482074,-20980.62139518516,-8792.706882084238,-187500.02235174447,-187500.02235174447,-187500.02235174447,-187500.02235174447
$SILENCE,22868.62854583604,-14800.609922481766,-20846.354466242134,-8701.847040873414,-187500.02235174447,-187500.02235174447,-187500.02235174447,-187500.02235174447
$SILENCE,22972.40769534203,-14727.363255901726,-20462.99969708916,-8636.244670897087,-187500.02235174447,-187500.02235174447,-187500.02235174447,-187500.02235174447
$SILENCE,22945.652657229028,-14765.942366831587,-20517.71676751575,-8709.401930499307,-187500.02235174447,-187500.02235174447,-187500.02235174447,-187500.02235174447
$SILENCE,22833.42454831893,-14847.839158515832,-20939.270667942845,-8792.818640806514,-187500.02235174447,-187500.02235174447,-187500.02235174447,-187500.02235174447
$SILENCE,22868.695601069405,-14809.17064060815,-20891.259120852843,-8725.517538251584,-187500.02235174447,-187500.02235174447,-187500.02235174447,-187500.02235174447
$SILENCE,22958.88488994657,-14738.650886851656,-20521.82948849553,-8641.85495875537,-187500.02235174447,-187500.02235174447,-187500.02235174447,-187500.02235174447
$SILENCE,22936.44373851344,-14753.134817258695,-20482.468066509733,-8686.62550289935,-187500.02235174447,-187500.02235174447,-187500.02235174447,-187500.02235174447
$SILENCE,22824.61796100354,-14843.614678813778,-20899.529266301306,-8765.527160826583,-187500.02235174447,-187500.02235174447,-187500.02235174447,-187500.02235174447
$SILENCE,22842.812280990158,-14823.31929484836,-20942.534022633317,-8742.482512293162,-187500.02235174447,-187500.02235174447,-187500.02235174447,-187500.02235174447
$SILENCE,22940.131776348564,-14745.15524448815,-20590.51639920669,-8675.069651015956,-187500.02235174447,-187500.02235174447,-187500.02235174447,-187500.02235174447
$SILENCE,22985.617576315115,-14741.355447930748,-20408.126164451383,-8639.843301754392,-187500.02235174447,-187500.02235174447,-187500.02235174447,-187500.02235174447
$SILENCE,22867.28744116872,-14835.389236854226,-20811.195172213935,-8728.646782475327,-187500.02235174447,-187500.02235174447,-187500.02235174447,-187500.02235174447
$SILENCE,22838.498394310285,-14843.41351311368,-20980.39787774061,-8764.58838755946,-187500.02235174447,-187500.02235174447,-187500.02235174447,-187500.02235174447
$SILENCE,22936.533145491263,-14767.261119754448,-20657.795150017162,-8703.881049618847,-187500.02235174447,-187500.02235174447,-187500.02235174447,-187500.02235174447
$SILENCE,22985.863445504125,-14734.001724004953,-20412.66356857581,-8696.616732670873,-187500.02235174447,-187500.02235174447,-187500.02235174447,-187500.02235174447
$SILENCE,22873.612984849573,-14818.871297701753,-20759.96497392237,-8789.957617516235,-187500.02235174447,-187500.02235174447,-187500.02235174447,-187500.02235174447
$SILENCE,22831.547001784686,-14840.820710756865,-20994.881808147646,-8786.001358747644,-187500.02235174447,-187500.02235174447,-187500.02235174447,-187500.02235174447
$SILENCE,22923.144450562533,-14765.674145898121,-20720.536496703207,-8692.369901224363,-187500.02235174447,-187500.02235174447,-187500.02235174447,-187500.02235174447
$SILENCE,22995.318233408718,-14718.176688930595,-20408.774365040586,-8661.725659576137,-187500.02235174447,-187500.02235174447,-187500.02235174447,-187500.02235174447
$SILENCE,22897.596406650115,-14803.470945772046,-20675.363621159035,-8758.262843878609,-187500.02235174447,-187500.02235174447,-187500.02235174447,-187500.02235174447
$SILENCE,22818.828859189613,-14851.773065539965,-21000.983834383947,-8773.842009763957,-187500.02235174447,-187500.02235174447,-187500.02235174447,-187500.02235174447
$SILENCE,22892.299043214207,-14791.758631677465,-20794.07373596117,-8688.033662800033,-187500.02235174447,-187500.02235174447,-187500.02235174447,-187500.02235174447
$SILENCE,22981.571910568706,-14738.382665918192,-20439.686827622274,-8649.655717570271,-187500.02235174447,-187500.02235174447,-187500.02235174447,-187500.02235174447
$SILENCE,22904.413688708984,-14798.55356199188,-20606.11791683649,-8725.003448129111,-187500.02235174447,-187500.02235174447,-187500.02235174447,-187500.02235174447
$SILENCE,22802.154457825956,-14864.401801157213,-20990.143238323122,-8764.49898058164,-187500.02235174447,-187500.02235174447,-187500.02235174447,-187500.02235174447
$SILENCE,22873.925909271948,-14801.079309115328,-20848.50023370984,-8718.610849214894,-187500.02235174447,-187500.02235174447,-187500.02235174447,-187500.02235174447
$SILENCE,22984.16471292552,-14725.463357623024,-20471.158083815346,-8677.19306673921,-187500.02235174447,-187500.02235174447,-187500.02235174447,-187500.02235174447
$SILENCE,22948.513680519307,-14766.814084865342,-20519.59431405,-8740.247337847632,-187500.02235174447,-187500.02235174447,-187500.02235174447,-187500.02235174447
$SILENCE,22833.04456866319,-14856.51163536449,-20942.57872612223,-8807.526088658105,-187500.02235174447,-187500.02235174447,-187500.02235174447,-187500.02235174447
$SILENCE,22865.566356845662,-14816.390254067213,-20905.027795437312,-8739.174454113776,-187500.02235174447,-187500.02235174447,-187500.02235174447,-187500.02235174447
$SILENCE,22963.824625471192,-14733.91231702713,-20528.982046721227,-8656.0930199734,-187500.02235174447,-187500.02235174447,-187500.02235174447,-187500.02235174447
$SILENCE,22956.225032356386,-14755.079419026306,-20464.13963605638,-8682.557485408484,-187500.02235174447,-187500.02235174447,-187500.02235174447,-187500.02235174447
$SILENCE,22833.22338261883,-14853.851777774309,-20894.343661587678,-8769.63988180636,-187500.02235174447,-187500.02235174447,-187500.02235174447,-187500.02235174447
$SILENCE,22842.544060056694,-14830.024818184951,-20950.29007795931,-8731.15017785432,-187500.02235174447,-187500.02235174447,-187500.02235174447,-187500.02235174447
$SILENCE,22943.59629673914,-14744.931727043597,-20596.238445787247,-8644.470112856641,-187500.02235174447,-187500.02235174447,-187500.02235174447,-187500.02235174447
$SILENCE,22973.301765120243,-14735.298125183359,-20421.89483903585,-8672.186275981221,-187500.02235174447,-187500.02235174447,-187500.02235174447,-187500.02235174447
$SILENCE,22863.174720188945,-14834.495167076013,-20817.78893682825,-8813.114024771932,-187500.02235174447,-187500.02235174447,-187500.02235174447,-187500.02235174447
$SILENCE,22850.635391549516,-14836.953858966097,-20968.52910143484,-8782.380376145886,-187500.02235174447,-187500.02235174447,-187500.02235174447,-187500.02235174447
$SILENCE,22934.521488490285,-14759.169788261628,-20660.253841907244,-8682.937465064224,-187500.02235174447,-187500.02235174447,-187500.02235174447,-187500.02235174447
$SILENCE,22976.386305855074,-14727.385607646182,-20413.110603464916,-8665.637214855817,-187500.02235174447,-187500.02235174447,-187500.02235174447,-187500.02235174447
$SILENCE,22866.1475022015,-14819.206573868583,-20750.733703462327,-8770.109268439921,-187500.02235174447,-187500.02235174447,-187500.02235174447,-187500.02235174447
$SILENCE,22812.100984108565,-14849.493187605523,-21002.459049518,-8771.763297529615,-187500.02235174447,-187500.02235174447,-187500.02235174447,-187500.02235174447
$SILENCE,22896.277653727255,-14780.292186771892,-20742.664723713962,-8691.632293657338,-187500.02235174447,-187500.02235174447,-187500.02235174447,-187500.02235174447
$SILENCE,22980.20845415693,-14730.090168725274,-20419.637312845865,-8656.80827579597,-187500.02235174447,-187500.02235174447,-187500.02235174447,-187500.02235174447
$SILENCE,22886.44288616692,-14806.60018999579,-20668.300469911155,-8756.005317688623,-187500.02235174447,-187500.02235174447,-187500.02235174447,-187500.02235174447
$SILENCE,22814.000882387267,-14857.22689118706,-20992.78074416885,-8776.524219098595,-187500.02235174447,-187500.02235174447,-187500.02235174447,-187500.02235174447
$SILENCE,22889.48272341284,-14788.025890353429,-20785.490666090333,-8666.911264289769,-187500.02235174447,-187500.02235174447,-187500.02235174447,-187500.02235174447
$SILENCE,22969.054933673735,-14729.39726464716,-20441.072635778506,-8623.839452724393,-187500.02235174447,-187500.02235174447,-187500.02235174447,-187500.02235174447
$SILENCE,22900.43507819594,-14791.758631677465,-20600.64173944494,-8746.30466059502,-187500.02235174447,-187500.02235174447,-187500.02235174447,-187500.02235174447
$SILENCE,22812.927998653413,-14851.929527751152,-20982.186017297034,-8806.78848109108,-187500.02235174447,-187500.02235174447,-187500.02235174447,-187500.02235174447
$SILENCE,22871.48956912632,-14793.747936933987,-20861.240728049368,-8718.364980025886,-187500.02235174447,-187500.02235174447,-187500.02235174447,-187500.02235174447
$SILENCE,22976.207491899433,-14720.277752909393,-20481.19401707578,-8653.120237960844,-187500.02235174447,-187500.02235174447,-187500.02235174447,-187500.02235174447
$SILENCE,22943.506889761316,-14766.121180787228,-20515.369834347945,-8711.950029367212,-187500.02235174447,-187500.02235174447,-187500.02235174447,-187500.02235174447
$SILENCE,22824.528554025717,-14856.086952219839,-20939.918868532048,-8774.73607954217,-187500.02235174447,-187500.02235174447,-187500.02235174447,-187500.02235174447
$SILENCE,22847.483795581316,-14819.698312246599,-20911.308635629255,-8710.184241555244,-187500.02235174447,-187500.02235174447,-187500.02235174447,-187500.02235174447
$SILENCE,22962.34941033714,-14733.733503071488,-20525.53987807511,-8643.598394822884,-187500.02235174447,-187500.02235174447,-187500.02235174447,-187500.02235174447
$SILENCE,22959.130759135576,-14744.261174709938,-20458.641106920375,-8708.373750254363,-187500.02235174447,-187500.02235174447,-187500.02235174447,-187500.02235174447
$SILENCE,22827.344873827085,-14847.727399793554,-20898.456382567452,-8821.495928942673,-187500.02235174447,-187500.02235174447,-187500.02235174447,-187500.02235174447
$SILENCE,22836.57614428713,-14837.535004321935,-20966.316278733764,-8766.711803282715,-187500.02235174447,-187500.02235174447,-187500.02235174447,-187500.02235174447
$SILENCE,22945.42913978447,-14747.636288122689,-20603.994501113237,-8653.500217616585,-187500.02235174447,-187500.02235174447,-187500.02235174447,-187500.02235174447
$SILENCE,22977.190968655465,-14728.078511724296,-20420.71019657972,-8663.2455781991,-187500.02235174447,-187500.02235174447,-187500.02235174447,-187500.02235174447
$SILENCE,22862.23594692182,-14833.422283342157,-20806.009567500303,-8783.050928479544,-187500.02235174447,-187500.02235174447,-187500.02235174447,-187500.02235174447
$SILENCE,22832.99986517428,-14845.51457709248,-20976.57572943875,-8748.249262362631,-187500.02235174447,-187500.02235174447,-187500.02235174447,-187500.02235174447
$SILENCE,22902.223217752366,-14764.06482029734,-20688.57350213212,-8672.722717848148,-187500.02235174447,-187500.02235174447,-187500.02235174447,-187500.02235174447
$SILENCE,22968.2726226178,-14721.954133743542,-20424.778214070586,-8665.927787533736,-187500.02235174447,-187500.02235174447,-187500.02235174447,-187500.02235174447
$SILENCE,22891.740249602826,-14811.07053888685,-20727.979627606826,-8784.392033146863,-187500.02235174447,-187500.02235174447,-187500.02235174447,-187500.02235174447
$SILENCE,22838.163118143453,-14844.039361958428,-20989.204465056,-8790.538762872073,-187500.02235174447,-187500.02235174447,-187500.02235174447,-187500.02235174447
$SILENCE,22918.09295631563,-14770.122143044728,-20732.51703173125,-8680.769345852059,-187500.02235174447,-187500.02235174447,-187500.02235174447,-187500.02235174447
$SILENCE,22985.617576315115,-14718.802537775344,-20417.960932011716,-8647.129970446822,-187500.02235174447,-187500.02235174447,-187500.02235174447,-187500.02235174447
$SILENCE,22890.510903657785,-14802.442765527103,-20660.879690751994,-8745.611756516904,-187500.02235174447,-187500.02235174447,-187500.02235174447,-187500.02235174447
$SILENCE,22815.409042287953,-14860.244376688526,-20999.843895416725,-8789.085899482478,-187500.02235174447,-187500.02235174447,-187500.02235174447,-187500.02235174447
$SILENCE,22897.842275839124,-14794.194971823094,-20807.283616934255,-8705.423319986263,-187500.02235174447,-187500.02235174447,-187500.02235174447,-187500.02235174447
$SILENCE,22992.256044418344,-14726.178613445594,-20439.642124133366,-8634.747104018583,-187500.02235174447,-187500.02235174447,-187500.02235174447,-187500.02235174447
$SILENCE,22921.915104617492,-14785.254274040972,-20579.36287872349,-8727.819767930481,-187500.02235174447,-187500.02235174447,-187500.02235174447,-187500.02235174447
$SILENCE,22810.04462361868,-14858.925623765663,-20985.4046684986,-8804.329789200996,-187500.02235174447,-187500.02235174447,-187500.02235174447,-187500.02235174447
$SILENCE,22868.0474004802,-14806.26491382896,-20872.3271932992,-8723.125901594865,-187500.02235174447,-187500.02235174447,-187500.02235174447,-187500.02235174447
$SILENCE,22978.956756467433,-14726.20096519005,-20487.363098545444,-8657.501179874085,-187500.02235174447,-187500.02235174447,-187500.02235174447,-187500.02235174447
$SILENCE,22952.82756719918,-14765.987070320496,-20508.30668310007,-8727.082160363456,-187500.02235174447,-187500.02235174447,-187500.02235174447,-187500.02235174447
$SILENCE,22838.52074605474,-14856.645745831222,-20934.733263818416,-8806.229687479698,-187500.02235174447,-187500.02235174447,-187500.02235174447,-187500.02235174447
$SILENCE,22874.060019738678,-14821.240582614015,-20915.46606009794,-8726.053980118511,-187500.02235174447,-187500.02235174447,-187500.02235174447,-187500.02235174447
$SILENCE,22971.31245986372,-14742.808311320343,-20545.947020762804,-8646.638232068806,-187500.02235174447,-187500.02235174447,-187500.02235174447,-187500.02235174447
$SILENCE,22963.53405279327,-14748.128026500706,-20459.80339763205,-8699.00836932759,-187500.02235174447,-187500.02235174447,-187500.02235174447,-187500.02235174447
$SILENCE,22831.301132595676,-14853.94118475213,-20887.12404812861,-8796.50667864164,-187500.02235174447,-187500.02235174447,-187500.02235174447,-187500.02235174447
$SILENCE,22828.574219772127,-14848.219138171571,-20975.882825360637,-8757.1676084003,-187500.02235174447,-187500.02235174447,-187500.02235174447,-187500.02235174447
$SILENCE,22949.83243344217,-14752.464264925036,-20606.54259998114,-8668.14061023481,-187500.02235174447,-187500.02235174447,-187500.02235174447,-187500.02235174447
$SILENCE,22989.238558916877,-14728.547898357858,-20413.244713931646,-8675.270816716054,-187500.02235174447,-187500.02235174447,-187500.02235174447,-187500.02235174447
$SILENCE,22868.785008047227,-14822.425225070147,-20800.555741853208,-8762.532027069572,-187500.02235174447,-187500.02235174447,-187500.02235174447,-187500.02235174447
$SILENCE,22834.02804541922,-14846.721571293065,-20988.48920923343,-8738.34743956893,-187500.02235174447,-187500.02235174447,-187500.02235174447,-187500.02235174447
$SILENCE,22929.40293901002,-14777.185294292605,-20688.61820562103,-8672.47684865914,-187500.02235174447,-187500.02235174447,-187500.02235174447,-187500.02235174447
$SILENCE,22996.21230318693,-14734.001724004953,-20410.18252494127,-8686.893723832813,-187500.02235174447,-187500.02235174447,-187500.02235174447,-187500.02235174447
$SILENCE,22895.405935693496,-14819.31833259086,-20724.738624660808,-8801.044082766066,-187500.02235174447,-187500.02235174447,-187500.02235174447,-187500.02235174447
$SILENCE,22847.349685114586,-14851.661306817688,-20994.0547936028,-8791.209315205731,-187500.02235174447,-187500.02235174447,-187500.02235174447,-187500.02235174447
$SILENCE,22927.681854686958,-14771.507951200958,-20740.429549268432,-8692.90634309129,-187500.02235174447,-187500.02235174447,-187500.02235174447,-187500.02235174447
$SILENCE,22988.12097169411,-14715.20390691804,-20422.38657741387,-8652.628499582828,-187500.02235174447,-187500.02235174447,-187500.02235174447,-187500.02235174447
$SILENCE,22913.130869046556,-14796.78777417991,-20636.270420106703,-8718.186166070243,-187500.02235174447,-187500.02235174447,-187500.02235174447,-187500.02235174447
$SILENCE,22828.596571516584,-14858.098609220817,-20988.757430166894,-8768.79051551706,-187500.02235174447,-187500.02235174447,-187500.02235174447,-187500.02235174447
$SILENCE,22890.868531569067,-14795.40196602368,-20815.17378272698,-8713.335837523442,-187500.02235174447,-187500.02235174447,-187500.02235174447,-187500.02235174447
$SILENCE,22977.526244822293,-14723.25053492195,-20456.741208641673,-8662.53032237653,-187500.02235174447,-187500.02235174447,-187500.02235174447,-187500.02235174447
$SILENCE,22910.225142267365,-14778.772268148932,-20580.793390368628,-8723.237660317143,-187500.02235174447,-187500.02235174447,-187500.02235174447,-187500.02235174447
$SILENCE,22835.503260553272,-14858.098609220817,-20968.48439794593,-8800.977027532701,-187500.02235174447,-187500.02235174447,-187500.02235174447,-187500.02235174447
$SILENCE,22898.266958983775,-14811.249352842493,-20865.55461472924,-8728.982058642157,-187500.02235174447,-187500.02235174447,-187500.02235174447,-187500.02235174447
$SILENCE,22986.1763699265,-14725.239840178472,-20496.14733411638,-8657.769400807549,-187500.02235174447,-187500.02235174447,-187500.02235174447,-187500.02235174447
$SILENCE,22949.854785186624,-14754.744142859478,-20506.04915691008,-8716.085102091445,-187500.02235174447,-187500.02235174447,-187500.02235174447,-187500.02235174447
$SILENCE,22834.72094949734,-14845.335763136836,-20932.878069028626,-8800.462937410228,-187500.02235174447,-187500.02235174447,-187500.02235174447,-187500.02235174447
$SILENCE,22869.81318829217,-14816.144384878206,-20926.79839453678,-8743.77891347157,-187500.02235174447,-187500.02235174447,-187500.02235174447,-187500.02235174447
$SILENCE,22963.645811515547,-14734.180537960594,-20564.2530994717,-8666.754802078582,-187500.02235174447,-187500.02235174447,-187500.02235174447,-187500.02235174447
$SILENCE,22960.82949171418,-14746.228128222005,-20464.273746523115,-8702.562296695984,-187500.02235174447,-187500.02235174447,-187500.02235174447,-187500.02235174447
$SILENCE,22859.441978864907,-14849.694353305622,-20865.487559495876,-8771.472724851696,-187500.02235174447,-187500.02235174447,-187500.02235174447,-187500.02235174447
$SILENCE,22861.118359699056,-14837.244431644016,-20960.013086797368,-8736.1122651234,-187500.02235174447,-187500.02235174447,-187500.02235174447,-187500.02235174447
$SILENCE,22956.605012012125,-14750.430256179603,-20625.45217579033,-8671.292206203008,-187500.02235174447,-187500.02235174447,-187500.02235174447,-187500.02235174447
$SILENCE,22987.875102505102,-14733.644096093667,-20433.584801385976,-8693.889819847325,-187500.02235174447,-187500.02235174447,-187500.02235174447,-187500.02235174447
$SILENCE,22877.748057573805,-14836.216251399072,-20800.17576219747,-8788.862382037923,-187500.02235174447,-187500.02235174447,-187500.02235174447,-187500.02235174447
$SILENCE,22860.93954574341,-14846.810978270887,-20974.564072437774,-8765.884788737869,-187500.02235174447,-187500.02235174447,-187500.02235174447,-187500.02235174447
talvez,22953.095788132643,-14768.7363348885,-20681.108019484047,-8675.404927182786,-187500.02235174447,-187500.02235174447,-187500.02235174447,-187500.02235174447
talvez,22998.89451252157,-14725.48570936748,-20420.28551343507,-8667.693575345704,-187500.02235174447,-187500.02235174447,-187500.02235174447,-187500.02235174447
talvez,22891.62849088055,-14813.283361587926,-20731.757072419772,-8774.534913842072,-187500.02235174447,-187500.02235174447,-187500.02235174447,-187500.02235174447
talvez,22834.18450763041,-14851.549548095412,-21007.15291585361,-8785.174344202798,-187500.02235174447,-187500.02235174447,-187500.02235174447,-187500.02235174447
talvez,22903.184342763943,-14780.06866932734,-20770.090314160625,-8692.034625057535,-187500.02235174447,-187500.02235174447,-187500.02235174447,-187500.02235174447
talvez,22984.388230370074,-14725.15043320065,-20430.47790890669,-8636.177615663722,-187500.02235174447,-187500.02235174447,-187500.02235174447,-187500.02235174447
talvez,22921.53512496175,-14794.97728287903,-20636.717454995807,-8745.87997745037,-187500.02235174447,-187500.02235174447,-187500.02235174447,-187500.02235174447
talvez,22840.644161777993,-14853.203577185104,-20988.936244122535,-8782.290969168063,-187500.02235174447,-187500.02235174447,-187500.02235174447,-187500.02235174447
talvez,22895.741211860324,-14800.855791670776,-20828.294256722245,-8688.324235477952,-187500.02235174447,-187500.02235174447,-187500.02235174447,-187500.02235174447
talvez,22974.776980254293,-14733.957020516042,-20475.471970495222,-8651.935595504714,-187500.02235174447,-187500.02235174447,-187500.02235174447,-187500.02235174447
talvez,22929.20177330992,-14780.046317582885,-20573.529073420654,-8751.9149484533,-187500.02235174447,-187500.02235174447,-187500.02235174447,-187500.02235174447
talvez,22844.801586246682,-14855.952841753107,-20961.28713623132,-8803.189850233775,-187500.02235174447,-187500.02235174447,-187500.02235174447,-187500.02235174447
talvez,22899.76452586228,-14810.042358641907,-20869.51087349783,-8711.525346222561,-187500.02235174447,-187500.02235174447,-187500.02235174447,-187500.02235174447
talvez,22990.87023626211,-14733.085302482285,-20499.25422659567,-8637.988106964602,-187500.02235174447,-187500.02235174447,-187500.02235174447,-187500.02235174447
talvez,22953.229898599377,-14762.455494696558,-20502.048194652583,-8691.29701749051,-187500.02235174447,-187500.02235174447,-187500.02235174447,-187500.02235174447
talvez,22844.600420546583,-14856.399876642214,-20926.463118369953,-8795.612608863426,-187500.02235174447,-187500.02235174447,-187500.02235174447,-187500.02235174447
talvez,22863.42058937795,-14830.874184474253,-20934.353284162677,-8753.390163587352,-187500.02235174447,-187500.02235174447,-187500.02235174447,-187500.02235174447
talvez,22964.562233038218,-14746.116369499729,-20571.562119908587,-8673.303863203986,-187500.02235174447,-187500.02235174447,-187500.02235174447,-187500.02235174447
talvez,22979.806122756734,-14747.435122422592,-20454.86366210743,-8710.653628188806,-187500.02235174447,-187500.02235174447,-187500.02235174447,-187500.02235174447
talvez,22848.936658970913,-14852.488321362534,-20875.478789267396,-8807.906068313845,-187500.02235174447,-187500.02235174447,-187500.02235174447,-187500.02235174447
talvez,22851.14948167199,-14846.542757337424,-20971.948918336504,-8740.403800058819,-187500.02235174447,-187500.02235174447,-187500.02235174447,-187500.02235174447
talvez,22953.811043955215,-14757.426352194114,-20626.726225224284,-8621.112539900845,-187500.02235174447,-187500.02235174447,-187500.02235174447,-187500.02235174447
talvez,22991.69725080696,-14727.162090201628,-20424.487641392665,-8664.117296232855,-187500.02235174447,-187500.02235174447,-187500.02235174447,-187500.02235174447
talvez,22874.32824067214,-14829.398969340202,-20805.45077388892,-8815.237440495186,-187500.02235174447,-187500.02235174447,-187500.02235174447,-187500.02235174447
talvez,22844.846289735593,-14853.56120509639,-21005.320072808277,-8795.88082979689,-187500.02235174447,-187500.02235174447,-187500.02235174447,-187500.02235174447
talvez,22949.944192164447,-14773.318442501837,-20692.820333578627,-8667.2465404566,-187500.02235174447,-187500.02235174447,-187500.02235174447,-187500.02235174447
talvez,23004.325986424206,-14730.894831525664,-20407.634426073364,-8646.459418113163,-187500.02235174447,-187500.02235174447,-187500.02235174447,-187500.02235174447
talvez,22879.759714574782,-14822.089948903316,-20731.622961953042,-8789.532934371584,-187500.02235174447,-187500.02235174447,-187500.02235174447,-187500.02235174447
talvez,22828.618923261038,-14866.547568624923,-21013.791383956835,-8789.97996926069,-187500.02235174447,-187500.02235174447,-187500.02235174447,-187500.02235174447
talvez,22924.619665696584,-14788.361166520259,-20762.244851856813,-8673.482677159629,-187500.02235174447,-187500.02235174447,-187500.02235174447,-187500.02235174447
talvez,23013.669015606527,-14727.832642535288,-20418.586780856465,-8631.036714439,-187500.02235174447,-187500.02235174447,-187500.02235174447,-187500.02235174447
talvez,22931.079319844168,-14799.939370148108,-20630.347207826046,-8750.439733319252,-187500.02235174447,-187500.02235174447,-187500.02235174447,-187500.02235174447
talvez,22846.477967080828,-14864.200635457115,-20998.368680282674,-8807.41432993583,-187500.02235174447,-187500.02235174447,-187500.02235174447,-187500.02235174447
talvez,22905.82184860967,-14801.481640515523,-20840.27479175029,-8719.01318061509,-187500.02235174447,-187500.02235174447,-187500.02235174447,-187500.02235174447
talvez,23001.152038711552,-14729.48667162498,-20467.313583769035,-8661.390383409307,-187500.02235174447,-187500.02235174447,-187500.02235174447,-187500.02235174447
talvez,22954.392189311053,-14777.118239059238,-20548.87509928645,-8739.330916324963,-187500.02235174447,-187500.02235174447,-187500.02235174447,-187500.02235174447
talvez,22838.967780943847,-14859.976155755063,-20970.026668313345,-8788.705919826736,-187500.02235174447,-187500.02235174447,-187500.02235174447,-187500.02235174447
talvez,22890.555607146696,-14820.257105857982,-20883.100734126656,-8677.751860350592,-187500.02235174447,-187500.02235174447,-187500.02235174447,-187500.02235174447
talvez,22988.54565483876,-14739.96963977452,-20513.179363391326,-8646.973508235635,-187500.02235174447,-187500.02235174447,-187500.02235174447,-187500.02235174447
talvez,22967.378552839586,-14758.342773716782,-20495.00739514916,-8717.895593392324,-187500.02235174447,-187500.02235174447,-187500.02235174447,-187500.02235174447
talvez,22835.302094853174,-14855.729324308555,-20935.135595218613,-8826.145091789376,-187500.02235174447,-187500.02235174447,-187500.02235174447,-187500.02235174447
talvez,22854.61400206256,-14840.440731101124,-20957.643801885108,-8768.701108539237,-187500.02235174447,-187500.02235174447,-187500.02235174447,-187500.02235174447
talvez,22962.48352080387,-14757.49340742748,-20587.65537591641,-8669.951101535691,-187500.02235174447,-187500.02235174447,-187500.02235174447,-187500.02235174447
talvez,22989.417372872518,-14748.798578834365,-20443.061941035026,-8679.428241184742,-187500.02235174447,-187500.02235174447,-187500.02235174447,-187500.02235174447
talvez,22873.56828136066,-14844.665210803178,-20851.60712618913,-8786.873076781401,-187500.02235174447,-187500.02235174447,-187500.02235174447,-187500.02235174447
talvez,22863.107664955576,-14840.261917145483,-20971.300717747297,-8753.300756609531,-187500.02235174447,-187500.02235174447,-187500.02235174447,-187500.02235174447
talvez,22961.276526603287,-14759.058029539352,-20641.791300987163,-8662.172694465244,-187500.02235174447,-187500.02235174447,-187500.02235174447,-187500.02235174447
talvez,22996.480524120394,-14737.041561250873,-20426.968685027205,-8662.418563654252,-187500.02235174447,-187500.02235174447,-187500.02235174447,-187500.02235174447
talvez,22877.524540129252,-14837.669114788667,-20790.095125448122,-8759.849817734936,-187500.02235174447,-187500.02235174447,-187500.02235174447,-187500.02235174447
talvez,22839.705388510873,-14858.36683015428,-21011.042119388836,-8789.823507049503,-187500.02235174447,-187500.02235174447,-187500.02235174447,-187500.02235174447
talvez,22933.627418712073,-14779.6886896716,-20722.27993277072,-8699.611866427884,-187500.02235174447,-187500.02235174447,-187500.02235174447,-187500.02235174447
talvez,23010.36095742714,-14725.530412856391,-20412.95414125373,-8662.820895054449,-187500.02235174447,-187500.02235174447,-187500.02235174447,-187500.02235174447
talvez,22915.701319658914,-14813.529230776934,-20697.871827825526,-8768.298777139042,-187500.02235174447,-187500.02235174447,-187500.02235174447,-187500.02235174447
talvez,22844.37690310203,-14859.260899932493,-21006.661177475595,-8776.50186735414,-187500.02235174447,-187500.02235174447,-187500.02235174447,-187500.02235174447
talvez,22915.902485359013,-14793.435012511614,-20785.691831790427,-8678.757688851081,-187500.02235174447,-187500.02235174447,-187500.02235174447,-187500.02235174447
talvez,23002.426088145505,-14733.644096093667,-20436.155251998338,-8665.704270089182,-187500.02235174447,-187500.02235174447,-187500.02235174447,-187500.02235174447
talvez,22924.127927318565,-14804.320312061349,-20623.999312400738,-8765.21423640421,-187500.02235174447,-187500.02235174447,-187500.02235174447,-187500.02235174447
talvez,22836.062054164657,-14870.861455304797,-20996.62524421516,-8799.077129254,-187500.02235174447,-187500.02235174447,-187500.02235174447,-187500.02235174447
talvez,22893.506037414794,-14808.678902230133,-20849.46135872142,-8706.362093253385,-187500.02235174447,-187500.02235174447,-187500.02235174447,-187500.02235174447
talvez,22998.49218112137,-14738.650886851656,-20471.850987893464,-8630.366162105342,-187500.02235174447,-187500.02235174447,-187500.02235174447,-187500.02235174447
talvez,22972.16182615302,-14778.280529770915,-20529.227915910236,-8708.552564210006,-187500.02235174447,-187500.02235174447,-187500.02235174447,-187500.02235174447
talvez,22851.90944098347,-14858.210367943093,-20953.32991520523,-8803.323960700507,-187500.02235174447,-187500.02235174447,-187500.02235174447,-187500.02235174447
talvez,22882.1513512315,-14821.307637847382,-20900.691557012982,-8727.551546997018,-187500.02235174447,-187500.02235174447,-187500.02235174447,-187500.02235174447
talvez,22983.762381525325,-14740.103750241251,-20524.131718174427,-8656.249482184587,-187500.02235174447,-187500.02235174447,-187500.02235174447,-187500.02235174447
talvez,22954.88392768907,-14759.92974757311,-20503.277540597624,-8722.63416321685,-187500.02235174447,-187500.02235174447,-187500.02235174447,-187500.02235174447
talvez,22849.22723164883,-14863.440676145636,-20923.04330146829,-8795.903181541345,-187500.02235174447,-187500.02235174447,-187500.02235174447,-187500.02235174447
talvez,22873.635336594027,-14836.618582799267,-20945.126824990133,-8746.59523327294,-187500.02235174447,-187500.02235174447,-187500.02235174447,-187500.02235174447
talvez,22970.843073230157,-14750.25144222396,-20580.01107931269,-8669.90639804678,-187500.02235174447,-187500.02235174447,-187500.02235174447,-187500.02235174447
talvez,22991.853713018147,-14745.602279377257,-20428.667417605808,-8666.084249744923,-187500.02235174447,-187500.02235174447,-187500.02235174447,-187500.02235174447
talvez,22868.695601069405,-14844.955783481097,-20840.74417838385,-8758.128733411877,-187500.02235174447,-187500.02235174447,-187500.02235174447,-187500.02235174447
talvez,22842.164080400955,-14843.36880962477,-20993.518351735875,-8782.313320912519,-187500.02235174447,-187500.02235174447,-187500.02235174447,-187500.02235174447
talvez,22934.20856406791,-14765.696497642577,-20672.390839146476,-8701.087081561933,-187500.02235174447,-187500.02235174447,-187500.02235174447,-187500.02235174447
talvez,22995.877027020102,-14737.980334517997,-20419.682016334777,-8686.022005799057,-187500.02235174447,-187500.02235174447,-187500.02235174447,-187500.02235174447
talvez,22889.594482135115,-14835.79156825442,-20770.11266590508,-8795.009111763133,-187500.02235174447,-187500.02235174447,-187500.02235174447,-187500.02235174447
talvez,22856.49154859681,-14861.518426122479,-20993.808924413792,-8777.284178410075,-187500.02235174447,-187500.02235174447,-187500.02235174447,-187500.02235174447
talvez,22946.92670666298,-14783.622596695734,-20708.62301690853,-8679.607055140383,-187500.02235174447,-187500.02235174447,-187500.02235174447,-187500.02235174447
talvez,23009.086907993187,-14732.191232704072,-20405.287492905558,-8663.96083402167,-187500.02235174447,-187500.02235174447,-187500.02235174447,-187500.02235174447
talvez,22899.42924969545,-14823.766329737466,-20688.349984687567,-8773.037346963567,-187500.02235174447,-187500.02235174447,-187500.02235174447,-187500.02235174447
talvez,22842.074673423132,-14857.852740031809,-20996.222912814967,-8800.84291706597,-187500.02235174447,-187500.02235174447,-187500.02235174447,-187500.02235174447
talvez,22936.734311191358,-14775.106582058263,-20756.76867446526,-8713.648761945817,-187500.02235174447,-187500.02235174447,-187500.02235174447,-187500.02235174447
talvez,23010.78564057179,-14716.254438907437,-20407.679129562275,-8679.942331307213,-187500.02235174447,-187500.02235174447,-187500.02235174447,-187500.02235174447
talvez,22935.57202047968,-14781.298015272381,-20583.632061914454,-8752.026707175579,-187500.02235174447,-187500.02235174447,-187500.02235174447,-187500.02235174447
talvez,22852.15531017248,-14846.833330015343,-20955.073351272746,-8807.101405513455,-187500.02235174447,-187500.02235174447,-187500.02235174447,-187500.02235174447
talvez,22904.97248232037,-14789.791678165398,-20822.080471763667,-8735.620526745382,-187500.02235174447,-187500.02235174447,-187500.02235174447,-187500.02235174447
talvez,22988.612710072128,-14714.734520284477,-20453.85783360694,-8678.891799317813,-187500.02235174447,-187500.02235174447,-187500.02235174447,-187500.02235174447
talvez,22938.25422981432,-14761.673183640622,-20524.15406991888,-8790.44935589425,-187500.02235174447,-187500.02235174447,-187500.02235174447,-187500.02235174447
talvez,22837.358455343063,-14842.810016013387,-20931.156984705565,-8846.127551332422,-187500.02235174447,-187500.02235174447,-187500.02235174447,-187500.02235174447
talvez,22875.468179639363,-14801.079309115328,-20869.712039197926,-8752.183169386766,-187500.02235174447,-187500.02235174447,-187500.02235174447,-187500.02235174447
talvez,22985.88579724858,-14720.836546520775,-20479.495284497178,-8652.360278649365,-187500.02235174447,-187500.02235174447,-187500.02235174447,-187500.02235174447
talvez,22979.068515189712,-14738.24855545146,-20426.90162979384,-8685.642026143316,-187500.02235174447,-187500.02235174447,-187500.02235174447,-187500.02235174447
talvez,22849.67426653794,-14835.143367665216,-20869.376763031098,-8808.420158436318,-187500.02235174447,-187500.02235174447,-187500.02235174447,-187500.02235174447
talvez,22851.70827528337,-14815.227963355537,-20933.61567659565,-8792.572771617504,-187500.02235174447,-187500.02235174447,-187500.02235174447,-187500.02235174447
talvez,22955.97916316738,-14728.413787891126,-20573.864349587482,-8716.420378258274,-187500.02235174447,-187500.02235174447,-187500.02235174447,-187500.02235174447
talvez,22989.68559380598,-14716.05327320734,-20402.60528357092,-8741.052000648022,-187500.02235174447,-187500.02235174447,-187500.02235174447,-187500.02235174447
talvez,22872.33893541562,-14817.843117456809,-20800.35457615311,-8825.966277833733,-187500.02235174447,-187500.02235174447,-187500.02235174447,-187500.02235174447
talvez,22856.893879997002,-14826.850870472297,-20949.038380269812,-8792.438661150773,-187500.02235174447,-187500.02235174447,-187500.02235174447,-187500.02235174447
talvez,22955.666238745005,-14750.452607924059,-20627.88851593596,-8694.67213090326,-187500.02235174447,-187500.02235174447,-187500.02235174447,-187500.02235174447
talvez,22990.08792520618,-14716.992046474463,-20388.791905497543,-8682.15515400829,-187500.02235174447,-187500.02235174447,-187500.02235174447,-187500.02235174447
talvez,22875.982269761833,-14813.082195887828,-20738.194374822902,-8788.035367493078,-187500.02235174447,-187500.02235174447,-187500.02235174447,-187500.02235174447
talvez,22847.595554303596,-14840.17251016766,-20969.601985168694,-8789.957617516235,-187500.02235174447,-187500.02235174447,-187500.02235174447,-187500.02235174447
talvez,22934.76735767929,-14762.67901214111,-20697.24597898078,-8715.995695113623,-187500.02235174447,-187500.02235174447,-187500.02235174447,-187500.02235174447
talvez,23013.64666386207,-14716.030921462885,-20380.32059434898,-8701.735282151138,-187500.02235174447,-187500.02235174447,-187500.02235174447,-187500.02235174447
talvez,22913.53320044675,-14798.441803269603,-20653.905946481937,-8805.089748512477,-187500.02235174447,-187500.02235174447,-187500.02235174447,-187500.02235174447
talvez,22831.79287097369,-14845.827501514854,-20980.375525996154,-8815.393902706373,-187500.02235174447,-187500.02235174447,-187500.02235174447,-187500.02235174447
talvez,22923.39031975154,-14771.954986090064,-20756.63456399853,-8700.885915861836,-187500.02235174447,-187500.02235174447,-187500.02235174447,-187500.02235174447
talvez,23014.49603015137,-14700.205886388529,-20397.2632166461,-8662.038583998512,-187500.02235174447,-187500.02235174447,-187500.02235174447,-187500.02235174447
talvez,22948.78190145277,-14773.363145990748,-20561.459131414787,-8739.554433769517,-187500.02235174447,-187500.02235174447,-187500.02235174447,-187500.02235174447
talvez,22850.009542704767,-14851.147216695217,-20944.948011034492,-8797.065472253022,-187500.02235174447,-187500.02235174447,-187500.02235174447,-187500.02235174447
talvez,22899.943339817924,-14802.867448671754,-20827.623704388585,-8750.663250763804,-187500.02235174447,-187500.02235174447,-187500.02235174447,-187500.02235174447
talvez,22989.149151939055,-14723.96579074452,-20466.061886079537,-8677.550694650496,-187500.02235174447,-187500.02235174447,-187500.02235174447,-187500.02235174447
talvez,22957.096750390145,-14764.690669142088,-20502.070546397037,-8729.607907486905,-187500.02235174447,-187500.02235174447,-187500.02235174447,-187500.02235174447
talvez,22858.95024048689,-14842.541795079924,-20915.33194963121,-8835.666934927338,-187500.02235174447,-187500.02235174447,-187500.02235174447,-187500.02235174447
talvez,22896.702336871906,-14812.188126109617,-20883.547769015764,-8778.222951677199,-187500.02235174447,-187500.02235174447,-187500.02235174447,-187500.02235174447
talvez,22990.40084962855,-14730.24663093646,-20513.87226746944,-8700.193011783722,-187500.02235174447,-187500.02235174447,-187500.02235174447,-187500.02235174447
talvez,22992.211340929432,-14746.87632881121,-20433.94242929726,-8729.026762131067,-187500.02235174447,-187500.02235174447,-187500.02235174447,-187500.02235174447
talvez,22870.260223181274,-14834.249297887005,-20854.155225057035,-8803.726292100704,-187500.02235174447,-187500.02235174447,-187500.02235174447,-187500.02235174447
talvez,22866.10279871259,-14819.966533180062,-20935.00148475188,-8764.610739303916,-187500.02235174447,-187500.02235174447,-187500.02235174447,-187500.02235174447
talvez,22968.585547040173,-14744.171767732118,-20580.659279901898,-8693.308674491487,-187500.02235174447,-187500.02235174447,-187500.02235174447,-187500.02235174447
talvez,22986.578701326693,-14729.732540813988,-20418.787946556564,-8705.49037521963,-187500.02235174447,-187500.02235174447,-187500.02235174447,-187500.02235174447
talvez,22895.54004616023,-14838.02674269995,-20773.845407229117,-8774.087878952967,-187500.02235174447,-187500.02235174447,-187500.02235174447,-187500.02235174447
talvez,22891.293214713718,-14834.204594398094,-20932.542792861797,-8785.330806413986,-187500.02235174447,-187500.02235174447,-187500.02235174447,-187500.02235174447
talvez,22985.394058870563,-14756.10759927125,-20630.59307701505,-8714.587535212939,-187500.02235174447,-187500.02235174447,-187500.02235174447,-187500.02235174447
talvez,23020.21807673193,-14729.643133836167,-20393.6645857888,-8687.608979655382,-187500.02235174447,-187500.02235174447,-187500.02235174447,-187500.02235174447
talvez,22903.787839864235,-14820.07829190234,-20732.897011386995,-8785.956655258735,-187500.02235174447,-187500.02235174447,-187500.02235174447,-187500.02235174447
talvez,22849.2942868822,-14855.17053069717,-20986.879883632646,-8804.150975245355,-187500.02235174447,-187500.02235174447,-187500.02235174447,-187500.02235174447
talvez,22949.631267742072,-14773.296090757382,-20718.547191446687,-8725.159910340299,-187500.02235174447,-187500.02235174447,-187500.02235174447,-187500.02235174447
talvez,23030.209306503453,-14720.568325587312,-20388.635443286355,-8694.716834392171,-187500.02235174447,-187500.02235174447,-187500.02235174447,-187500.02235174447
talvez,22950.41357879801,-14801.392233537703,-20631.263629348712,-8790.650521594349,-187500.02235174447,-187500.02235174447,-187500.02235174447,-187500.02235174447
talvez,22872.182473204433,-14847.772103282465,-20960.504825175387,-8825.116911544432,-187500.02235174447,-187500.02235174447,-187500.02235174447,-187500.02235174447
talvez,22926.58661920865,-14794.26202705646,-20774.515959562774,-8731.217233087687,-187500.02235174447,-187500.02235174447,-187500.02235174447,-187500.02235174447
talvez,23015.188934229485,-14729.240802435972,-20419.123222723392,-8652.76261004956,-187500.02235174447,-187500.02235174447,-187500.02235174447,-187500.02235174447
talvez,22949.49715727534,-14790.328120032325,-20565.907128561394,-8758.128733411877,-187500.02235174447,-187500.02235174447,-187500.02235174447,-187500.02235174447
talvez,22850.05424619368,-14873.923644295175,-20969.378467724142,-8832.738856403692,-187500.02235174447,-187500.02235174447,-187500.02235174447,-187500.02235174447
talvez,22915.187229536445,-14798.620617225244,-20839.559535927718,-8738.794474458036,-187500.02235174447,-187500.02235174447,-187500.02235174447,-187500.02235174447
talvez,23013.736070839892,-14722.803500032844,-20464.877243623407,-8670.264025958066,-187500.02235174447,-187500.02235174447,-187500.02235174447,-187500.02235174447
talvez,22978.442666344963,-14775.084230313807,-20493.196903848282,-8755.267710121598,-187500.02235174447,-187500.02235174447,-187500.02235174447,-187500.02235174447
talvez,22870.170816203456,-14851.348382395314,-20905.832458237703,-8823.664048154837,-187500.02235174447,-187500.02235174447,-187500.02235174447,-187500.02235174447
talvez,22907.542932932727,-14822.335818092326,-20878.004536390847,-8731.35134355442,-187500.02235174447,-187500.02235174447,-187500.02235174447,-187500.02235174447
talvez,22995.83232353119,-14746.58575613329,-20526.00926470867,-8663.022060754545,-187500.02235174447,-187500.02235174447,-187500.02235174447,-187500.02235174447
talvez,22994.759439797337,-14755.325288215316,-20448.649877148855,-8732.290116821541,-187500.02235174447,-187500.02235174447,-187500.02235174447,-187500.02235174447
talvez,22867.1980341909,-14831.723550763554,-20871.94721364346,-8848.340374033496,-187500.02235174447,-187500.02235174447,-187500.02235174447,-187500.02235174447
talvez,22888.745115845813,-14835.322181620859,-20938.53306037582,-8803.726292100704,-187500.02235174447,-187500.02235174447,-187500.02235174447,-187500.02235174447
talvez,22997.106372965143,-14764.467151697536,-20583.274434003168,-8690.514706434573,-187500.02235174447,-187500.02235174447,-187500.02235174447,-187500.02235174447
talvez,23015.07717550721,-14731.25245943695,-20405.667472561297,-8686.066709287967,-187500.02235174447,-187500.02235174447,-187500.02235174447,-187500.02235174447
talvez,22900.122153773566,-14837.356190366292,-20791.413878370986,-8803.391015933874,-187500.02235174447,-187500.02235174447,-187500.02235174447,-187500.02235174447
talvez,22881.681964597938,-14854.410571385692,-20960.66128738657,-8781.374547645397,-187500.02235174447,-187500.02235174447,-187500.02235174447,-187500.02235174447
talvez,22979.135570423077,-14778.414640237646,-20653.593022059566,-8698.941314094223,-187500.02235174447,-187500.02235174447,-187500.02235174447,-187500.02235174447
talvez,23025.85071633467,-14736.840395550777,-20388.009594441606,-8691.028796557046,-187500.02235174447,-187500.02235174447,-187500.02235174447,-187500.02235174447
talvez,22919.38935749404,-14835.433940343135,-20716.312017001157,-8794.115041984922,-187500.02235174447,-187500.02235174447,-187500.02235174447,-187500.02235174447
talvez,22876.026973250744,-14863.172455212172,-20982.364831252675,-8798.250114709153,-187500.02235174447,-187500.02235174447,-187500.02235174447,-187500.02235174447
talvez,22950.279468331275,-14785.813067652354,-20733.81343290966,-8724.042323117534,-187500.02235174447,-187500.02235174447,-187500.02235174447,-187500.02235174447
talvez,23046.12374855563,-14725.530412856391,-20385.12621940687,-8682.803354597492,-187500.02235174447,-187500.02235174447,-187500.02235174447,-187500.02235174447
talvez,22965.724523749894,-14808.969474908052,-20625.5192310237,-8776.054832465034,-187500.02235174447,-187500.02235174447,-187500.02235174447,-187500.02235174447
talvez,22863.44294112241,-14854.723495808066,-20976.91100560558,-8800.150012987855,-187500.02235174447,-187500.02235174447,-187500.02235174447,-187500.02235174447
talvez,22925.53608721925,-14799.984073637019,-20797.895884263027,-8722.455349261207,-187500.02235174447,-187500.02235174447,-187500.02235174447,-187500.02235174447
talvez,23036.803071117767,-14746.87632881121,-20425.22524895969,-8671.471020158651,-187500.02235174447,-187500.02235174447,-187500.02235174447,-187500.02235174447
talvez,22982.242462902363,-14794.440841012103,-20547.6010498525,-8760.296852624042,-187500.02235174447,-187500.02235174447,-187500.02235174447,-187500.02235174447
talvez,22877.457484895884,-14878.103420508316,-20949.708932603473,-8809.068359025521,-187500.02235174447,-187500.02235174447,-187500.02235174447,-187500.02235174447
talvez,22914.62843592506,-14825.800338482899,-20859.072608837203,-8747.31048909551,-187500.02235174447,-187500.02235174447,-187500.02235174447,-187500.02235174447
talvez,23004.03541374629,-14755.526453915412,-20484.345613043977,-8691.855811101892,-187500.02235174447,-187500.02235174447,-187500.02235174447,-187500.02235174447
talvez,22983.605919314137,-14783.64494844019,-20504.886866198405,-8753.88190196537,-187500.02235174447,-187500.02235174447,-187500.02235174447,-187500.02235174447
talvez,22886.800514078204,-14869.095667492827,-20919.824650266728,-8821.652391153859,-187500.02235174447,-187500.02235174447,-187500.02235174447,-187500.02235174447
talvez,22919.97050284988,-14833.377579853248,-20886.721716728418,-8748.361021084907,-187500.02235174447,-187500.02235174447,-187500.02235174447,-187500.02235174447
talvez,23021.1344982546,-14754.788846348387,-20512.77703199113,-8666.508932889574,-187500.02235174447,-187500.02235174447,-187500.02235174447,-187500.02235174447
talvez,23019.79339358728,-14764.690669142088,-20419.74907156814,-8707.882011876347,-187500.02235174447,-187500.02235174447,-187500.02235174447,-187500.02235174447
talvez,22900.88211308505,-14868.313356436893,-20861.79952166075,-8830.213109280243,-187500.02235174447,-187500.02235174447,-187500.02235174447,-187500.02235174447
talvez,22895.92002581597,-14840.038399700928,-20945.998543023892,-8791.276370439098,-187500.02235174447,-187500.02235174447,-187500.02235174447,-187500.02235174447
talvez,22990.356146139642,-14762.96958481903,-20601.580512712066,-8670.152267235788,-187500.02235174447,-187500.02235174447,-187500.02235174447,-187500.02235174447
talvez,23013.26668420633,-14748.44095092308,-20412.820030786996,-8674.443802171207,-187500.02235174447,-187500.02235174447,-187500.02235174447,-187500.02235174447
talvez,22895.405935693496,-14843.346457880314,-20793.850218516614,-8814.097501527966,-187500.02235174447,-187500.02235174447,-187500.02235174447,-187500.02235174447
talvez,22868.315621413665,-14865.832312802353,-20989.763258667383,-8810.811795093035,-187500.02235174447,-187500.02235174447,-187500.02235174447,-187500.02235174447
talvez,22960.561270780716,-14788.942311876097,-20685.89129279748,-8712.464119489685,-187500.02235174447,-187500.02235174447,-187500.02235174447,-187500.02235174447
talvez,23033.115033282644,-14740.573136874813,-20394.782173011565,-8697.108471048889,-187500.02235174447,-187500.02235174447,-187500.02235174447,-187500.02235174447
talvez,22945.362084551107,-14834.718684520565,-20700.777554604716,-8802.385187433385,-187500.02235174447,-187500.02235174447,-187500.02235174447,-187500.02235174447
talvez,22888.499246656807,-14873.230740217059,-20976.128694549643,-8809.873021825913,-187500.02235174447,-187500.02235174447,-187500.02235174447,-187500.02235174447
talvez,22967.847939473148,-14791.423355510637,-20729.544249718696,-8711.324180522464,-187500.02235174447,-187500.02235174447,-187500.02235174447,-187500.02235174447
talvez,23045.296734010786,-14744.48469215449,-20399.81131551401,-8683.205685997687,-187500.02235174447,-187500.02235174447,-187500.02235174447,-187500.02235174447
talvez,22954.615706755605,-14811.852849942787,-20628.849640947537,-8779.921684255802,-187500.02235174447,-187500.02235174447,-187500.02235174447,-187500.02235174447
talvez,22869.38850514752,-14873.90129255072,-20984.309433020288,-8810.40946369284,-187500.02235174447,-187500.02235174447,-187500.02235174447,-187500.02235174447
talvez,22935.035578612755,-14810.69055923111,-20810.83754430265,-8718.499090492618,-187500.02235174447,-187500.02235174447,-187500.02235174447,-187500.02235174447
talvez,23039.55233568577,-14745.82579682181,-20434.747092097652,-8666.486581145118,-187500.02235174447,-187500.02235174447,-187500.02235174447,-187500.02235174447
talvez,22980.923709979503,-14790.30576828787,-20548.4504161418,-8768.030556205578,-187500.02235174447,-187500.02235174447,-187500.02235174447,-187500.02235174447
talvez,22876.13873197302,-14867.888673292242,-20945.395045923597,-8815.304495728553,-187500.02235174447,-187500.02235174447,-187500.02235174447,-187500.02235174447
talvez,22911.074508556667,-14837.445597344113,-20870.673164209507,-8738.325087824474,-187500.02235174447,-187500.02235174447,-187500.02235174447,-187500.02235174447
talvez,23018.78756508679,-14757.806331849853,-20495.29796782708,-8674.063822515467,-187500.02235174447,-187500.02235174447,-187500.02235174447,-187500.02235174447
talvez,23006.51645738083,-14782.080326328318,-20472.119208826927,-8718.543793981527,-187500.02235174447,-187500.02235174447,-187500.02235174447,-187500.02235174447
talvez,22891.159104246988,-14874.907121051208,-20905.81010649325,-8805.737949101682,-187500.02235174447,-187500.02235174447,-187500.02235174447,-187500.02235174447
talvez,22893.953072303902,-14852.331859151347,-20927.647760826083,-8764.722498026193,-187500.02235174447,-187500.02235174447,-187500.02235174447,-187500.02235174447
talvez,22996.681689820492,-14756.085247526795,-20561.5038349037,-8702.472889718163,-187500.02235174447,-187500.02235174447,-187500.02235174447,-187500.02235174447
talvez,23032.22096350443,-14760.890872584687,-20426.14167048236,-8719.281401548553,-187500.02235174447,-187500.02235174447,-187500.02235174447,-187500.02235174447
talvez,22908.369947477575,-14864.334745923847,-20848.768454643305,-8825.966277833733,-187500.02235174447,-187500.02235174447,-187500.02235174447,-187500.02235174447
talvez,22901.575017163163,-14858.411533643191,-20941.43878715501,-8773.417326619307,-187500.02235174447,-187500.02235174447,-187500.02235174447,-187500.02235174447
talvez,22990.624367073106,-14775.888893114197,-20610.632969216465,-8685.798488354503,-187500.02235174447,-187500.02235174447,-187500.02235174447,-187500.02235174447
talvez,23021.51447791034,-14760.980279562507,-20414.00467324313,-8693.845116358414,-187500.02235174447,-187500.02235174447,-187500.02235174447,-187500.02235174447
talvez,22911.499191701318,-14847.570937582368,-20779.947433465415,-8795.098518740955,-187500.02235174447,-187500.02235174447,-187500.02235174447,-187500.02235174447
talvez,22887.761639089782,-14852.60008008481,-20976.799246883304,-8783.274445924097,-187500.02235174447,-187500.02235174447,-187500.02235174447,-187500.02235174447
talvez,22978.040334944766,-14778.59345419329,-20686.695955597872,-8701.690578662226,-187500.02235174447,-187500.02235174447,-187500.02235174447,-187500.02235174447
talvez,23032.89151583809,-14749.938517801585,-20407.969702240196,-8683.071575530956,-187500.02235174447,-187500.02235174447,-187500.02235174447,-187500.02235174447
talvez,22929.849973899123,-14838.965515967075,-20706.05256629617,-8795.50085014115,-187500.02235174447,-187500.02235174447,-187500.02235174447,-187500.02235174447
talvez,22869.902595269992,-14867.978080270062,-20988.10922957769,-8798.317169942518,-187500.02235174447,-187500.02235174447,-187500.02235174447,-187500.02235174447
talvez,22963.53405279327,-14798.799431180887,-20737.367360278055,-8710.787738655537,-187500.02235174447,-187500.02235174447,-187500.02235174447,-187500.02235174447
$SILENCE,23049.588268946205,-14736.996857761964,-20405.220437672193,-8682.736299364125,-187500.02235174447,-187500.02235174447,-187500.02235174447,-187500.02235174447
$SILENCE,22969.569023796204,-14808.656550485677,-20614.1645448404,-8780.636940078371,-187500.02235174447,-187500.02235174447,-187500.02235174447,-187500.02235174447
$SILENCE,22882.33016518714,-14873.65542336171,-20979.101476562202,-8808.26369622513,-187500.02235174447,-187500.02235174447,-187500.02235174447,-187500.02235174447
$SILENCE,22938.276581558774,-14815.607943011279,-20820.91818105199,-8720.421340515773,-187500.02235174447,-187500.02235174447,-187500.02235174447,-187500.02235174447
$SILENCE,23036.914829840047,-14747.837453822787,-20453.723723140207,-8677.751860350592,-187500.02235174447,-187500.02235174447,-187500.02235174447,-187500.02235174447
$SILENCE,22995.005308986343,-14800.632274226222,-20544.851785284496,-8758.73223051217,-187500.02235174447,-187500.02235174447,-187500.02235174447,-187500.02235174447
$SILENCE,22895.070659526667,-14879.08689726435,-20948.971325036448,-8820.579507420005,-187500.02235174447,-187500.02235174447,-187500.02235174447,-187500.02235174447
$SILENCE,22931.571058222184,-14831.544736807911,-20874.78588518928,-8760.632128790872,-187500.02235174447,-187500.02235174447,-187500.02235174447,-187500.02235174447
$SILENCE,23030.164603014542,-14749.737352101489,-20490.715860213742,-8682.132802263834,-187500.02235174447,-187500.02235174447,-187500.02235174447,-187500.02235174447
$SILENCE,23010.629178360603,-14766.545863931879,-20474.488493739187,-8730.0102388871,-187500.02235174447,-187500.02235174447,-187500.02235174447,-187500.02235174447
$SILENCE,22895.651804882506,-14870.995565771529,-20900.64685352407,-8810.588277648483,-187500.02235174447,-187500.02235174447,-187500.02235174447,-187500.02235174447
$SILENCE,22911.119212045578,-14845.961611981586,-20915.264894397842,-8728.669134219783,-187500.02235174447,-187500.02235174447,-187500.02235174447,-187500.02235174447
$SILENCE,23012.484373150393,-14764.5342069309,-20549.54565162011,-8639.99976396558,-187500.02235174447,-187500.02235174447,-187500.02235174447,-187500.02235174447
$SILENCE,23012.372614428117,-14753.291279469882,-20442.70431312374,-8710.29600027752,-187500.02235174447,-187500.02235174447,-187500.02235174447,-187500.02235174447
$SILENCE,22885.526464644252,-14854.611737085788,-20862.425370505498,-8830.436626724795,-187500.02235174447,-187500.02235174447,-187500.02235174447,-187500.02235174447
$SILENCE,22877.99392676281,-14855.88578651974,-20977.268633516866,-8806.140280501877,-187500.02235174447,-187500.02235174447,-187500.02235174447,-187500.02235174447
$SILENCE,22998.35807065464,-14777.833494881808,-20623.55227751163,-8715.079273590956,-187500.02235174447,-187500.02235174447,-187500.02235174447,-187500.02235174447
$SILENCE,23055.958516115967,-14739.991991518975,-20390.46828633169,-8709.357227010398,-187500.02235174447,-187500.02235174447,-187500.02235174447,-187500.02235174447
$SILENCE,22932.53218323376,-14830.74007400752,-20759.987325666825,-8813.046969538567,-187500.02235174447,-187500.02235174447,-187500.02235174447,-187500.02235174447
$SILENCE,22895.137714760032,-14860.154969710706,-20977.693316661516,-8789.64469309386,-187500.02235174447,-187500.02235174447,-187500.02235174447,-187500.02235174447
$SILENCE,22971.647736030547,-14786.885951386208,-20694.742583601783,-8707.591439198428,-187500.02235174447,-187500.02235174447,-187500.02235174447,-187500.02235174447
$SILENCE,23031.99744605988,-14743.121235742718,-20409.288455163056,-8697.644912915815,-187500.02235174447,-187500.02235174447,-187500.02235174447,-187500.02235174447
$SILENCE,22932.73334893386,-14830.471853074057,-20702.94567381688,-8783.743832557659,-187500.02235174447,-187500.02235174447,-187500.02235174447,-187500.02235174447
$SILENCE,22875.356420917087,-14865.541740124434,-20989.517389478373,-8785.55432385854,-187500.02235174447,-187500.02235174447,-187500.02235174447,-187500.02235174447
$SILENCE,22955.241555600354,-14796.050166612884,-20757.081598887635,-8701.332950750942,-187500.02235174447,-187500.02235174447,-187500.02235174447,-187500.02235174447
$SILENCE,23040.781681630815,-14730.53720361438,-20418.318559923002,-8675.740203349615,-187500.02235174447,-187500.02235174447,-187500.02235174447,-187500.02235174447
$SILENCE,22973.704096520436,-14796.541904990901,-20606.69906219233,-8787.431870392784,-187500.02235174447,-187500.02235174447,-187500.02235174447,-187500.02235174447
$SILENCE,22887.158141989486,-14870.235606460048,-20971.21131076948,-8827.285030756597,-187500.02235174447,-187500.02235174447,-187500.02235174447,-187500.02235174447
$SILENCE,22951.955849165424,-14812.657512743177,-20815.21848621589,-8727.663305719294,-187500.02235174447,-187500.02235174447,-187500.02235174447,-187500.02235174447
$SILENCE,23050.482338724418,-14738.382665918192,-20438.23396423268,-8657.590586851906,-187500.02235174447,-187500.02235174447,-187500.02235174447,-187500.02235174447
$SILENCE,22990.08792520618,-14783.376727506726,-20533.228878167734,-8745.947032683735,-187500.02235174447,-187500.02235174447,-187500.02235174447,-187500.02235174447
$SILENCE,22874.19413020541,-14863.597138356823,-20948.881918058625,-8821.965315576233,-187500.02235174447,-187500.02235174447,-187500.02235174447,-187500.02235174447
$SILENCE,22918.33882550464,-14818.625428512745,-20887.302862084256,-8753.568977542995,-187500.02235174447,-187500.02235174447,-187500.02235174447,-187500.02235174447
$SILENCE,23020.68746336549,-14738.047389751362,-20507.077337155028,-8686.379633710341,-187500.02235174447,-187500.02235174447,-187500.02235174447,-187500.02235174447
$SILENCE,22998.961567754934,-14767.506988943458,-20488.614796234942,-8753.814846732002,-187500.02235174447,-187500.02235174447,-187500.02235174447,-187500.02235174447
$SILENCE,22882.173702975953,-14856.22106268657,-20911.442746095985,-8829.028466824111,-187500.02235174447,-187500.02235174447,-187500.02235174447,-187500.02235174447
$SILENCE,22911.007453323302,-14830.807129240888,-20916.069557198236,-8741.25316634812,-187500.02235174447,-187500.02235174447,-187500.02235174447,-187500.02235174447
$SILENCE,23015.814783074235,-14754.855901581754,-20552.31726793257,-8675.024947527045,-187500.02235174447,-187500.02235174447,-187500.02235174447,-187500.02235174447
$SILENCE,23031.0363210483,-14744.998782276964,-20427.125147238392,-8719.840195159935,-187500.02235174447,-187500.02235174447,-187500.02235174447,-187500.02235174447
$SILENCE,22902.156162519,-14839.41255085618,-20838.39724521604,-8822.255888254153,-187500.02235174447,-187500.02235174447,-187500.02235174447,-187500.02235174447
$SILENCE,22883.82773206565,-14846.6545160597,-20970.406647969085,-8793.332730928985,-187500.02235174447,-187500.02235174447,-187500.02235174447,-187500.02235174447
$SILENCE,22996.100544464654,-14768.646927910679,-20630.23544910377,-8695.499145448106,-187500.02235174447,-187500.02235174447,-187500.02235174447,-187500.02235174447
$SILENCE,23048.113053812154,-14738.896756040664,-20396.480905590168,-8699.969494339168,-187500.02235174447,-187500.02235174447,-187500.02235174447,-187500.02235174447
$SILENCE,22930.185250065955,-14836.50682407699,-20763.071866401657,-8817.517318429627,-187500.02235174447,-187500.02235174447,-187500.02235174447,-187500.02235174447
$SILENCE,22887.29225245622,-14856.645745831222,-20986.410496999088,-8794.092690240466,-187500.02235174447,-187500.02235174447,-187500.02235174447,-187500.02235174447
$SILENCE,22976.408657599528,-14778.6381576822,-20701.626920894018,-8688.391290711319,-187500.02235174447,-187500.02235174447,-187500.02235174447,-187500.02235174447
$SILENCE,23041.876917109123,-14731.654790837145,-20400.861847503405,-8668.47588640164,-187500.02235174447,-187500.02235174447,-187500.02235174447,-187500.02235174447
$SILENCE,22937.784843180758,-14813.015140654463,-20686.85241780906,-8789.689396582771,-187500.02235174447,-187500.02235174447,-187500.02235174447,-187500.02235174447
$SILENCE,22870.01435399227,-14860.624356344266,-20993.116020335678,-8808.107234013944,-187500.02235174447,-187500.02235174447,-187500.02235174447,-187500.02235174447
$SILENCE,22951.240593342853,-14800.229942826027,-20774.29244211822,-8718.208517814699,-187500.02235174447,-187500.02235174447,-187500.02235174447,-187500.02235174447
$SILENCE,23044.26855376584,-14730.783072803388,-20420.821955301995,-8663.692613088204,-187500.02235174447,-187500.02235174447,-187500.02235174447,-187500.02235174447
$SILENCE,22967.2220906284,-14794.105564845273,-20608.576608726577,-8773.730251041681,-187500.02235174447,-187500.02235174447,-187500.02235174447,-187500.02235174447
$SILENCE,22876.898691284503,-14864.04417324593,-20984.041212086824,-8835.286955271597,-187500.02235174447,-187500.02235174447,-187500.02235174447,-187500.02235174447
$SILENCE,22925.379625008063,-14809.505916774979,-20844.36516098561,-8750.439733319252,-187500.02235174447,-187500.02235174447,-187500.02235174447,-187500.02235174447
$SILENCE,23032.04214954879,-14725.932744256586,-20457.70233365325,-8677.841267328415,-187500.02235174447,-187500.02235174447,-187500.02235174447,-187500.02235174447
$SILENCE,22998.31336716573,-14770.502122700469,-20515.414537836856,-8735.821692445481,-187500.02235174447,-187500.02235174447,-187500.02235174447,-187500.02235174447
$SILENCE,22890.086220513134,-14851.840120773331,-20931.805185294772,-8795.433794907785,-187500.02235174447,-187500.02235174447,-187500.02235174447,-187500.02235174447
$SILENCE,22937.82954666967,-14814.26683834396,-20877.736315457383,-8723.528232995062,-187500.02235174447,-187500.02235174447,-187500.02235174447,-187500.02235174447
$SILENCE,23027.527097168815,-14743.34475318727,-20521.963598962262,-8689.754747123092,-187500.02235174447,-187500.02235174447,-187500.02235174447,-187500.02235174447
$SILENCE,22994.468867119416,-14768.803390121866,-20493.398069548377,-8758.084029922966,-187500.02235174447,-187500.02235174447,-187500.02235174447,-187500.02235174447
$SILENCE,22879.513845385773,-14860.467894133079,-20912.515629829843,-8839.958469862757,-187500.02235174447,-187500.02235174447,-187500.02235174447,-187500.02235174447
$SILENCE,22912.125040546067,-14833.779911253443,-20931.872240528137,-8761.101515424432,-187500.02235174447,-187500.02235174447,-187500.02235174447,-187500.02235174447
$SILENCE,23018.541695897784,-14747.032791022397,-20564.521320405165,-8665.078421244434,-187500.02235174447,-187500.02235174447,-187500.02235174447,-187500.02235174447
$SILENCE,23036.84777460668,-14739.164976974127,-20415.99397849965,-8705.937410108734,-187500.02235174447,-187500.02235174447,-187500.02235174447,-187500.02235174447
$SILENCE,22911.566246934683,-14836.104492676795,-20827.0649107772,-8819.439568452784,-187500.02235174447,-187500.02235174447,-187500.02235174447,-187500.02235174447
$SILENCE,22892.61196763658,-14837.467949088568,-20968.372639223653,-8772.657367307827,-187500.02235174447,-187500.02235174447,-187500.02235174447,-187500.02235174447
$SILENCE,22987.673936805004,-14760.265023739938,-20633.431748560877,-8642.369048877841,-187500.02235174447,-187500.02235174447,-187500.02235174447,-187500.02235174447
$SILENCE,23018.85462032016,-14748.01626777843,-20414.89874302134,-8687.38546221083,-187500.02235174447,-187500.02235174447,-187500.02235174447,-187500.02235174447
$SILENCE,22899.33984271763,-14840.708952034587,-20786.2059219129,-8855.60469098147,-187500.02235174447,-187500.02235174447,-187500.02235174447,-187500.02235174447
$SILENCE,22891.62849088055,-14843.100588691306,-20982.655403930596,-8818.41138820784,-187500.02235174447,-187500.02235174447,-187500.02235174447,-187500.02235174447
$SILENCE,22996.346413653664,-14763.282509241404,-20689.892255054983,-8701.645875173315,-187500.02235174447,-187500.02235174447,-187500.02235174447,-187500.02235174447
$SILENCE,23052.27047828084,-14718.221392419506,-20393.262254388603,-8690.67116864576,-187500.02235174447,-187500.02235174447,-187500.02235174447,-187500.02235174447
$SILENCE,22940.802328682224,-14799.738204448011,-20673.396667646964,-8794.316207685019,-187500.02235174447,-187500.02235174447,-187500.02235174447,-187500.02235174447
$SILENCE,22867.220385935354,-14851.7060103066,-20987.550435966306,-8803.569829889517,-187500.02235174447,-187500.02235174447,-187500.02235174447,-187500.02235174447
$SILENCE,22941.78580543826,-14792.920922389141,-20780.103895676602,-8722.120073094376,-187500.02235174447,-187500.02235174447,-187500.02235174447,-187500.02235174447
$SILENCE,23020.419242432028,-14733.599392604756,-20436.222307231703,-8687.38546221083,-187500.02235174447,-187500.02235174447,-187500.02235174447,-187500.02235174447
$SILENCE,22941.74110194935,-14793.412660767159,-20602.742803423742,-8770.533951584572,-187500.02235174447,-187500.02235174447,-187500.02235174447,-187500.02235174447
$SILENCE,22874.127074972042,-14849.381428883247,-20959.275479230342,-8788.16947795981,-187500.02235174447,-187500.02235174447,-187500.02235174447,-187500.02235174447
$SILENCE,22935.616723968593,-14797.54773349139,-20823.39922468653,-8699.164831538777,-187500.02235174447,-187500.02235174447,-187500.02235174447,-187500.02235174447
$SILENCE,23026.141289012587,-14727.743235557466,-20469.66051693684,-8687.318406977463,-187500.02235174447,-187500.02235174447,-187500.02235174447,-187500.02235174447
$SILENCE,22994.424163630505,-14764.06482029734,-20521.382453606424,-8765.057774193023,-187500.02235174447,-187500.02235174447,-187500.02235174447,-187500.02235174447
$SILENCE,22878.128037229544,-14851.258975417493,-20946.91496454656,-8821.719446387226,-187500.02235174447,-187500.02235174447,-187500.02235174447,-187500.02235174447
$SILENCE,22898.37871770605,-14816.211440111572,-20906.681824527004,-8759.49218982365,-187500.02235174447,-187500.02235174447,-187500.02235174447,-187500.02235174447
$SILENCE,23022.430899433006,-14731.453625137046,-20494.180380604314,-8660.585720608917,-187500.02235174447,-187500.02235174447,-187500.02235174447,-187500.02235174447
$SILENCE,23015.233637718396,-14745.49052065498,-20440.267972978112,-8706.429148486752,-187500.02235174447,-187500.02235174447,-187500.02235174447,-187500.02235174447
$SILENCE,22883.358345432087,-14836.685638032634,-20874.070629366714,-8815.21508875073,-187500.02235174447,-187500.02235174447,-187500.02235174447,-187500.02235174447
$SILENCE,22904.905427087,-14822.559335536878,-20919.087042699703,-8762.889654980858,-187500.02235174447,-187500.02235174447,-187500.02235174447,-187500.02235174447
$SILENCE,23002.202570700952,-14734.58286936079,-20570.422180941365,-8690.380595967841,-187500.02235174447,-187500.02235174447,-187500.02235174447,-187500.02235174447
$SILENCE,23020.821573832225,-14733.174709460105,-20410.629559830377,-8718.901421892813,-187500.02235174447,-187500.02235174447,-187500.02235174447,-187500.02235174447
$SILENCE,22890.175627490953,-14836.998562455006,-20820.582904885163,-8817.807891107546,-187500.02235174447,-187500.02235174447,-187500.02235174447,-187500.02235174447
$SILENCE,22880.027935508246,-14837.467949088568,-20968.28323224583,-8780.011091233622,-187500.02235174447,-187500.02235174447,-187500.02235174447,-187500.02235174447
$SILENCE,22971.17834939699,-14748.284488711894,-20651.4249028474,-8697.756671638093,-187500.02235174447,-187500.02235174447,-187500.02235174447,-187500.02235174447
$SILENCE,23023.481431422406,-14718.020226719407,-20395.117449178393,-8679.71881386266,-187500.02235174447,-187500.02235174447,-187500.02235174447,-187500.02235174447
$SILENCE,22912.0579853127,-14820.234754113526,-20733.031121853724,-8779.564056344516,-187500.02235174447,-187500.02235174447,-187500.02235174447,-187500.02235174447
$SILENCE,22875.62464185055,-14848.286193404938,-20981.157837052087,-8813.829280594502,-187500.02235174447,-187500.02235174447,-187500.02235174447,-187500.02235174447
$SILENCE,22971.245404630354,-14763.39426796368,-20704.778516862218,-8719.72843643766,-187500.02235174447,-187500.02235174447,-187500.02235174447,-187500.02235174447
$SILENCE,23031.483355937406,-14700.42940383308,-20391.11648692089,-8687.206648255187,-187500.02235174447,-187500.02235174447,-187500.02235174447,-187500.02235174447
$SILENCE,22951.911145676513,-14791.512762488457,-20642.819481232105,-8783.319149413008,-187500.02235174447,-187500.02235174447,-187500.02235174447,-187500.02235174447
$SILENCE,22882.553682631697,-14851.638955073233,-20971.21131076948,-8771.338614384964,-187500.02235174447,-187500.02235174447,-187500.02235174447,-187500.02235174447
$SILENCE,22943.059854872212,-14780.40394549417,-20775.87941597455,-8670.509895147074,-187500.02235174447,-187500.02235174447,-187500.02235174447,-187500.02235174447
$SILENCE,23016.574742385717,-14716.902639496642,-20430.500260651144,-8684.993825554113,-187500.02235174447,-187500.02235174447,-187500.02235174447,-187500.02235174447
$SILENCE,22941.897564160536,-14780.314538516348,-20599.92648362237,-8818.210222507741,-187500.02235174447,-187500.02235174447,-187500.02235174447,-187500.02235174447
$SILENCE,22856.200975918888,-14855.394048141725,-20980.286119018332,-8850.776714179125,-187500.02235174447,-187500.02235174447,-187500.02235174447,-187500.02235174447
$SILENCE,22931.794575666736,-14792.607997966767,-20831.803480601728,-8741.856663448414,-187500.02235174447,-187500.02235174447,-187500.02235174447,-187500.02235174447
$SILENCE,23030.79045185929,-14717.640247063668,-20450.99681031666,-8640.357391876863,-187500.02235174447,-187500.02235174447,-187500.02235174447,-187500.02235174447
$SILENCE,22991.49608510686,-14765.271814497926,-20494.24743583768,-8691.095851790411,-187500.02235174447,-187500.02235174447,-187500.02235174447,-187500.02235174447
$SILENCE,22890.354441446598,-14847.325068393358,-20911.934484474004,-8791.432832650284,-187500.02235174447,-187500.02235174447,-187500.02235174447,-187500.02235174447
$SILENCE,22908.414650966486,-14807.74012896301,-20895.483600554897,-8766.443582349251,-187500.02235174447,-187500.02235174447,-187500.02235174447,-187500.02235174447
$SILENCE,22999.69917532196,-14728.257325679939,-20538.883869514928,-8702.316427506976,-187500.02235174447,-187500.02235174447,-187500.02235174447,-187500.02235174447
$SILENCE,23007.49993413686,-14746.451645666559,-20452.80730161754,-8740.068523891989,-187500.02235174447,-187500.02235174447,-187500.02235174447,-187500.02235174447
$SILENCE,22891.24851122481,-14837.535004321935,-20870.181425831488,-8820.467748697729,-187500.02235174447,-187500.02235174447,-187500.02235174447,-187500.02235174447
$SILENCE,22892.72372635886,-14819.161870379672,-20934.219173695943,-8760.475666579685,-187500.02235174447,-187500.02235174447,-187500.02235174447,-187500.02235174447
$SILENCE,22987.45041936045,-14741.087226997284,-20588.28122476116,-8687.340758721919,-187500.02235174447,-187500.02235174447,-187500.02235174447,-187500.02235174447
$SILENCE,23017.960550541946,-14724.43517737808,-20409.08728946296,-8706.272686275564,-187500.02235174447,-187500.02235174447,-187500.02235174447,-187500.02235174447
$SILENCE,22900.0550985402,-14822.93931519262,-20792.464410360386,-8784.436736635773,-187500.02235174447,-187500.02235174447,-187500.02235174447,-187500.02235174447
$SILENCE,22870.081409225633,-14839.099626433806,-20965.95865082248,-8745.96938442819,-187500.02235174447,-187500.02235174447,-187500.02235174447,-187500.02235174447
$SILENCE,22976.475712832897,-14757.53811091639,-20659.024495962203,-8690.67116864576,-187500.02235174447,-187500.02235174447,-187500.02235174447,-187500.02235174447
$SILENCE,23050.66115268006,-14719.562497086823,-20384.857998473406,-8697.980189082646,-187500.02235174447,-187500.02235174447,-187500.02235174447,-187500.02235174447
$SILENCE,22938.58950598115,-14808.075405129839,-20714.389766977998,-8807.21316423573,-187500.02235174447,-187500.02235174447,-187500.02235174447,-187500.02235174447
$SILENCE,22886.174665233455,-14843.234699158038,-20975.368735238164,-8799.010074020634,-187500.02235174447,-187500.02235174447,-187500.02235174447,-187500.02235174447
$SILENCE,22976.967451210912,-14768.892797099687,-20710.254694253767,-8690.224133756654,-187500.02235174447,-187500.02235174447,-187500.02235174447,-187500.02235174447
$SILENCE,23046.146100300088,-14717.215563919017,-20392.971681710682,-8677.796563839504,-187500.02235174447,-187500.02235174447,-187500.02235174447,-187500.02235174447
$SILENCE,22952.87227068809,-14794.239675312005,-20639.958457941826,-8789.957617516235,-187500.02235174447,-187500.02235174447,-187500.02235174447,-187500.02235174447
$SILENCE,22879.33503143013,-14846.475702104057,-20974.742886393415,-8816.153862017854,-187500.02235174447,-187500.02235174447,-187500.02235174447,-187500.02235174447
$SILENCE,22952.24642184334,-14778.705212915565,-20778.293404375723,-8707.502032220607,-187500.02235174447,-187500.02235174447,-187500.02235174447,-187500.02235174447
$SILENCE,23036.601905417672,-14715.315665640315,-20428.95799028373,-8662.664432843261,-187500.02235174447,-187500.02235174447,-187500.02235174447,-187500.02235174447
$SILENCE,22963.757570237824,-14769.764515133444,-20572.120913519968,-8761.526198569083,-187500.02235174447,-187500.02235174447,-187500.02235174447,-187500.02235174447
$SILENCE,22858.90553699798,-14847.772103282465,-20967.2997554898,-8814.298667228064,-187500.02235174447,-187500.02235174447,-187500.02235174447,-187500.02235174447
$SILENCE,22916.86361037059,-14797.279512557927,-20854.46814947941,-8729.451445275718,-187500.02235174447,-187500.02235174447,-187500.02235174447,-187500.02235174447
$SILENCE,23031.483355937406,-14719.495441853458,-20462.28444126659,-8639.955060476668,-187500.02235174447,-187500.02235174447,-187500.02235174447,-187500.02235174447
$SILENCE,23013.780774328803,-14760.376782462214,-20482.110438598447,-8727.171567341276,-187500.02235174447,-187500.02235174447,-187500.02235174447,-187500.02235174447
$SILENCE,22887.806342578693,-14845.715742792576,-20918.14826943258,-8845.568757721037,-187500.02235174447,-187500.02235174447,-187500.02235174447,-187500.02235174447
$SILENCE,22913.466145213384,-14812.970437165552,-20897.875237211614,-8776.099535953945,-187500.02235174447,-187500.02235174447,-187500.02235174447,-187500.02235174447
$SILENCE,23011.098564994165,-14724.457529122536,-20524.087014685516,-8670.71106084717,-187500.02235174447,-187500.02235174447,-187500.02235174447,-187500.02235174447
$SILENCE,23020.598056387673,-14741.266040952927,-20429.76265308412,-8702.517593207072,-187500.02235174447,-187500.02235174447,-187500.02235174447,-187500.02235174447
$SILENCE,22898.44577293942,-14839.434902600635,-20859.072608837203,-8814.231611994697,-187500.02235174447,-187500.02235174447,-187500.02235174447,-187500.02235174447
$SILENCE,22893.1037060146,-14823.296943103904,-20940.544717376797,-8767.672928294292,-187500.02235174447,-187500.02235174447,-187500.02235174447,-187500.02235174447
$SILENCE,23001.30850092274,-14735.923974028108,-20582.179198524856,-8669.124086990843,-187500.02235174447,-187500.02235174447,-187500.02235174447,-187500.02235174447
$SILENCE,23036.490146695396,-14724.591639589267,-20385.774419996076,-8674.399098682297,-187500.02235174447,-187500.02235174447,-187500.02235174447,-187500.02235174447
$SILENCE,22927.324226775676,-14823.766329737466,-20768.838616471126,-8787.208352948232,-187500.02235174447,-187500.02235174447,-187500.02235174447,-187500.02235174447
$SILENCE,22895.92002581597,-14837.669114788667,-20956.77208385135,-8766.935320727269,-187500.02235174447,-187500.02235174447,-187500.02235174447,-187500.02235174447
$SILENCE,22979.78377101228,-14758.767456861433,-20662.28785065268,-8676.656624872283,-187500.02235174447,-187500.02235174447,-187500.02235174447,-187500.02235174447
$SILENCE,23034.813765861247,-14723.33994189977,-20402.739394037653,-8687.340758721919,-187500.02235174447,-187500.02235174447,-187500.02235174447,-187500.02235174447
$SILENCE,22925.603142452615,-14802.710986460566,-20723.15165080448,-8809.403635192351,-187500.02235174447,-187500.02235174447,-187500.02235174447,-187500.02235174447
$SILENCE,22875.53523487273,-14838.496129333513,-20983.929453364548,-8802.36283568893,-187500.02235174447,-187500.02235174447,-187500.02235174447,-187500.02235174447
$SILENCE,22963.087017904167,-14773.720773902032,-20724.470403727344,-8686.692558132716,-187500.02235174447,-187500.02235174447,-187500.02235174447,-187500.02235174447
$SILENCE,23061.859376652166,-14704.877400979687,-20382.3098996055,-8657.322365918442,-187500.02235174447,-187500.02235174447,-187500.02235174447,-187500.02235174447
$SILENCE,22977.839169244668,-14779.44282048259,-20612.532867495163,-8775.697204553748,-187500.02235174447,-187500.02235174447,-187500.02235174447,-187500.02235174447
$SILENCE,22888.856874568093,-14844.575803825355,-20959.208423996977,-8807.481385169194,-187500.02235174447,-187500.02235174447,-187500.02235174447,-187500.02235174447
$SILENCE,22951.68762823196,-14790.01519560995,-20784.864817245583,-8703.299904263009,-187500.02235174447,-187500.02235174447,-187500.02235174447,-187500.02235174447
$SILENCE,23031.08102453721,-14726.491537867969,-20436.490528165166,-8654.506046117074,-187500.02235174447,-187500.02235174447,-187500.02235174447,-187500.02235174447
$SILENCE,22980.476675090395,-14770.97150933403,-20551.512605132175,-8745.522349539084,-187500.02235174447,-187500.02235174447,-187500.02235174447,-187500.02235174447
$SILENCE,22888.253377467798,-14838.943164222619,-20940.298848187787,-8805.827356079502,-187500.02235174447,-187500.02235174447,-187500.02235174447,-187500.02235174447
$SILENCE,22941.249363571333,-14798.821782925343,-20840.922992339492,-8734.748808711625,-187500.02235174447,-187500.02235174447,-187500.02235174447,-187500.02235174447
$SILENCE,23041.69810315348,-14722.512927354925,-20461.770351144118,-8671.918055047758,-187500.02235174447,-187500.02235174447,-187500.02235174447,-187500.02235174447
$SILENCE,23010.383309171597,-14745.959907288541,-20472.700354182765,-8727.059808619,-187500.02235174447,-187500.02235174447,-187500.02235174447,-187500.02235174447
$SILENCE,22884.274766954753,-14836.730341521543,-20906.748879760373,-8813.494004427672,-187500.02235174447,-187500.02235174447,-187500.02235174447,-187500.02235174447
$SILENCE,22905.464220698384,-14807.158983607173,-20905.273664626322,-8758.240492134153,-187500.02235174447,-187500.02235174447,-187500.02235174447,-187500.02235174447
$SILENCE,23026.767137857336,-14728.816119291321,-20517.247380882192,-8653.969604250145,-187500.02235174447,-187500.02235174447,-187500.02235174447,-187500.02235174447
$SILENCE,23041.04990256428,-14736.974506017508,-20410.964835997205,-8687.586627910929,-187500.02235174447,-187500.02235174447,-187500.02235174447,-187500.02235174447
$SILENCE,22907.721746888372,-14834.048132186907,-20837.21260275991,-8810.811795093035,-187500.02235174447,-187500.02235174447,-187500.02235174447,-187500.02235174447
$SILENCE,22903.11728753058,-14824.436882071124,-20937.929563275524,-8774.11023069742,-187500.02235174447,-187500.02235174447,-187500.02235174447,-187500.02235174447
$SILENCE,23008.014024259333,-14741.891889797675,-20596.64077718744,-8684.01034879808,-187500.02235174447,-187500.02235174447,-187500.02235174447,-187500.02235174447
$SILENCE,23036.244277506386,-14721.618857576712,-20397.68789979075,-8699.43305247224,-187500.02235174447,-187500.02235174447,-187500.02235174447,-187500.02235174447
$SILENCE,22924.418499996485,-14815.31737033336,-20771.4537705724,-8796.394919919363,-187500.02235174447,-187500.02235174447,-187500.02235174447,-187500.02235174447
$SILENCE,22899.652767140004,-14824.392178582213,-20957.554394907285,-8768.298777139042,-187500.02235174447,-187500.02235174447,-187500.02235174447,-187500.02235174447
$SILENCE,22985.103486192642,-14756.666392882633,-20668.121655955514,-8677.52834290604,-187500.02235174447,-187500.02235174447,-187500.02235174447,-187500.02235174447
$SILENCE,23035.484318194907,-14720.43421512058,-20399.297225391536,-8676.701328361194,-187500.02235174447,-187500.02235174447,-187500.02235174447,-187500.02235174447
$SILENCE,22931.593409966637,-14805.236733584015,-20703.504467428265,-8776.904198754335,-187500.02235174447,-187500.02235174447,-187500.02235174447,-187500.02235174447
$SILENCE,22889.058040268188,-14839.703123534098,-20969.646688657605,-8797.132527486388,-187500.02235174447,-187500.02235174447,-187500.02235174447,-187500.02235174447
$SILENCE,22984.142361181064,-14762.388439463191,-20717.96604609085,-8708.44080548773,-187500.02235174447,-187500.02235174447,-187500.02235174447,-187500.02235174447
$SILENCE,23056.785530660814,-14703.491592823459,-20386.780248496565,-8652.360278649365,-187500.02235174447,-187500.02235174447,-187500.02235174447,-187500.02235174447
$SILENCE,22975.69340177696,-14779.44282048259,-20603.770983668684,-8761.012108446612,-187500.02235174447,-187500.02235174447,-187500.02235174447,-187500.02235174447
$SILENCE,22898.982214806347,-14841.357152623792,-20954.603964639184,-8802.228725222198,-187500.02235174447,-187500.02235174447,-187500.02235174447,-187500.02235174447
$SILENCE,22963.93638419347,-14781.92386411713,-20789.625738814564,-8700.684750161738,-187500.02235174447,-187500.02235174447,-187500.02235174447,-187500.02235174447
$SILENCE,23050.817614891246,-14714.756872028933,-20427.236905960668,-8660.250444442087,-187500.02235174447,-187500.02235174447,-187500.02235174447,-187500.02235174447
$SILENCE,22989.9761664839,-14761.136741773695,-20546.505814374188,-8774.289044653064,-187500.02235174447,-187500.02235174447,-187500.02235174447,-187500.02235174447
$SILENCE,22876.00462150629,-14840.753655523498,-20955.58744139522,-8836.739818661192,-187500.02235174447,-187500.02235174447,-187500.02235174447,-187500.02235174447
$SILENCE,22921.87040112858,-14801.88397191572,-20861.03956234927,-8733.385352299852,-187500.02235174447,-187500.02235174447,-187500.02235174447,-187500.02235174447
$SILENCE,23035.484318194907,-14711.024130704896,-20469.369944258924,-8630.008534194058,-187500.02235174447,-187500.02235174447,-187500.02235174447,-187500.02235174447
$SILENCE,23022.855582577657,-14733.91231702713,-20456.76356038613,-8705.020988586068,-187500.02235174447,-187500.02235174447,-187500.02235174447,-187500.02235174447
$SILENCE,22901.642072396528,-14836.439768843624,-20890.85678945265,-8820.803024864557,-187500.02235174447,-187500.02235174447,-187500.02235174447,-187500.02235174447
$SILENCE,22933.180383822964,-14812.478698787536,-20888.912187685037,-8742.013125659601,-187500.02235174447,-187500.02235174447,-187500.02235174447,-187500.02235174447
$SILENCE,23035.998408317377,-14727.653828579645,-20520.287218128113,-8640.357391876863,-187500.02235174447,-187500.02235174447,-187500.02235174447,-187500.02235174447
$SILENCE,23046.727245655926,-14730.760721058932,-20402.068841703993,-8669.861694557869,-187500.02235174447,-187500.02235174447,-187500.02235174447,-187500.02235174447
$SILENCE,22920.037558083244,-14827.543774550411,-20827.042559032747,-8819.55132717506,-187500.02235174447,-187500.02235174447,-187500.02235174447,-187500.02235174447
$SILENCE,22916.30481675921,-14817.731358734532,-20936.499051630384,-8783.430908135284,-187500.02235174447,-187500.02235174447,-187500.02235174447,-187500.02235174447
$SILENCE,23007.723451581416,-14738.337962429281,-20612.08583260606,-8697.890782104825,-187500.02235174447,-187500.02235174447,-187500.02235174447,-187500.02235174447
$SILENCE,23034.210268760955,-14719.361331386726,-20405.019271972094,-8707.747901409615,-187500.02235174447,-187500.02235174447,-187500.02235174447,-187500.02235174447
$SILENCE,22918.53999120474,-14821.93348669213,-20767.005773425793,-8785.30845466953,-187500.02235174447,-187500.02235174447,-187500.02235174447,-187500.02235174447
$SILENCE,22897.52935141675,-14832.371751352759,-20956.682676873526,-8759.469838079196,-187500.02235174447,-187500.02235174447,-187500.02235174447,-187500.02235174447
$SILENCE,22992.725431051902,-14746.719866600022,-20665.394743131965,-8685.820840098959,-187500.02235174447,-187500.02235174447,-187500.02235174447,-187500.02235174447
$SILENCE,23066.50853949887,-14702.619874789701,-20372.519835534076,-8672.76742133706,-187500.02235174447,-187500.02235174447,-187500.02235174447,-187500.02235174447
$SILENCE,22959.041352157754,-14794.776117178932,-20675.967118259327,-8789.085899482478,-187500.02235174447,-187500.02235174447,-187500.02235174447,-187500.02235174447
$SILENCE,22893.573092648163,-14840.530138078946,-20967.92560433455,-8804.329789200996,-187500.02235174447,-187500.02235174447,-187500.02235174447,-187500.02235174447
talvez,22967.244442372852,-14771.64206166769,-20740.831880668626,-8712.285305534042,-187500.02235174447,-187500.02235174447,-187500.02235174447,-187500.02235174447
talvez,23047.55426020077,-14708.699549281544,-20405.823934772485,-8664.47492414414,-187500.02235174447,-187500.02235174447,-187500.02235174447,-187500.02235174447
talvez,22978.666183789515,-14779.867503627242,-20598.54067546614,-8750.417381574796,-187500.02235174447,-187500.02235174447,-187500.02235174447,-187500.02235174447
talvez,22883.604214621093,-14843.726437536054,-20968.886729346126,-8812.398768949362,-187500.02235174447,-187500.02235174447,-187500.02235174447,-187500.02235174447
talvez,22958.68372424647,-14777.118239059238,-20802.187419198446,-8718.856718403902,-187500.02235174447,-187500.02235174447,-187500.02235174447,-187500.02235174447
talvez,23062.59698421919,-14705.637360291168,-20423.481812892176,-8647.599357080384,-187500.02235174447,-187500.02235174447,-187500.02235174447,-187500.02235174447
talvez,23010.204495215952,-14755.526453915412,-20515.68275877032,-8748.517483296095,-187500.02235174447,-187500.02235174447,-187500.02235174447,-187500.02235174447
talvez,22905.240703253832,-14840.261917145483,-20916.360129876153,-8808.286047969586,-187500.02235174447,-187500.02235174447,-187500.02235174447,-187500.02235174447
talvez,22949.49715727534,-14797.681843958122,-20847.919088354003,-8727.171567341276,-187500.02235174447,-187500.02235174447,-187500.02235174447,-187500.02235174447
talvez,23047.017818333843,-14716.567363329812,-20484.25620606616,-8651.220339682144,-187500.02235174447,-187500.02235174447,-187500.02235174447,-187500.02235174447
talvez,23013.579608628705,-14741.690724097578,-20469.347592514467,-8719.77313992657,-187500.02235174447,-187500.02235174447,-187500.02235174447,-187500.02235174447
talvez,22899.18338050644,-14836.17154791016,-20884.933577171993,-8802.206373477742,-187500.02235174447,-187500.02235174447,-187500.02235174447,-187500.02235174447
talvez,22926.452508741917,-14804.946160906096,-20897.22703662241,-8732.088951121445,-187500.02235174447,-187500.02235174447,-187500.02235174447,-187500.02235174447
talvez,23019.525172653815,-14724.479880866991,-20546.68462832983,-8648.359316391863,-187500.02235174447,-187500.02235174447,-187500.02235174447,-187500.02235174447
talvez,23036.870126351136,-14727.922049513109,-20415.79281279955,-8690.939389579224,-187500.02235174447,-187500.02235174447,-187500.02235174447,-187500.02235174447
talvez,22925.67019768598,-14824.235716371026,-20817.766585083795,-8808.375454947407,-187500.02235174447,-187500.02235174447,-187500.02235174447,-187500.02235174447
talvez,22916.707148159403,-14818.625428512745,-20936.208478952467,-8781.531009856584,-187500.02235174447,-187500.02235174447,-187500.02235174447,-187500.02235174447
talvez,23002.113163723134,-14742.338924686781,-20612.30935005061,-8693.062805302477,-187500.02235174447,-187500.02235174447,-187500.02235174447,-187500.02235174447
talvez,23035.394911217085,-14715.248610406949,-20396.212684656704,-8696.01323557058,-187500.02235174447,-187500.02235174447,-187500.02235174447,-187500.02235174447
talvez,22931.280485544263,-14798.285341058416,-20746.48687201582,-8788.571809360004,-187500.02235174447,-187500.02235174447,-187500.02235174447,-187500.02235174447
talvez,22903.67608114196,-14818.848945957297,-20951.988810537914,-8772.07622195199,-187500.02235174447,-187500.02235174447,-187500.02235174447,-187500.02235174447
talvez,22987.74099203837,-14748.552709645357,-20670.46858912332,-8676.634273127827,-187500.02235174447,-187500.02235174447,-187500.02235174447,-187500.02235174447
talvez,23044.603829932672,-14706.129098669184,-20386.780248496565,-8662.262101443064,-187500.02235174447,-187500.02235174447,-187500.02235174447,-187500.02235174447
talvez,22946.12204386259,-14793.278550300427,-20671.295603668168,-8761.190922402255,-187500.02235174447,-187500.02235174447,-187500.02235174447,-187500.02235174447
talvez,22891.293214713718,-14837.020914199462,-20970.67486890255,-8796.774899575103,-187500.02235174447,-187500.02235174447,-187500.02235174447,-187500.02235174447
talvez,22969.63607902957,-14768.982204077507,-20752.141863363013,-8713.20172705671,-187500.02235174447,-187500.02235174447,-187500.02235174447,-187500.02235174447
talvez,23028.443518691485,-14714.91333424012,-20426.65576060483,-8667.850037556891,-187500.02235174447,-187500.02235174447,-187500.02235174447,-187500.02235174447
talvez,22951.240593342853,-14778.906378615664,-20603.301597035123,-8764.431925348274,-187500.02235174447,-187500.02235174447,-187500.02235174447,-187500.02235174447
talvez,22888.499246656807,-14829.466024573569,-20952.569955893752,-8810.521222415116,-187500.02235174447,-187500.02235174447,-187500.02235174447,-187500.02235174447
talvez,22961.92472719249,-14770.457419211558,-20790.229235914856,-8699.924790850257,-187500.02235174447,-187500.02235174447,-187500.02235174447,-187500.02235174447
talvez,23055.80205390478,-14698.328339854283,-20431.23786821817,-8641.966717477646,-187500.02235174447,-187500.02235174447,-187500.02235174447,-187500.02235174447
talvez,23005.153000969054,-14744.06000900984,-20512.888790713405,-8736.626355245871,-187500.02235174447,-187500.02235174447,-187500.02235174447,-187500.02235174447
talvez,22891.740249602826,-14828.706065262088,-20928.47477537093,-8817.405559707351,-187500.02235174447,-187500.02235174447,-187500.02235174447,-187500.02235174447
talvez,22924.709072674403,-14791.624521210733,-20871.924861899002,-8749.411553074307,-187500.02235174447,-187500.02235174447,-187500.02235174447,-187500.02235174447
talvez,23026.23069599041,-14720.657732565134,-20499.72361322923,-8662.262101443064,-187500.02235174447,-187500.02235174447,-187500.02235174447,-187500.02235174447
talvez,23019.368710442628,-14737.220375206516,-20458.864624364927,-8713.20172705671,-187500.02235174447,-187500.02235174447,-187500.02235174447,-187500.02235174447
talvez,22901.776182863257,-14830.717722263065,-20880.820856192215,-8792.975103017701,-187500.02235174447,-187500.02235174447,-187500.02235174447,-187500.02235174447
talvez,22919.38935749404,-14806.17550685114,-20908.3358536167,-8714.855756146402,-187500.02235174447,-187500.02235174447,-187500.02235174447,-187500.02235174447
talvez,23019.70398660946,-14722.982313988485,-20557.92755579085,-8655.288357173009,-187500.02235174447,-187500.02235174447,-187500.02235174447,-187500.02235174447
talvez,23027.951780313466,-14715.919162740609,-20427.616885616408,-8727.39508478583,-187500.02235174447,-187500.02235174447,-187500.02235174447,-187500.02235174447
talvez,22900.39037470703,-14814.043320899407,-20833.792785858248,-8814.276315483608,-187500.02235174447,-187500.02235174447,-187500.02235174447,-187500.02235174447
talvez,22913.510848702295,-14817.083158145328,-20942.735188333416,-8776.859495265424,-187500.02235174447,-187500.02235174447,-187500.02235174447,-187500.02235174447
talvez,23020.50864940985,-14733.19706120456,-20608.286036048656,-8680.076441773945,-187500.02235174447,-187500.02235174447,-187500.02235174447,-187500.02235174447
talvez,23061.389990018608,-14701.792860244854,-20372.586890767445,-8659.401078152785,-187500.02235174447,-187500.02235174447,-187500.02235174447,-187500.02235174447
talvez,22938.92478214798,-14797.458326513568,-20730.930057874928,-8775.36192838692,-187500.02235174447,-187500.02235174447,-187500.02235174447,-187500.02235174447
talvez,22890.555607146696,-14824.258068115481,-20968.439694457018,-8781.016919734111,-187500.02235174447,-187500.02235174447,-187500.02235174447,-187500.02235174447
talvez,22971.17834939699,-14752.799541091865,-20700.062298782148,-8696.48262220414,-187500.02235174447,-187500.02235174447,-187500.02235174447,-187500.02235174447
talvez,23024.867239578634,-14697.322511353794,-20410.406042385825,-8681.19402899671,-187500.02235174447,-187500.02235174447,-187500.02235174447,-187500.02235174447
talvez,22931.124023333075,-14780.426297238624,-20671.407362390444,-8782.939169757268,-187500.02235174447,-187500.02235174447,-187500.02235174447,-187500.02235174447
talvez,22872.160121459976,-14828.393140839713,-20977.38039223914,-8804.396844434363,-187500.02235174447,-187500.02235174447,-187500.02235174447,-187500.02235174447
talvez,22963.69051500446,-14762.030811551907,-20757.081598887635,-8695.76736638157,-187500.02235174447,-187500.02235174447,-187500.02235174447,-187500.02235174447
talvez,23053.835100392713,-14699.20005788804,-20406.673301061786,-8646.459418113163,-187500.02235174447,-187500.02235174447,-187500.02235174447,-187500.02235174447
talvez,22973.190006397966,-14769.7868668779,-20579.966375823784,-8737.028686646066,-187500.02235174447,-187500.02235174447,-187500.02235174447,-187500.02235174447
talvez,22879.24562445231,-14838.853757244797,-20958.828444341238,-8799.59121937647,-187500.02235174447,-187500.02235174447,-187500.02235174447,-187500.02235174447
talvez,22931.459299499908,-14785.768364163443,-20827.847221833137,-8724.57876498446,-187500.02235174447,-187500.02235174447,-187500.02235174447,-187500.02235174447
talvez,23028.30940822475,-14708.498383581447,-20458.484644709188,-8670.264025958066,-187500.02235174447,-187500.02235174447,-187500.02235174447,-187500.02235174447
talvez,22993.865370019124,-14746.988087533486,-20516.800345993084,-8747.73517224016,-187500.02235174447,-187500.02235174447,-187500.02235174447,-187500.02235174447
talvez,22887.24754896731,-14831.991771697018,-20929.681769571518,-8812.242306738175,-187500.02235174447,-187500.02235174447,-187500.02235174447,-187500.02235174447
talvez,22924.262037785298,-14789.456401998568,-20876.864597423628,-8725.875166162868,-187500.02235174447,-187500.02235174447,-187500.02235174447,-187500.02235174447
talvez,23032.17626001552,-14704.072738179297,-20492.079316625513,-8642.972545978135,-187500.02235174447,-187500.02235174447,-187500.02235174447,-187500.02235174447
talvez,23027.772966357825,-14722.28940991037,-20435.12707175339,-8706.71972116467,-187500.02235174447,-187500.02235174447,-187500.02235174447,-187500.02235174447
talvez,22905.263054998286,-14818.714835490566,-20860.972507115905,-8805.559135146039,-187500.02235174447,-187500.02235174447,-187500.02235174447,-187500.02235174447
talvez,22905.19599976492,-14803.493297516501,-20917.70123454347,-8748.741000740649,-187500.02235174447,-187500.02235174447,-187500.02235174447,-187500.02235174447
talvez,23000.392079400073,-14723.518755855413,-20574.3560879655,-8672.722717848148,-187500.02235174447,-187500.02235174447,-187500.02235174447,-187500.02235174447
talvez,23030.298713481276,-14713.706340039533,-20411.255408675126,-8705.49037521963,-187500.02235174447,-187500.02235174447,-187500.02235174447,-187500.02235174447
talvez,22909.755755633803,-14814.825631955342,-20806.993044256335,-8813.516356172127,-187500.02235174447,-187500.02235174447,-187500.02235174447,-187500.02235174447
talvez,22899.362194462086,-14816.5467162784,-20949.44071167001,-8762.35321311393,-187500.02235174447,-187500.02235174447,-187500.02235174447,-187500.02235174447
talvez,22993.060707218734,-14736.125139728207,-20627.79910895814,-8664.13964797731,-187500.02235174447,-187500.02235174447,-187500.02235174447,-187500.02235174447
talvez,23031.97509431542,-14707.939589970065,-20388.523684564076,-8660.496313631096,-187500.02235174447,-187500.02235174447,-187500.02235174447,-187500.02235174447
talvez,22920.842220883635,-14803.828573683331,-20727.711406673363,-8764.49898058164,-187500.02235174447,-187500.02235174447,-187500.02235174447,-187500.02235174447
talvez,22880.27380469725,-14824.213364626572,-20967.322107234253,-8789.510582627128,-187500.02235174447,-187500.02235174447,-187500.02235174447,-187500.02235174447
talvez,22969.613727285116,-14739.500253140957,-20699.749374359773,-8698.114299549377,-187500.02235174447,-187500.02235174447,-187500.02235174447,-187500.02235174447
talvez,23030.254009992364,-14689.208828116516,-20400.6159783144,-8648.269909414043,-187500.02235174447,-187500.02235174447,-187500.02235174447,-187500.02235174447
talvez,22952.916974177002,-14775.531265202913,-20648.69799002385,-8758.084029922966,-187500.02235174447,-187500.02235174447,-187500.02235174447,-187500.02235174447
talvez,22888.901578057,-14826.69440826111,-20964.841063599713,-8802.988684533679,-187500.02235174447,-187500.02235174447,-187500.02235174447,-187500.02235174447
talvez,22954.97333466689,-14757.940442316585,-20766.312869347676,-8721.404817271807,-187500.02235174447,-187500.02235174447,-187500.02235174447,-187500.02235174447
talvez,23029.09171928069,-14691.891037451154,-20421.4701558912,-8669.548770135496,-187500.02235174447,-187500.02235174447,-187500.02235174447,-187500.02235174447
talvez,22968.0714569177,-14755.660564382144,-20575.02664029916,-8756.362945599907,-187500.02235174447,-187500.02235174447,-187500.02235174447,-187500.02235174447
talvez,22874.641165094516,-14835.948030465608,-20963.410551954574,-8799.457108909739,-187500.02235174447,-187500.02235174447,-187500.02235174447,-187500.02235174447
talvez,22939.215354825898,-14774.771305891432,-20830.12709976758,-8703.277552518553,-187500.02235174447,-187500.02235174447,-187500.02235174447,-187500.02235174447
talvez,23039.37352173013,-14700.138831155162,-20439.06097877753,-8623.437121324198,-187500.02235174447,-187500.02235174447,-187500.02235174447,-187500.02235174447
talvez,22989.193855427966,-14738.472072896013,-20509.15604938937,-8747.511654795606,-187500.02235174447,-187500.02235174447,-187500.02235174447,-187500.02235174447
talvez,22880.85495005309,-14824.570992537856,-20924.1385369466,-8839.80200765157,-187500.02235174447,-187500.02235174447,-187500.02235174447,-187500.02235174447
talvez,22908.504057944305,-14791.289245043905,-20881.625518992605,-8752.20552113122,-187500.02235174447,-187500.02235174447,-187500.02235174447,-187500.02235174447
talvez,23013.378442928606,-14707.000816702941,-20507.81494472205,-8659.043450241501,-187500.02235174447,-187500.02235174447,-187500.02235174447,-187500.02235174447
talvez,23019.569876142727,-14721.954133743542,-20436.222307231703,-8699.254238516598,-187500.02235174447,-187500.02235174447,-187500.02235174447,-187500.02235174447
talvez,22920.95397960591,-14821.106472147283,-20848.522585454295,-8784.50379186914,-187500.02235174447,-187500.02235174447,-187500.02235174447,-187500.02235174447
talvez,22916.215409781387,-14805.572009750846,-20918.57295257723,-8755.647689777337,-187500.02235174447,-187500.02235174447,-187500.02235174447,-187500.02235174447
talvez,22996.547579353763,-14718.10963369723,-20580.16754152388,-8676.008424283078,-187500.02235174447,-187500.02235174447,-187500.02235174447,-187500.02235174447
talvez,23022.587361644193,-14703.782165501378,-20407.32150165099,-8681.484601674629,-187500.02235174447,-187500.02235174447,-187500.02235174447,-187500.02235174447
talvez,22894.04247928172,-14801.079309115328,-20802.45564013191,-8777.798268532548,-187500.02235174447,-187500.02235174447,-187500.02235174447,-187500.02235174447
talvez,22870.304926670186,-14808.053053385383,-20965.95865082248,-8758.642823534348,-187500.02235174447,-187500.02235174447,-187500.02235174447,-187500.02235174447
talvez,22965.724523749894,-14732.012418748429,-20661.483187852285,-8709.066654332479,-187500.02235174447,-187500.02235174447,-187500.02235174447,-187500.02235174447
talvez,23037.250106006875,-14696.651959020133,-20397.28556839056,-8687.653683144294,-187500.02235174447,-187500.02235174447,-187500.02235174447,-187500.02235174447
talvez,22930.386415766054,-14791.713928188556,-20723.06224382666,-8776.323053398497,-187500.02235174447,-187500.02235174447,-187500.02235174447,-187500.02235174447
talvez,22865.52165335675,-14822.93931519262,-20981.336651007732,-8773.506733597129,-187500.02235174447,-187500.02235174447,-187500.02235174447,-187500.02235174447
talvez,22929.00060760982,-14746.921032300119,-20740.76482543526,-8693.845116358414,-187500.02235174447,-187500.02235174447,-187500.02235174447,-187500.02235174447
talvez,23013.69136735098,-14692.494534551446,-20419.07851923448,-8674.063822515467,-187500.02235174447,-187500.02235174447,-187500.02235174447,-187500.02235174447
talvez,22947.373741552085,-14772.245558767983,-20650.642591791464,-8773.417326619307,-187500.02235174447,-187500.02235174447,-187500.02235174447,-187500.02235174447
talvez,22876.965746517868,-14822.157004136683,-20970.58546192473,-8779.519352855606,-187500.02235174447,-187500.02235174447,-187500.02235174447,-187500.02235174447
talvez,22945.563250251205,-14755.526453915412,-20776.371154352564,-8694.225096014154,-187500.02235174447,-187500.02235174447,-187500.02235174447,-187500.02235174447
talvez,23028.734091369402,-14688.202999616027,-20427.818051316506,-8648.024040225035,-187500.02235174447,-187500.02235174447,-187500.02235174447,-187500.02235174447
talvez,22964.942212693957,-14749.290317212382,-20573.752590865206,-8723.416474272784,-187500.02235174447,-187500.02235174447,-187500.02235174447,-187500.02235174447
talvez,22858.056170708678,-14818.446614557102,-20962.96351706547,-8773.30556789703,-187500.02235174447,-187500.02235174447,-187500.02235174447,-187500.02235174447
talvez,22902.893770086022,-14763.193102263584,-20859.452588492943,-8711.748863667115,-187500.02235174447,-187500.02235174447,-187500.02235174447,-187500.02235174447
talvez,23010.428012660508,-14696.987235186964,-20479.987022875193,-8644.023077967535,-187500.02235174447,-187500.02235174447,-187500.02235174447,-187500.02235174447
talvez,22988.098619949655,-14735.186366461083,-20498.226046350723,-8702.852869373903,-187500.02235174447,-187500.02235174447,-187500.02235174447,-187500.02235174447
talvez,22878.66447909647,-14811.718739476055,-20915.24254265339,-8806.676722368804,-187500.02235174447,-187500.02235174447,-187500.02235174447,-187500.02235174447
talvez,22891.650842625004,-14786.953006619575,-20909.878123984116,-8766.108306182421,-187500.02235174447,-187500.02235174447,-187500.02235174447,-187500.02235174447
talvez,22991.809009529235,-14719.00370347544,-20537.54276484761,-8676.589569638916,-187500.02235174447,-187500.02235174447,-187500.02235174447,-187500.02235174447
talvez,22997.329890409696,-14723.406997133137,-20453.05317080655,-8703.143442051822,-187500.02235174447,-187500.02235174447,-187500.02235174447,-187500.02235174447
talvez,22891.58378739164,-14814.758576721977,-20859.966678615416,-8784.146163957854,-187500.02235174447,-187500.02235174447,-187500.02235174447,-187500.02235174447
talvez,22905.01718580928,-14796.340739290803,-20930.95581900547,-8731.731323210159,-187500.02235174447,-187500.02235174447,-187500.02235174447,-187500.02235174447
talvez,22983.762381525325,-14714.846279006753,-20602.429879001367,-8642.547862833484,-187500.02235174447,-187500.02235174447,-187500.02235174447,-187500.02235174447
talvez,23003.990710257378,-14700.541162555357,-20430.097929250947,-8673.057994014978,-187500.02235174447,-187500.02235174447,-187500.02235174447,-187500.02235174447
talvez,22898.669290383972,-14799.961721892563,-20803.08148897666,-8788.616512848916,-187500.02235174447,-187500.02235174447,-187500.02235174447,-187500.02235174447
talvez,22877.524540129252,-14809.97530340854,-20961.555357164783,-8765.92949222678,-187500.02235174447,-187500.02235174447,-187500.02235174447,-187500.02235174447
talvez,22968.11616040661,-14734.515814127424,-20665.059466965136,-8701.131785050844,-187500.02235174447,-187500.02235174447,-187500.02235174447,-187500.02235174447
talvez,23025.85071633467,-14704.34095911276,-20398.80548701352,-8679.405889440286,-187500.02235174447,-187500.02235174447,-187500.02235174447,-187500.02235174447
talvez,22922.29508427323,-14792.026852610928,-20720.983531592316,-8786.291931425563,-187500.02235174447,-187500.02235174447,-187500.02235174447,-187500.02235174447
talvez,22867.15333070199,-14816.971399423051,-20983.81769464227,-8799.747681587658,-187500.02235174447,-187500.02235174447,-187500.02235174447,-187500.02235174447
talvez,22953.1181398771,-14741.310744441838,-20728.85134564058,-8704.752767652604,-187500.02235174447,-187500.02235174447,-187500.02235174447,-187500.02235174447
talvez,23041.809861875758,-14689.00766241642,-20393.999861955628,-8656.718868818149,-187500.02235174447,-187500.02235174447,-187500.02235174447,-187500.02235174447
talvez,22964.58458478267,-14761.24850049597,-20616.958512897316,-8740.359096569908,-187500.02235174447,-187500.02235174447,-187500.02235174447,-187500.02235174447
talvez,22860.246641665297,-14817.463137801069,-20975.92752884955,-8803.815699078525,-187500.02235174447,-187500.02235174447,-187500.02235174447,-187500.02235174447
talvez,22943.238668827853,-14761.561424918345,-20780.550930565707,-8729.92083190928,-187500.02235174447,-187500.02235174447,-187500.02235174447,-187500.02235174447
talvez,23056.85258589418,-14693.902694452132,-20398.917245735796,-8656.517703118052,-187500.02235174447,-187500.02235174447,-187500.02235174447,-187500.02235174447
talvez,22987.383364127087,-14749.15620674565,-20527.551535076087,-8726.67982896326,-187500.02235174447,-187500.02235174447,-187500.02235174447,-187500.02235174447
talvez,22875.557586617182,-14814.959742422074,-20931.156984705565,-8792.259847195131,-187500.02235174447,-187500.02235174447,-187500.02235174447,-187500.02235174447
talvez,22920.73046216136,-14767.864616854742,-20842.621724918095,-8755.49122756615,-187500.02235174447,-187500.02235174447,-187500.02235174447,-187500.02235174447
talvez,23029.225829747418,-14687.353633326726,-20464.564319201032,-8687.608979655382,-187500.02235174447,-187500.02235174447,-187500.02235174447,-187500.02235174447
talvez,23005.108297480143,-14719.450738364547,-20464.54196745658,-8738.548605269028,-187500.02235174447,-187500.02235174447,-187500.02235174447,-187500.02235174447
talvez,22883.80538032119,-14806.421376040147,-20889.091001640678,-8812.622286393915,-187500.02235174447,-187500.02235174447,-187500.02235174447,-187500.02235174447
talvez,22916.81890688168,-14775.710079158554,-20870.874329909602,-8743.376582071374,-187500.02235174447,-187500.02235174447,-187500.02235174447,-187500.02235174447
talvez,23016.12770749661,-14700.228238132982,-20507.770241233142,-8655.914206017758,-187500.02235174447,-187500.02235174447,-187500.02235174447,-187500.02235174447
