WORD,Channel_1,Channel_2,Channel_3,Channel_4,Channel_5,Channel_6,Channel_7,Channel_8
não,11033.513967217681,-3510.3638184504293,8173.898836839061,7381.373033687239,-187500.02235174447,-187500.02235174447,-187500.02235174447,-187500.02235174447
não,10893.994378327654,-3504.127681747399,7851.832550982542,7430.479816255548,-187500.02235174447,-187500.02235174447,-187500.02235174447,-187500.02235174447
não,10798.910057414778,-3539.421086242329,7511.683703861679,7454.1056101448075,-187500.02235174447,-187500.02235174447,-187500.02235174447,-187500.02235174447
não,10948.197358631774,-3551.401621270373,7852.637213782932,7399.254429251484,-187500.02235174447,-187500.02235174447,-187500.02235174447,-187500.02235174447
não,11036.285583530138,-3513.7165801187257,8178.838572363684,7379.137859241708,-187500.02235174447,-187500.02235174447,-187500.02235174447,-187500.02235174447
não,10926.87379442141,-3502.898335802357,7938.177339813393,7425.763598175478,-187500.02235174447,-187500.02235174447,-187500.02235174447,-187500.02235174447
não,10799.200630092697,-3535.6659931738373,7533.767227383522,7457.972461935576,-187500.02235174447,-187500.02235174447,-187500.02235174447,-187500.02235174447
não,10916.569640227513,-3556.8107434285575,7765.465410407235,7411.681999168635,-187500.02235174447,-187500.02235174447,-187500.02235174447,-187500.02235174447
não,11037.51492947518,-3521.450283700262,8157.067973264215,7377.6849958521125,-187500.02235174447,-187500.02235174447,-187500.02235174447,-187500.02235174447
não,10945.269280108128,-3501.445472412762,8001.321017899635,7410.94439160161,-187500.02235174447,-187500.02235174447,-187500.02235174447,-187500.02235174447
não,10798.32891205894,-3529.049876815066,7562.980957386609,7452.719801988578,-187500.02235174447,-187500.02235174447,-187500.02235174447,-187500.02235174447
não,10876.828238585978,-3560.7446504526915,7679.120621576384,7417.962839360576,-187500.02235174447,-187500.02235174447,-187500.02235174447,-187500.02235174447
não,11037.8055021531,-3531.8214931275243,8151.323574939201,7373.236998705506,-187500.02235174447,-187500.02235174447,-187500.02235174447,-187500.02235174447
não,10983.624873593435,-3502.227783468698,8086.727033463363,7403.054225808886,-187500.02235174447,-187500.02235174447,-187500.02235174447,-187500.02235174447
não,10823.47462457116,-3525.1383215353876,7625.36467616137,7451.803380465911,-187500.02235174447,-187500.02235174447,-187500.02235174447,-187500.02235174447
não,10852.397781896327,-3556.2072463282643,7611.975981232641,7431.351534289305,-187500.02235174447,-187500.02235174447,-187500.02235174447,-187500.02235174447
não,11015.923144331355,-3538.705830419759,8069.605597210598,7381.305978453873,-187500.02235174447,-187500.02235174447,-187500.02235174447,-187500.02235174447
não,11009.016455294664,-3500.4843474011836,8137.7113625659185,7397.89097283971,-187500.02235174447,-187500.02235174447,-187500.02235174447,-187500.02235174447
não,10838.025610211565,-3514.4988911746614,7677.243075042138,7450.685793243146,-187500.02235174447,-187500.02235174447,-187500.02235174447,-187500.02235174447
não,10821.66413327028,-3557.1907230842976,7538.461093719136,7439.9569559045985,-187500.02235174447,-187500.02235174447,-187500.02235174447,-187500.02235174447
não,10991.73855683071,-3545.836036901002,8001.991570233295,7381.6189028762465,-187500.02235174447,-187500.02235174447,-187500.02235174447,-187500.02235174447
não,11014.760853619679,-3510.430873683795,8154.51987439631,7386.044548278398,-187500.02235174447,-187500.02235174447,-187500.02235174447,-187500.02235174447
não,10873.25195947313,-3512.062551029033,7776.663634379343,7438.23587158154,-187500.02235174447,-187500.02235174447,-187500.02235174447,-187500.02235174447
não,10809.907115686789,-3551.5580834815605,7515.639962630268,7448.428267053159,-187500.02235174447,-187500.02235174447,-187500.02235174447,-187500.02235174447
não,10971.644338565391,-3551.960414881756,7923.42518847289,7393.979417560032,-187500.02235174447,-187500.02235174447,-187500.02235174447,-187500.02235174447
não,11027.65781017039,-3511.391998695374,8173.630615905598,7385.373995944738,-187500.02235174447,-187500.02235174447,-187500.02235174447,-187500.02235174447
não,10901.191640042263,-3503.6582951138375,7868.417545368379,7438.571147748369,-187500.02235174447,-187500.02235174447,-187500.02235174447,-187500.02235174447
não,10802.866316183367,-3537.990574597189,7518.29982022045,7463.5603980494025,-187500.02235174447,-187500.02235174447,-187500.02235174447,-187500.02235174447
não,10942.989402173687,-3550.731068936714,7845.752876490698,7405.378807232239,-187500.02235174447,-187500.02235174447,-187500.02235174447,-187500.02235174447
não,11040.152435320906,-3515.7952923530693,8181.811354376239,7381.238923220507,-187500.02235174447,-187500.02235174447,-187500.02235174447,-187500.02235174447
não,10932.30526832405,-3500.618457867916,7953.264767320725,7423.997810363509,-187500.02235174447,-187500.02235174447,-187500.02235174447,-187500.02235174447
não,10803.13453711683,-3532.916728605834,7535.018925073019,7458.330089846861,-187500.02235174447,-187500.02235174447,-187500.02235174447,-187500.02235174447
não,10911.004055858142,-3558.308310307063,7749.036878232584,7411.793757890911,-187500.02235174447,-187500.02235174447,-187500.02235174447,-187500.02235174447
não,11036.978487608254,-3520.7573796221473,8157.693822108963,7377.997920274487,-187500.02235174447,-187500.02235174447,-187500.02235174447,-187500.02235174447
não,10959.440286092793,-3499.545574134061,8022.286954198713,7416.286458526428,-187500.02235174447,-187500.02235174447,-187500.02235174447,-187500.02235174447
não,10811.158813376285,-3525.2277285132086,7581.823477962432,7463.225121882573,-187500.02235174447,-187500.02235174447,-187500.02235174447,-187500.02235174447
não,10877.275273475085,-3557.302481806574,7670.537551705546,7425.540080730925,-187500.02235174447,-187500.02235174447,-187500.02235174447,-187500.02235174447
não,11031.569365450068,-3529.832187871002,8120.187594912958,7375.539228384403,-187500.02235174447,-187500.02235174447,-187500.02235174447,-187500.02235174447
não,10987.26820793965,-3501.221954968209,8082.614312483587,7402.070749052853,-187500.02235174447,-187500.02235174447,-187500.02235174447,-187500.02235174447
não,10827.52029031757,-3515.5270714196054,7637.099342000407,7456.072563656875,-187500.02235174447,-187500.02235174447,-187500.02235174447,-187500.02235174447
não,10848.732095805657,-3555.022603872133,7594.228696135127,7433.430246523649,-187500.02235174447,-187500.02235174447,-187500.02235174447,-187500.02235174447
não,11022.09222580102,-3537.9235193638233,8078.590998481632,7376.276835951428,-187500.02235174447,-187500.02235174447,-187500.02235174447,-187500.02235174447
não,11008.904696572388,-3498.9197252893123,8154.4975226518545,7395.32052222735,-187500.02235174447,-187500.02235174447,-187500.02235174447,-187500.02235174447
não,10845.133464948352,-3511.995495795667,7707.015598656607,7452.161008377196,-187500.02235174447,-187500.02235174447,-187500.02235174447,-187500.02235174447
não,10832.14710141982,-3548.160618324354,7562.243349819583,7453.479761300059,-187500.02235174447,-187500.02235174447,-187500.02235174447,-187500.02235174447
não,10995.895981299398,-3542.1032955769656,7983.2161048908365,7393.13005127073,-187500.02235174447,-187500.02235174447,-187500.02235174447,-187500.02235174447
não,11034.117464317975,-3505.1335102478874,8180.71611889793,7384.994016288998,-187500.02235174447,-187500.02235174447,-187500.02235174447,-187500.02235174447
não,10877.163514752809,-3506.161690492832,7787.9289135848185,7441.275708827461,-187500.02235174447,-187500.02235174447,-187500.02235174447,-187500.02235174447
não,10816.053845411998,-3543.623214199926,7539.489273964081,7447.780066463955,-187500.02235174447,-187500.02235174447,-187500.02235174447,-187500.02235174447
não,10956.959242458253,-3547.154789823865,7893.51855439169,7394.538211171414,-187500.02235174447,-187500.02235174447,-187500.02235174447,-187500.02235174447
não,11032.195214294818,-3513.2695452296193,8160.756011099341,7385.50810641147,-187500.02235174447,-187500.02235174447,-187500.02235174447,-187500.02235174447
não,10907.472480234204,-3504.194736980765,7874.161943693393,7434.391371535226,-187500.02235174447,-187500.02235174447,-187500.02235174447,-187500.02235174447
não,10799.535906259527,-3538.862292630946,7517.8527853313435,7460.945243948132,-187500.02235174447,-187500.02235174447,-187500.02235174447,-187500.02235174447
não,10933.914593924832,-3552.8097811710577,7827.424446037347,7406.317580499361,-187500.02235174447,-187500.02235174447,-187500.02235174447,-187500.02235174447
não,11034.832720140545,-3515.616478397427,8176.245770006868,7385.396347689194,-187500.02235174447,-187500.02235174447,-187500.02235174447,-187500.02235174447
não,10936.26152709264,-3500.4396439122734,7966.117020382527,7430.99390637802,-187500.02235174447,-187500.02235174447,-187500.02235174447,-187500.02235174447
não,10804.788566206524,-3529.832187871002,7547.915881623731,7465.840275983844,-187500.02235174447,-187500.02235174447,-187500.02235174447,-187500.02235174447
não,10906.332541266984,-3555.4696387612394,7742.644279318367,7413.313676513872,-187500.02235174447,-187500.02235174447,-187500.02235174447,-187500.02235174447
não,11037.112598074986,-3521.2938214890746,8155.860979063628,7380.03192901992,-187500.02235174447,-187500.02235174447,-187500.02235174447,-187500.02235174447
não,10968.02335596363,-3497.422158410807,8035.876814827539,7417.180528304641,-187500.02235174447,-187500.02235174447,-187500.02235174447,-187500.02235174447
não,10818.557240790993,-3525.093618046477,7586.047957664485,7458.643014269235,-187500.02235174447,-187500.02235174447,-187500.02235174447,-187500.02235174447
não,10874.995395540644,-3561.124630108432,7655.427772453759,7424.824824908355,-187500.02235174447,-187500.02235174447,-187500.02235174447,-187500.02235174447
não,11029.423597982359,-3532.3579349944516,8114.689065776953,7380.635426120213,-187500.02235174447,-187500.02235174447,-187500.02235174447,-187500.02235174447
não,10992.498516142192,-3505.9828765371894,8091.286789332246,7404.484737454026,-187500.02235174447,-187500.02235174447,-187500.02235174447,-187500.02235174447
não,10836.796264266522,-3521.0479523000663,7651.583272407445,7454.262072355995,-187500.02235174447,-187500.02235174447,-187500.02235174447,-187500.02235174447
não,10850.564938850992,-3559.9399876523007,7592.038225178508,7434.927813402154,-187500.02235174447,-187500.02235174447,-187500.02235174447,-187500.02235174447
não,11015.587868164524,-3541.7903711545914,8055.188722036925,7378.266141207951,-187500.02235174447,-187500.02235174447,-187500.02235174447,-187500.02235174447
não,11012.79390010761,-3510.386170194885,8138.4713218773995,7391.230152992029,-187500.02235174447,-187500.02235174447,-187500.02235174447,-187500.02235174447
não,10860.399706411328,-3519.3715714659184,7726.841595988464,7444.337897817839,-187500.02235174447,-187500.02235174447,-187500.02235174447,-187500.02235174447
não,10822.446444326217,-3560.118801607943,7538.058762318941,7439.867548926777,-187500.02235174447,-187500.02235174447,-187500.02235174447,-187500.02235174447
não,10994.063138254063,-3550.216978814242,7991.642712550487,7377.752051085478,-187500.02235174447,-187500.02235174447,-187500.02235174447,-187500.02235174447
não,11037.939612619832,-3511.1908329952757,8198.463403995444,7378.489658652504,-187500.02235174447,-187500.02235174447,-187500.02235174447,-187500.02235174447
não,10882.259712488618,-3512.7778068516027,7804.178631803827,7436.917118658676,-187500.02235174447,-187500.02235174447,-187500.02235174447,-187500.02235174447
não,10814.869202955866,-3548.3394322799963,7539.82455013091,7446.014278651986,-187500.02235174447,-187500.02235174447,-187500.02235174447,-187500.02235174447
não,10961.720164027234,-3549.9711096252336,7895.127879992471,7394.828783849333,-187500.02235174447,-187500.02235174447,-187500.02235174447,-187500.02235174447
não,11046.589737724034,-3515.281202230597,8199.245715051378,7377.774402829934,-187500.02235174447,-187500.02235174447,-187500.02235174447,-187500.02235174447
não,10909.081805834987,-3507.480443415695,7876.106545461005,7428.646973210213,-187500.02235174447,-187500.02235174447,-187500.02235174447,-187500.02235174447
não,10804.766214462068,-3545.992499112189,7504.5311456359805,7460.5652642923915,-187500.02235174447,-187500.02235174447,-187500.02235174447,-187500.02235174447
não,10942.11768413993,-3562.2869208201078,7807.754910916676,7403.210688020074,-187500.02235174447,-187500.02235174447,-187500.02235174447,-187500.02235174447
não,11049.249595314217,-3525.8535773579574,8172.445973449466,7374.578103372825,-187500.02235174447,-187500.02235174447,-187500.02235174447,-187500.02235174447
não,10947.347992342471,-3507.7263126047033,7974.454221064356,7419.996848106009,-187500.02235174447,-187500.02235174447,-187500.02235174447,-187500.02235174447
não,10814.310409344484,-3534.190778039787,7550.888663636287,7461.548741048425,-187500.02235174447,-187500.02235174447,-187500.02235174447,-187500.02235174447
não,10917.106082094442,-3563.404508042873,7733.077732691495,7415.213574792573,-187500.02235174447,-187500.02235174447,-187500.02235174447,-187500.02235174447
não,11048.646098213923,-3530.614498926938,8154.542226140765,7376.433298162616,-187500.02235174447,-187500.02235174447,-187500.02235174447,-187500.02235174447
não,10982.395527648394,-3506.899298059857,8042.4482276974,7409.625638678746,-187500.02235174447,-187500.02235174447,-187500.02235174447,-187500.02235174447
não,10828.257897884596,-3530.212167526742,7595.793318246999,7457.14544739073,-187500.02235174447,-187500.02235174447,-187500.02235174447,-187500.02235174447
não,10878.8175438425,-3563.739784209703,7648.27521422806,7425.160101075185,-187500.02235174447,-187500.02235174447,-187500.02235174447,-187500.02235174447
não,11042.342906277527,-3537.5882431969935,8115.538432066254,7376.612112118258,-187500.02235174447,-187500.02235174447,-187500.02235174447,-187500.02235174447
não,11001.059234268574,-3512.4648824292285,8114.599658799131,7400.46142345207,-187500.02235174447,-187500.02235174447,-187500.02235174447,-187500.02235174447
não,10851.079028973465,-3527.574661681016,7666.625996425867,7449.52350253147,-187500.02235174447,-187500.02235174447,-187500.02235174447,-187500.02235174447
não,10858.991546510642,-3561.3704992974403,7581.152925628773,7438.682906470645,-187500.02235174447,-187500.02235174447,-187500.02235174447,-187500.02235174447
não,11017.353655976494,-3545.5231124786274,8045.197492265403,7380.635426120213,-187500.02235174447,-187500.02235174447,-187500.02235174447,-187500.02235174447
não,11010.446966939804,-3511.637867884382,8143.835740546673,7388.972626802043,-187500.02235174447,-187500.02235174447,-187500.02235174447,-187500.02235174447
não,10868.803962326523,-3512.733103362692,7765.755983085154,7450.708144987601,-187500.02235174447,-187500.02235174447,-187500.02235174447,-187500.02235174447
não,10844.28409865905,-3550.9545863812673,7575.140306370296,7453.837389211344,-187500.02235174447,-187500.02235174447,-187500.02235174447,-187500.02235174447
não,11006.200135493295,-3557.4812957622166,7964.5300465262,7381.574199387336,-187500.02235174447,-187500.02235174447,-187500.02235174447,-187500.02235174447
não,11032.888118372932,-3519.5950889104715,8151.99412727286,7374.779269072923,-187500.02235174447,-187500.02235174447,-187500.02235174447,-187500.02235174447
não,10909.841765146466,-3506.8769463154017,7825.010457636173,7437.14063610323,-187500.02235174447,-187500.02235174447,-187500.02235174447,-187500.02235174447
não,10844.731133548157,-3542.1256473214207,7510.364950938815,7454.373831078271,-187500.02235174447,-187500.02235174447,-187500.02235174447,-187500.02235174447
não,10969.967957731242,-3567.763098211658,7886.678920588365,7387.787984345911,-187500.02235174447,-187500.02235174447,-187500.02235174447,-187500.02235174447
não,11056.625670984467,-3520.9361935777897,8225.441959553,7376.768574329445,-187500.02235174447,-187500.02235174447,-187500.02235174447,-187500.02235174447
não,10936.97678291521,-3492.8847542863796,7926.777950141186,7443.287365828439,-187500.02235174447,-187500.02235174447,-187500.02235174447,-187500.02235174447
não,10813.684560499736,-3552.2956910485855,7516.377570197293,7460.028822425464,-187500.02235174447,-187500.02235174447,-187500.02235174447,-187500.02235174447
não,10936.775617215111,-3572.4793162917276,7776.373061701425,7403.8588886092775,-187500.02235174447,-187500.02235174447,-187500.02235174447,-187500.02235174447
não,11034.475092229259,-3533.7437431506805,8145.489769636366,7373.684033594613,-187500.02235174447,-187500.02235174447,-187500.02235174447,-187500.02235174447
não,10923.722198453212,-3512.1072545179436,7954.203540587848,7420.913269628677,-187500.02235174447,-187500.02235174447,-187500.02235174447,-187500.02235174447
não,10796.920752158256,-3548.6970601912813,7553.1908933151835,7461.302871859417,-187500.02235174447,-187500.02235174447,-187500.02235174447,-187500.02235174447
não,10911.629904702892,-3562.0634033755546,7717.945601695252,7420.622696950758,-187500.02235174447,-187500.02235174447,-187500.02235174447,-187500.02235174447
não,11054.546958750125,-3511.6155161399265,8146.450894647944,7385.753975600479,-187500.02235174447,-187500.02235174447,-187500.02235174447,-187500.02235174447
não,10974.125382199929,-3512.8895655738793,8057.066268571171,7422.947278374109,-187500.02235174447,-187500.02235174447,-187500.02235174447,-187500.02235174447
não,10804.363883061873,-3569.730051723725,7560.656375963256,7438.347630303816,-187500.02235174447,-187500.02235174447,-187500.02235174447,-187500.02235174447
não,10867.82048557049,-3596.306275881085,7593.960475201664,7406.94342934411,-187500.02235174447,-187500.02235174447,-187500.02235174447,-187500.02235174447
não,11028.015438081675,-3550.6863654478034,8077.942797892428,7375.606283617769,-187500.02235174447,-187500.02235174447,-187500.02235174447,-187500.02235174447
não,10991.023301008141,-3521.9867255671893,8109.5928680411425,7401.601362419291,-187500.02235174447,-187500.02235174447,-187500.02235174447,-187500.02235174447
não,10833.465854342683,-3548.9876328692003,7664.502580702613,7435.754827947,-187500.02235174447,-187500.02235174447,-187500.02235174447,-187500.02235174447
não,10834.09170318743,-3597.826194504046,7552.609747959345,7427.305868542894,-187500.02235174447,-187500.02235174447,-187500.02235174447,-187500.02235174447
não,11020.929935089343,-3564.432688287817,8040.034239296227,7392.168926259152,-187500.02235174447,-187500.02235174447,-187500.02235174447,-187500.02235174447
não,11066.259272844705,-3501.8254520685023,8163.818200089718,7381.238923220507,-187500.02235174447,-187500.02235174447,-187500.02235174447,-187500.02235174447
não,10847.994488238632,-3529.3628012374406,7726.305154121537,7421.986153362532,-187500.02235174447,-187500.02235174447,-187500.02235174447,-187500.02235174447
não,10779.262874038563,-3593.2217351462527,7467.069621928886,7420.868566139766,-187500.02235174447,-187500.02235174447,-187500.02235174447,-187500.02235174447
não,10937.960259671243,-3632.471398409772,7887.260065944203,7332.221547630018,-187500.02235174447,-187500.02235174447,-187500.02235174447,-187500.02235174447
não,11031.32349626106,-3570.4453075462948,8134.492711364354,7350.304108894362,-187500.02235174447,-187500.02235174447,-187500.02235174447,-187500.02235174447
não,10877.208218241718,-3559.1129731074543,7770.91923605433,7412.263144524472,-187500.02235174447,-187500.02235174447,-187500.02235174447,-187500.02235174447
não,10811.18116512074,-3593.4899560797166,7481.888828502754,7434.301964557406,-187500.02235174447,-187500.02235174447,-187500.02235174447,-187500.02235174447
não,10961.586053560502,-3593.1993834017976,7887.617693855488,7380.993054031498,-187500.02235174447,-187500.02235174447,-187500.02235174447,-187500.02235174447
não,10992.27499869764,-3583.655188519381,8112.476243075877,7342.615108801736,-187500.02235174447,-187500.02235174447,-187500.02235174447,-187500.02235174447
não,10900.58814294197,-3552.2956910485855,7855.945271962318,7411.190260790618,-187500.02235174447,-187500.02235174447,-187500.02235174447,-187500.02235174447
não,10782.816801406956,-3593.8475839910016,7456.229025868061,7438.682906470645,-187500.02235174447,-187500.02235174447,-187500.02235174447,-187500.02235174447
não,10937.669686993324,-3610.678447565848,7735.648183303855,7402.830708364333,-187500.02235174447,-187500.02235174447,-187500.02235174447,-187500.02235174447
não,11047.215586568784,-3563.3374528095073,8162.477095422399,7379.517838897448,-187500.02235174447,-187500.02235174447,-187500.02235174447,-187500.02235174447
não,10929.600707244957,-3533.3861152393956,7948.86147366303,7390.917228569655,-187500.02235174447,-187500.02235174447,-187500.02235174447,-187500.02235174447
não,10780.738089172613,-3614.0759127230544,7475.406822610716,7411.302019512895,-187500.02235174447,-187500.02235174447,-187500.02235174447,-187500.02235174447
não,10878.683433375769,-3651.738602130247,7626.392856406314,7369.45955389256,-187500.02235174447,-187500.02235174447,-187500.02235174447,-187500.02235174447
não,11034.586850951535,-3586.47150832075,8105.591905783643,7362.306995666861,-187500.02235174447,-187500.02235174447,-187500.02235174447,-187500.02235174447
não,10973.901864755377,-3552.1615805818537,8010.149956959482,7391.788946603411,-187500.02235174447,-187500.02235174447,-187500.02235174447,-187500.02235174447
não,10803.603923750392,-3570.959397668767,7536.740009396078,7434.257261068495,-187500.02235174447,-187500.02235174447,-187500.02235174447,-187500.02235174447
não,10846.474569615671,-3610.030246976644,7574.492105781092,7419.013371349975,-187500.02235174447,-187500.02235174447,-187500.02235174447,-187500.02235174447
não,10985.278902683129,-3598.8767264934454,8006.886602269006,7337.921242466122,-187500.02235174447,-187500.02235174447,-187500.02235174447,-187500.02235174447
não,10977.36638514595,-3562.1304586089204,8049.399620223001,7393.644141393202,-187500.02235174447,-187500.02235174447,-187500.02235174447,-187500.02235174447
não,10827.296772873018,-3572.8369442030125,7629.74561807461,7456.6313572682575,-187500.02235174447,-187500.02235174447,-187500.02235174447,-187500.02235174447
não,10820.61360128088,-3604.531717840638,7506.63220961478,7444.8072844514,-187500.02235174447,-187500.02235174447,-187500.02235174447,-187500.02235174447
não,11001.014530779665,-3578.0449006610993,7978.611645533043,7404.998827576498,-187500.02235174447,-187500.02235174447,-187500.02235174447,-187500.02235174447
não,11010.491670428715,-3546.595996212482,8110.598696541631,7417.269935282462,-187500.02235174447,-187500.02235174447,-187500.02235174447,-187500.02235174447
não,10832.594136308926,-3575.921484937845,7691.771708938088,7443.421476295171,-187500.02235174447,-187500.02235174447,-187500.02235174447,-187500.02235174447
não,10791.66809221126,-3606.2528021636967,7466.801400995422,7458.084220657853,-187500.02235174447,-187500.02235174447,-187500.02235174447,-187500.02235174447
não,10947.616213275936,-3597.2897526371185,7894.0549962586165,7418.856909138788,-187500.02235174447,-187500.02235174447,-187500.02235174447,-187500.02235174447
não,11002.623856380445,-3557.660109717859,8125.820234515695,7422.477891740548,-187500.02235174447,-187500.02235174447,-187500.02235174447,-187500.02235174447
não,10870.167418738296,-3550.731068936714,7798.031902078617,7467.114325417796,-187500.02235174447,-187500.02235174447,-187500.02235174447,-187500.02235174447
não,10780.760440917069,-3587.052653676588,7466.6672905286905,7486.023901226986,-187500.02235174447,-187500.02235174447,-187500.02235174447,-187500.02235174447
não,10918.357779783939,-3598.899078237901,7812.471128996745,7433.162025590185,-187500.02235174447,-187500.02235174447,-187500.02235174447,-187500.02235174447
não,10993.392585920405,-3559.2023800852753,8138.940708510961,7410.698522412601,-187500.02235174447,-187500.02235174447,-187500.02235174447,-187500.02235174447
não,10896.58718068447,-3534.3919437398845,7906.549621409134,7466.175552150674,-187500.02235174447,-187500.02235174447,-187500.02235174447,-187500.02235174447
não,10784.113202585364,-3573.306330836574,7486.403880882726,7527.464035447126,-187500.02235174447,-187500.02235174447,-187500.02235174447,-187500.02235174447
não,10869.742735593645,-3600.8436800055124,7714.011694671118,7455.9831566790535,-187500.02235174447,-187500.02235174447,-187500.02235174447,-187500.02235174447
não,10991.805612064078,-3556.117839350443,8106.374216839578,7422.209670807085,-187500.02235174447,-187500.02235174447,-187500.02235174447,-187500.02235174447
não,10907.941866867766,-3553.346223037985,7949.867302163519,7462.241645126539,-187500.02235174447,-187500.02235174447,-187500.02235174447,-187500.02235174447
não,10748.663335879248,-3583.8563542194793,7499.9490380226425,7501.111328734319,-187500.02235174447,-187500.02235174447,-187500.02235174447,-187500.02235174447
não,10816.925563445755,-3601.670694550359,7623.755350560588,7459.671194514179,-187500.02235174447,-187500.02235174447,-187500.02235174447,-187500.02235174447
não,10965.855236751466,-3561.214037086253,8078.903922904006,7416.84525213781,-187500.02235174447,-187500.02235174447,-187500.02235174447,-187500.02235174447
não,10916.010846616131,-3538.5493682085717,8024.58918387761,7454.329127589361,-187500.02235174447,-187500.02235174447,-187500.02235174447,-187500.02235174447
não,10777.541789715504,-3554.9779003832223,7589.288960610505,7515.930535308187,-187500.02235174447,-187500.02235174447,-187500.02235174447,-187500.02235174447
não,10803.268647583564,-3593.1323281684317,7577.084908137907,7491.365968151805,-187500.02235174447,-187500.02235174447,-187500.02235174447,-187500.02235174447
não,10955.126399412919,-3568.5230575231385,8039.5648526626655,7428.132883087741,-187500.02235174447,-187500.02235174447,-187500.02235174447,-187500.02235174447
não,10939.346067827471,-3535.084847817999,8072.198399567414,7424.7577696749895,-187500.02235174447,-187500.02235174447,-187500.02235174447,-187500.02235174447
não,10788.047109609499,-3544.7631531671473,7655.673641642767,7492.595314096847,-187500.02235174447,-187500.02235174447,-187500.02235174447,-187500.02235174447
não,10748.439818434694,-3589.6454560334037,7505.91695379221,7460.766429992489,-187500.02235174447,-187500.02235174447,-187500.02235174447,-187500.02235174447
não,10908.120680823407,-3587.0303019321327,7956.371659800013,7396.862792594767,-187500.02235174447,-187500.02235174447,-187500.02235174447,-187500.02235174447
não,10922.939887397277,-3544.1373043223984,8119.181766412469,7419.639220194724,-187500.02235174447,-187500.02235174447,-187500.02235174447,-187500.02235174447
não,10771.75268790158,-3547.579472968516,7742.823093274009,7472.85872374281,-187500.02235174447,-187500.02235174447,-187500.02235174447,-187500.02235174447
não,10722.914126266734,-3586.8738397209454,7492.662369330213,7482.67113955869,-187500.02235174447,-187500.02235174447,-187500.02235174447,-187500.02235174447
não,10877.901122319832,-3582.381139085429,7899.3970631834345,7425.316563286372,-187500.02235174447,-187500.02235174447,-187500.02235174447,-187500.02235174447
não,10933.311096824538,-3546.931272379312,8135.252670675835,7415.571202703858,-187500.02235174447,-187500.02235174447,-187500.02235174447,-187500.02235174447
não,10801.23463883813,-3545.3890020118956,7819.1543005888825,7460.699374759123,-187500.02235174447,-187500.02235174447,-187500.02235174447,-187500.02235174447
não,10711.268867405519,-3578.8719152059457,7485.129831448774,7486.359177393816,-187500.02235174447,-187500.02235174447,-187500.02235174447,-187500.02235174447
não,10858.902139532822,-3584.7504239976915,7813.432254008324,7422.813167907378,-187500.02235174447,-187500.02235174447,-187500.02235174447,-187500.02235174447
não,10955.193454646285,-3552.6086154709596,8125.730827537875,7388.503240168481,-187500.02235174447,-187500.02235174447,-187500.02235174447,-187500.02235174447
não,10860.355002922417,-3544.8525601449683,7901.542830651145,7451.669269999179,-187500.02235174447,-187500.02235174447,-187500.02235174447,-187500.02235174447
não,10746.450513178172,-3577.173182627342,7500.239610700562,7496.238648443062,-187500.02235174447,-187500.02235174447,-187500.02235174447,-187500.02235174447
não,10848.173302194275,-3588.0584821770767,7740.699677550755,7442.035668138942,-187500.02235174447,-187500.02235174447,-187500.02235174447,-187500.02235174447
não,10970.929082742821,-3555.760211439158,8148.797827815752,7410.407949734682,-187500.02235174447,-187500.02235174447,-187500.02235174447,-187500.02235174447
não,10899.336445252473,-3531.955603594256,7997.029482964216,7471.7187847755895,-187500.02235174447,-187500.02235174447,-187500.02235174447,-187500.02235174447
não,10745.17646374422,-3558.151848095876,7552.855617148354,7507.481575904081,-187500.02235174447,-187500.02235174447,-187500.02235174447,-187500.02235174447
não,10787.912999142767,-3588.7513862551914,7650.175112506761,7454.038554911442,-187500.02235174447,-187500.02235174447,-187500.02235174447,-187500.02235174447
não,10938.787274216089,-3557.8389236735015,8106.687141261953,7410.966743346065,-187500.02235174447,-187500.02235174447,-187500.02235174447,-187500.02235174447
não,10894.709634150224,-3526.7476471361697,8060.486085472833,7447.176569363663,-187500.02235174447,-187500.02235174447,-187500.02235174447,-187500.02235174447
não,10752.261966736552,-3545.4113537563508,7637.635783867334,7494.942247264654,-187500.02235174447,-187500.02235174447,-187500.02235174447,-187500.02235174447
não,10773.049089079988,-3579.6095227729706,7611.573649832446,7468.8130579964,-187500.02235174447,-187500.02235174447,-187500.02235174447,-187500.02235174447
não,10933.825186947011,-3556.028432372622,8061.000175595305,7434.838406424333,-187500.02235174447,-187500.02235174447,-187500.02235174447,-187500.02235174447
não,10922.761073441634,-3524.5348244350944,8115.56078381071,7444.09202862883,-187500.02235174447,-187500.02235174447,-187500.02235174447,-187500.02235174447
não,10755.860597593857,-3534.280185017608,7673.711499418199,7500.060796744919,-187500.02235174447,-187500.02235174447,-187500.02235174447,-187500.02235174447
não,10722.26592567753,-3569.417127301351,7545.010154844542,7480.212447668607,-187500.02235174447,-187500.02235174447,-187500.02235174447,-187500.02235174447
não,10898.285913263073,-3566.9137319223564,7972.755488485753,7436.514787258481,-187500.02235174447,-187500.02235174447,-187500.02235174447,-187500.02235174447
não,10941.089503894986,-3533.184949539298,8145.065086491715,7437.162987847685,-187500.02235174447,-187500.02235174447,-187500.02235174447,-187500.02235174447
não,10787.711833442669,-3533.408466983851,7734.731761781188,7489.376662895283,-187500.02235174447,-187500.02235174447,-187500.02235174447,-187500.02235174447
não,10729.373780414317,-3568.6571679898702,7484.347520392838,7502.094805490352,-187500.02235174447,-187500.02235174447,-187500.02235174447,-187500.02235174447
não,10889.971064325699,-3564.410336543362,7903.710949863309,7451.624566510269,-187500.02235174447,-187500.02235174447,-187500.02235174447,-187500.02235174447
não,10947.124474897919,-3526.8594058584463,8163.147647756058,7441.141598360729,-187500.02235174447,-187500.02235174447,-187500.02235174447,-187500.02235174447
não,10815.293886100519,-3527.641716914382,7847.630423024943,7489.600180339835,-187500.02235174447,-187500.02235174447,-187500.02235174447,-187500.02235174447
não,10721.88594602179,-3570.3559005684738,7490.650712329235,7531.219128515617,-187500.02235174447,-187500.02235174447,-187500.02235174447,-187500.02235174447
não,10858.365697665895,-3580.9506274402893,7809.610105706466,7472.836371998355,-187500.02235174447,-187500.02235174447,-187500.02235174447,-187500.02235174447
não,10937.02148640412,-3536.7835803966022,8150.809484816728,7425.473025497559,-187500.02235174447,-187500.02235174447,-187500.02235174447,-187500.02235174447
não,10832.281211886551,-3518.8798330879017,7922.531118694677,7455.111438645296,-187500.02235174447,-187500.02235174447,-187500.02235174447,-187500.02235174447
não,10713.9287249957,-3548.205321813264,7510.275543960995,7512.443663173159,-187500.02235174447,-187500.02235174447,-187500.02235174447,-187500.02235174447
não,10819.607772780391,-3581.8894007074123,7724.561718054023,7475.786802266455,-187500.02235174447,-187500.02235174447,-187500.02235174447,-187500.02235174447
não,10949.382001087904,-3544.696097933781,8138.672487577497,7437.453560525604,-187500.02235174447,-187500.02235174447,-187500.02235174447,-187500.02235174447
não,10865.026517513576,-3514.2083184967423,7992.067395695138,7463.895674216232,-187500.02235174447,-187500.02235174447,-187500.02235174447,-187500.02235174447
não,10733.106521738353,-3540.8739496319236,7546.999460101064,7512.376607939793,-187500.02235174447,-187500.02235174447,-187500.02235174447,-187500.02235174447
não,10795.534944002027,-3580.436537317817,7639.625089123856,7485.621569826791,-187500.02235174447,-187500.02235174447,-187500.02235174447,-187500.02235174447
não,10929.243079333673,-3554.41910677184,8099.065196402693,7440.8957291717215,-187500.02235174447,-187500.02235174447,-187500.02235174447,-187500.02235174447
não,10877.34232870845,-3510.8779085729016,8058.630890683043,7468.746002763034,-187500.02235174447,-187500.02235174447,-187500.02235174447,-187500.02235174447
$SILENCE,10736.615745617837,-3525.5183011911276,7618.882670269331,7519.037427787474,-187500.02235174447,-187500.02235174447,-187500.02235174447,-187500.02235174447
$SILENCE,10774.61371119186,-3572.345205824996,7571.295806323983,7495.210468198117,-187500.02235174447,-187500.02235174447,-187500.02235174447,-187500.02235174447
$SILENCE,10916.480233249693,-3563.9856533987113,8027.4725589123445,7440.515749515981,-187500.02235174447,-187500.02235174447,-187500.02235174447,-187500.02235174447
$SILENCE,10899.001169085643,-3528.312269248041,8101.680350503964,7449.299985086916,-187500.02235174447,-187500.02235174447,-187500.02235174447,-187500.02235174447
$SILENCE,10750.540882413494,-3518.9692400657227,7693.448089772236,7520.579698154891,-187500.02235174447,-187500.02235174447,-187500.02235174447,-187500.02235174447
$SILENCE,10720.969524499122,-3564.6115022434597,7524.848881345854,7541.903262365254,-187500.02235174447,-187500.02235174447,-187500.02235174447,-187500.02235174447
$SILENCE,10894.374357983394,-3560.9905196417,7979.595122289076,7461.816961981888,-187500.02235174447,-187500.02235174447,-187500.02235174447,-187500.02235174447
$SILENCE,10947.236233620195,-3518.477501687706,8158.453781420444,7447.355383319305,-187500.02235174447,-187500.02235174447,-187500.02235174447,-187500.02235174447
$SILENCE,10799.334740559429,-3530.703905904759,7754.691869579777,7505.559325880925,-187500.02235174447,-187500.02235174447,-187500.02235174447,-187500.02235174447
$SILENCE,10733.955888027655,-3561.6610719753594,7507.459224159626,7493.5564391084245,-187500.02235174447,-187500.02235174447,-187500.02235174447,-187500.02235174447
$SILENCE,10871.664985616802,-3559.4929527631944,7873.0443564706275,7440.873377427266,-187500.02235174447,-187500.02235174447,-187500.02235174447,-187500.02235174447
$SILENCE,10943.704657996257,-3523.1937197677757,8159.571368643209,7438.369982048272,-187500.02235174447,-187500.02235174447,-187500.02235174447,-187500.02235174447
$SILENCE,10797.70306321419,-3519.7068476327477,7826.731541959231,7486.605046582824,-187500.02235174447,-187500.02235174447,-187500.02235174447,-187500.02235174447
$SILENCE,10693.454527074638,-3549.479371247217,7474.512752832503,7535.309497750938,-187500.02235174447,-187500.02235174447,-187500.02235174447,-187500.02235174447
$SILENCE,10819.18308963574,-3570.9146941798563,7781.156335014861,7487.454412872125,-187500.02235174447,-187500.02235174447,-187500.02235174447,-187500.02235174447
$SILENCE,10918.894221650866,-3530.212167526742,8135.565595098209,7453.8150374668885,-187500.02235174447,-187500.02235174447,-187500.02235174447,-187500.02235174447
$SILENCE,10858.656270343814,-3504.194736980765,7936.947993868351,7520.937326066176,-187500.02235174447,-187500.02235174447,-187500.02235174447,-187500.02235174447
$SILENCE,10748.037487034499,-3557.928330651323,7520.602049899346,7569.0382801339965,-187500.02235174447,-187500.02235174447,-187500.02235174447,-187500.02235174447
$SILENCE,10788.874124154345,-3582.403490829884,7720.828976729987,7481.620607569291,-187500.02235174447,-187500.02235174447,-187500.02235174447,-187500.02235174447
$SILENCE,10859.170360466285,-3526.1888535247867,8128.636554317064,7428.199938321107,-187500.02235174447,-187500.02235174447,-187500.02235174447,-187500.02235174447
$SILENCE,10827.497938573115,-3496.6174956104155,7984.959540958351,7459.179456136162,-187500.02235174447,-187500.02235174447,-187500.02235174447,-187500.02235174447
$SILENCE,10769.919844856244,-3541.276281032119,7546.239500789583,7509.113253249318,-187500.02235174447,-187500.02235174447,-187500.02235174447,-187500.02235174447
$SILENCE,10825.530985061048,-3608.175052186853,7621.587231348423,7454.709107245101,-187500.02235174447,-187500.02235174447,-187500.02235174447,-187500.02235174447
$SILENCE,10951.371306344427,-3586.046825176099,8068.555065221199,7395.812260605367,-187500.02235174447,-187500.02235174447,-187500.02235174447,-187500.02235174447
$SILENCE,10936.887375937387,-3507.189870737776,8060.955472106394,7464.8120957389,-187500.02235174447,-187500.02235174447,-187500.02235174447,-187500.02235174447
$SILENCE,10763.236673264108,-3511.481405673195,7633.0760279984515,7535.041276817475,-187500.02235174447,-187500.02235174447,-187500.02235174447,-187500.02235174447
$SILENCE,10737.912146796245,-3568.9477406677893,7591.077100166929,7522.323134222404,-187500.02235174447,-187500.02235174447,-187500.02235174447,-187500.02235174447
$SILENCE,10930.204204345251,-3552.385098026407,8047.2538527552915,7422.5896504628245,-187500.02235174447,-187500.02235174447,-187500.02235174447,-187500.02235174447
$SILENCE,10939.92721318331,-3537.3200222635296,8113.5267750652765,7414.61007769228,-187500.02235174447,-187500.02235174447,-187500.02235174447,-187500.02235174447
$SILENCE,10783.889685140812,-3524.065437801533,7690.542362993046,7493.779956552978,-187500.02235174447,-187500.02235174447,-187500.02235174447,-187500.02235174447
$SILENCE,10785.051975852488,-3544.964318867245,7522.457244689137,7502.385378168271,-187500.02235174447,-187500.02235174447,-187500.02235174447,-187500.02235174447
$SILENCE,10932.998172402165,-3579.833040217524,7994.637846307498,7472.501095831525,-187500.02235174447,-187500.02235174447,-187500.02235174447,-187500.02235174447
$SILENCE,10968.425687363826,-3542.3938682548846,8175.061127550737,7447.869473441777,-187500.02235174447,-187500.02235174447,-187500.02235174447,-187500.02235174447
$SILENCE,10880.717442121202,-3542.013888599144,7789.202963018771,7466.577883550869,-187500.02235174447,-187500.02235174447,-187500.02235174447,-187500.02235174447
$SILENCE,10791.332816044429,-3599.346113127007,7509.9849712830755,7496.350407165338,-187500.02235174447,-187500.02235174447,-187500.02235174447,-187500.02235174447
$SILENCE,10912.63573320338,-3590.9642089562667,7862.583740065545,7444.673173984668,-187500.02235174447,-187500.02235174447,-187500.02235174447,-187500.02235174447
$SILENCE,11009.999932050698,-3553.7485544381807,8166.969796057916,7431.5079965004925,-187500.02235174447,-187500.02235174447,-187500.02235174447,-187500.02235174447
$SILENCE,10889.613436414415,-3556.8107434285575,7856.392306851424,7483.609912825813,-187500.02235174447,-187500.02235174447,-187500.02235174447,-187500.02235174447
$SILENCE,10800.072348126454,-3552.407449770862,7523.507776678536,7534.437779717181,-187500.02235174447,-187500.02235174447,-187500.02235174447,-187500.02235174447
$SILENCE,10906.556058711536,-3586.3821013429288,7780.172858258827,7480.726537791078,-187500.02235174447,-187500.02235174447,-187500.02235174447,-187500.02235174447
$SILENCE,11009.530545417136,-3558.1294963514206,8155.101019752147,7451.9374909326425,-187500.02235174447,-187500.02235174447,-187500.02235174447,-187500.02235174447
$SILENCE,10935.367457314427,-3537.476484474717,7966.184075615893,7511.661352117223,-187500.02235174447,-187500.02235174447,-187500.02235174447,-187500.02235174447
$SILENCE,10807.247258096608,-3560.61053998596,7533.789579127977,7531.979087827098,-187500.02235174447,-187500.02235174447,-187500.02235174447,-187500.02235174447
$SILENCE,10868.155761737318,-3601.894211994912,7676.326653519471,7457.368964835283,-187500.02235174447,-187500.02235174447,-187500.02235174447,-187500.02235174447
$SILENCE,11001.618027879957,-3562.242217331197,8115.761949510807,7444.494360029025,-187500.02235174447,-187500.02235174447,-187500.02235174447,-187500.02235174447
$SILENCE,10949.672573765823,-3541.388039754396,8033.753399104286,7478.558418578914,-187500.02235174447,-187500.02235174447,-187500.02235174447,-187500.02235174447
$SILENCE,10818.937220446733,-3550.3287375365185,7580.348262828382,7517.159881253229,-187500.02235174447,-187500.02235174447,-187500.02235174447,-187500.02235174447
$SILENCE,10874.369546695894,-3589.667807777859,7621.028437737041,7498.004436255031,-187500.02235174447,-187500.02235174447,-187500.02235174447,-187500.02235174447
$SILENCE,11010.536373917625,-3574.3792145704288,8086.592922996631,7452.920967688677,-187500.02235174447,-187500.02235174447,-187500.02235174447,-187500.02235174447
$SILENCE,10970.414992620348,-3537.387077496896,8080.602655482609,7482.782898280967,-187500.02235174447,-187500.02235174447,-187500.02235174447,-187500.02235174447
$SILENCE,10834.874014243367,-3557.5259992511274,7654.310185230993,7520.266773732516,-187500.02235174447,-187500.02235174447,-187500.02235174447,-187500.02235174447
$SILENCE,10864.825351813479,-3589.153717655387,7588.55135304348,7507.012189270519,-187500.02235174447,-187500.02235174447,-187500.02235174447,-187500.02235174447
$SILENCE,11017.577173421047,-3557.347185295485,8036.9273468169395,7452.540988032936,-187500.02235174447,-187500.02235174447,-187500.02235174447,-187500.02235174447
$SILENCE,11000.455737168282,-3554.6873277053032,8090.727995720863,7432.245604067517,-187500.02235174447,-187500.02235174447,-187500.02235174447,-187500.02235174447
$SILENCE,10856.152874964819,-3554.2179410717417,7731.021372201607,7516.176404497195,-187500.02235174447,-187500.02235174447,-187500.02235174447,-187500.02235174447
$SILENCE,10802.32987431644,-3589.891325222412,7533.320192494416,7513.382436440282,-187500.02235174447,-187500.02235174447,-187500.02235174447,-187500.02235174447
$SILENCE,10962.88245473891,-3584.8174792310574,7963.680680236898,7441.476874527559,-187500.02235174447,-187500.02235174447,-187500.02235174447,-187500.02235174447
$SILENCE,10989.7939550631,-3546.193664812287,8153.871673807106,7424.824824908355,-187500.02235174447,-187500.02235174447,-187500.02235174447,-187500.02235174447
$SILENCE,10886.931227079776,-3552.429801515317,7775.0096052896515,7469.52831381897,-187500.02235174447,-187500.02235174447,-187500.02235174447,-187500.02235174447
$SILENCE,10832.750598520113,-3590.0477874335993,7524.513605179025,7518.523337665002,-187500.02235174447,-187500.02235174447,-187500.02235174447,-187500.02235174447
$SILENCE,10955.349916857473,-3589.4219385888505,7898.905324805418,7449.456447298104,-187500.02235174447,-187500.02235174447,-187500.02235174447,-187500.02235174447
$SILENCE,11011.877478584944,-3546.663051445848,8169.450839692455,7421.583821962336,-187500.02235174447,-187500.02235174447,-187500.02235174447,-187500.02235174447
$SILENCE,10896.050738817543,-3540.0692868315327,7900.916981806396,7472.277578386972,-187500.02235174447,-187500.02235174447,-187500.02235174447,-187500.02235174447
$SILENCE,10783.196781062697,-3567.4948772781945,7551.06747759193,7502.541840379458,-187500.02235174447,-187500.02235174447,-187500.02235174447,-187500.02235174447
$SILENCE,10935.12158812542,-3590.897153722901,7842.8695014559635,7455.8713979567765,-187500.02235174447,-187500.02235174447,-187500.02235174447,-187500.02235174447
$SILENCE,11036.151473063406,-3576.413223315862,8177.542171185276,7389.442013435604,-187500.02235174447,-187500.02235174447,-187500.02235174447,-187500.02235174447
$SILENCE,10950.052553421565,-3552.4968567486835,8006.260753424258,7456.117267145785,-187500.02235174447,-187500.02235174447,-187500.02235174447,-187500.02235174447
$SILENCE,10809.527136031049,-3558.7553451961694,7599.861335737865,7493.109404219318,-187500.02235174447,-187500.02235174447,-187500.02235174447,-187500.02235174447
$SILENCE,10860.556168622514,-3581.665883262859,7704.445148044247,7429.652801710702,-187500.02235174447,-187500.02235174447,-187500.02235174447,-187500.02235174447
$SILENCE,11032.575193950557,-3570.646473246393,8123.674467047986,7392.146574514696,-187500.02235174447,-187500.02235174447,-187500.02235174447,-187500.02235174447
$SILENCE,10997.706472600279,-3546.4171822568396,8074.07594610166,7437.721781459068,-187500.02235174447,-187500.02235174447,-187500.02235174447,-187500.02235174447
$SILENCE,10820.099511158409,-3567.7183947227472,7635.869996055365,7466.354366106316,-187500.02235174447,-187500.02235174447,-187500.02235174447,-187500.02235174447
$SILENCE,10884.137259022864,-3604.9787527297444,7670.202275538716,7425.763598175478,-187500.02235174447,-187500.02235174447,-187500.02235174447,-187500.02235174447
$SILENCE,11044.689839445335,-3560.543484752594,8182.459554965443,7402.696597897601,-187500.02235174447,-187500.02235174447,-187500.02235174447,-187500.02235174447
$SILENCE,11050.32247904807,-3554.08383060501,8203.425491264521,7424.154272574696,-187500.02235174447,-187500.02235174447,-187500.02235174447,-187500.02235174447
$SILENCE,10861.226720956174,-3575.116822137454,7701.695883476244,7435.955993647099,-187500.02235174447,-187500.02235174447,-187500.02235174447,-187500.02235174447
$SILENCE,10863.10426749042,-3609.471453365261,7592.306446111971,7411.838461379822,-187500.02235174447,-187500.02235174447,-187500.02235174447,-187500.02235174447
$SILENCE,11016.70545538729,-3597.04388344811,8017.861308796562,7349.164169927141,-187500.02235174447,-187500.02235174447,-187500.02235174447,-187500.02235174447
$SILENCE,11057.877368673966,-3548.4288392578173,8253.135770933124,7404.9764758320425,-187500.02235174447,-187500.02235174447,-187500.02235174447,-187500.02235174447
$SILENCE,10953.226501134217,-3574.3792145704288,7854.98414695074,7428.892842399221,-187500.02235174447,-187500.02235174447,-187500.02235174447,-187500.02235174447
$SILENCE,10880.33746246546,-3598.988485215722,7517.62926788679,7415.146519559207,-187500.02235174447,-187500.02235174447,-187500.02235174447,-187500.02235174447
$SILENCE,11042.029981855152,-3607.348037642007,7987.597046804077,7384.658740122169,-187500.02235174447,-187500.02235174447,-187500.02235174447,-187500.02235174447
$SILENCE,11049.786037181144,-3559.0906213629987,8217.954125160471,7370.621844604236,-187500.02235174447,-187500.02235174447,-187500.02235174447,-187500.02235174447
$SILENCE,10906.35489301144,-3558.375365540429,7870.138629691438,7420.399179506205,-187500.02235174447,-187500.02235174447,-187500.02235174447,-187500.02235174447
$SILENCE,10860.891444789344,-3596.753310770191,7529.833320359388,7448.227101353062,-187500.02235174447,-187500.02235174447,-187500.02235174447,-187500.02235174447
$SILENCE,11046.366220279482,-3604.375255629451,7935.919813623406,7407.32340899985,-187500.02235174447,-187500.02235174447,-187500.02235174447,-187500.02235174447
$SILENCE,11084.073613175586,-3556.1401910948985,8212.008561135359,7367.134972469208,-187500.02235174447,-187500.02235174447,-187500.02235174447,-187500.02235174447
$SILENCE,10944.844596963478,-3547.825342157524,7936.769179912709,7434.547833746414,-187500.02235174447,-187500.02235174447,-187500.02235174447,-187500.02235174447
$SILENCE,10816.992618679122,-3579.5648192840604,7552.140361325784,7457.8607032132995,-187500.02235174447,-187500.02235174447,-187500.02235174447,-187500.02235174447
$SILENCE,10944.509320796647,-3599.6813892938367,7829.346696060503,7400.46142345207,-187500.02235174447,-187500.02235174447,-187500.02235174447,-187500.02235174447
$SILENCE,11093.48369759127,-3558.867103918446,8198.865735395639,7403.7471298870005,-187500.02235174447,-187500.02235174447,-187500.02235174447,-187500.02235174447
$SILENCE,11003.27205696965,-3536.3365455074963,8061.804838395696,7453.14448513323,-187500.02235174447,-187500.02235174447,-187500.02235174447,-187500.02235174447
$SILENCE,10831.901232230812,-3554.2179410717417,7601.515364827557,7470.467087086093,-187500.02235174447,-187500.02235174447,-187500.02235174447,-187500.02235174447
$SILENCE,10886.260674746118,-3577.1955343717977,7728.026238444596,7417.582859704836,-187500.02235174447,-187500.02235174447,-187500.02235174447,-187500.02235174447
$SILENCE,11068.33798507905,-3561.0575748750657,8184.270046266323,7364.385707901205,-187500.02235174447,-187500.02235174447,-187500.02235174447,-187500.02235174447
$SILENCE,10994.532524887625,-3528.245214014675,8115.314914621701,7416.621734693258,-187500.02235174447,-187500.02235174447,-187500.02235174447,-187500.02235174447
$SILENCE,10856.666965087292,-3548.920577635834,7671.342214505937,7475.33976737735,-187500.02235174447,-187500.02235174447,-187500.02235174447,-187500.02235174447
$SILENCE,10906.511355222627,-3581.9117524518674,7679.142973320839,7451.7586769770005,-187500.02235174447,-187500.02235174447,-187500.02235174447,-187500.02235174447
$SILENCE,11032.195214294818,-3547.870045646435,8093.052577144215,7418.454577738593,-187500.02235174447,-187500.02235174447,-187500.02235174447,-187500.02235174447
$SILENCE,10985.636530594413,-3510.3638184504293,8126.446083360444,7417.47110098256,-187500.02235174447,-187500.02235174447,-187500.02235174447,-187500.02235174447
$SILENCE,10855.90700577581,-3530.3909814823846,7743.448942118757,7477.887866245254,-187500.02235174447,-187500.02235174447,-187500.02235174447,-187500.02235174447
$SILENCE,10845.044057970532,-3572.2334471027193,7594.318103112949,7449.054115897909,-187500.02235174447,-187500.02235174447,-187500.02235174447,-187500.02235174447
$SILENCE,11030.787054394134,-3571.3840808134178,8065.35876576409,7403.300094997895,-187500.02235174447,-187500.02235174447,-187500.02235174447,-187500.02235174447
$SILENCE,11046.366220279482,-3526.278260502608,8187.265180023334,7432.558528489892,-187500.02235174447,-187500.02235174447,-187500.02235174447,-187500.02235174447
$SILENCE,10880.046889787542,-3523.3948854678733,7792.958056087263,7486.225066927084,-187500.02235174447,-187500.02235174447,-187500.02235174447,-187500.02235174447
$SILENCE,10832.9070607313,-3566.3549383109735,7569.887646423298,7458.352441591316,-187500.02235174447,-187500.02235174447,-187500.02235174447,-187500.02235174447
$SILENCE,10997.259437711173,-3562.510438264661,7968.374546572512,7418.923964372154,-187500.02235174447,-187500.02235174447,-187500.02235174447,-187500.02235174447
$SILENCE,11016.303123987094,-3517.7398941206807,8198.664569695542,7432.513825000981,-187500.02235174447,-187500.02235174447,-187500.02235174447,-187500.02235174447
$SILENCE,10887.288854991062,-3512.062551029033,7881.0239292411725,7464.700337016623,-187500.02235174447,-187500.02235174447,-187500.02235174447,-187500.02235174447
$SILENCE,10800.452327782194,-3550.373441025429,7547.692364179178,7476.122078433285,-187500.02235174447,-187500.02235174447,-187500.02235174447,-187500.02235174447
$SILENCE,11011.877478584944,-3569.439479045806,7910.349417966536,7429.8092639218885,-187500.02235174447,-187500.02235174447,-187500.02235174447,-187500.02235174447
$SILENCE,11070.729621735767,-3529.675725659815,8209.48281401191,7406.94342934411,-187500.02235174447,-187500.02235174447,-187500.02235174447,-187500.02235174447
$SILENCE,10891.848610859945,-3495.5669636210164,7954.0470783766605,7468.366023107294,-187500.02235174447,-187500.02235174447,-187500.02235174447,-187500.02235174447
$SILENCE,10754.27362373753,-3517.1140452759323,7584.751556486078,7512.220145728606,-187500.02235174447,-187500.02235174447,-187500.02235174447,-187500.02235174447
$SILENCE,10908.098329078954,-3566.9807871557223,7800.9599806022625,7428.132883087741,-187500.02235174447,-187500.02235174447,-187500.02235174447,-187500.02235174447
$SILENCE,11064.694650732834,-3544.22671130022,8210.108662856659,7403.635371164724,-187500.02235174447,-187500.02235174447,-187500.02235174447,-187500.02235174447
$SILENCE,10979.154524702373,-3497.6903793442702,8086.704681718908,7472.970482465087,-187500.02235174447,-187500.02235174447,-187500.02235174447,-187500.02235174447
$SILENCE,10809.102452886398,-3537.9011676193677,7574.290940080994,7509.627343371791,-187500.02235174447,-187500.02235174447,-187500.02235174447,-187500.02235174447
$SILENCE,10838.405589867305,-3561.281092319619,7709.295476591048,7445.6566507407015,-187500.02235174447,-187500.02235174447,-187500.02235174447,-187500.02235174447
$SILENCE,10981.233236936718,-3526.5241296916165,8169.920226326017,7402.9201153421545,-187500.02235174447,-187500.02235174447,-187500.02235174447,-187500.02235174447
$SILENCE,10987.178800961829,-3515.5270714196054,8085.676501473964,7451.579863021358,-187500.02235174447,-187500.02235174447,-187500.02235174447,-187500.02235174447
$SILENCE,10837.600927066915,-3534.123722806421,7654.667813142278,7489.57782859538,-187500.02235174447,-187500.02235174447,-187500.02235174447,-187500.02235174447
$SILENCE,10884.696052634246,-3571.5181912801495,7665.03902256954,7452.42922931066,-187500.02235174447,-187500.02235174447,-187500.02235174447,-187500.02235174447
$SILENCE,10978.729841557722,-3533.497873961672,8110.911620964006,7412.41960673566,-187500.02235174447,-187500.02235174447,-187500.02235174447,-187500.02235174447
$SILENCE,10968.358632130461,-3502.7642253356253,8145.333307425179,7440.381639049249,-187500.02235174447,-187500.02235174447,-187500.02235174447,-187500.02235174447
$SILENCE,10805.190897606719,-3504.7311788476923,7728.965011711719,7512.555421895436,-187500.02235174447,-187500.02235174447,-187500.02235174447,-187500.02235174447
$SILENCE,10828.012028695588,-3549.144095080387,7600.442481093703,7485.062776215408,-187500.02235174447,-187500.02235174447,-187500.02235174447,-187500.02235174447
$SILENCE,10977.567550846046,-3556.0954876059877,8052.998251080305,7416.5993829488025,-187500.02235174447,-187500.02235174447,-187500.02235174447,-187500.02235174447
$SILENCE,10994.309007443073,-3509.7156178612254,8209.661627967553,7447.668307741679,-187500.02235174447,-187500.02235174447,-187500.02235174447,-187500.02235174447
$SILENCE,10849.402648139316,-3513.046027785066,7808.358408016969,7482.648787814234,-187500.02235174447,-187500.02235174447,-187500.02235174447,-187500.02235174447
$SILENCE,10775.351318758883,-3548.562949724549,7570.535847012502,7488.147316950241,-187500.02235174447,-187500.02235174447,-187500.02235174447,-187500.02235174447
$SILENCE,10945.716314997235,-3540.8068943985577,7962.540741269678,7453.569168277881,-187500.02235174447,-187500.02235174447,-187500.02235174447,-187500.02235174447
$SILENCE,10971.59963507648,-3495.0081700096334,8200.653874952064,7443.980269906554,-187500.02235174447,-187500.02235174447,-187500.02235174447,-187500.02235174447
$SILENCE,10833.354095620405,-3500.7749200791027,7833.571175762556,7482.760546536511,-187500.02235174447,-187500.02235174447,-187500.02235174447,-187500.02235174447
$SILENCE,10767.841132621901,-3525.250080257664,7587.232600120617,7507.749796837545,-187500.02235174447,-187500.02235174447,-187500.02235174447,-187500.02235174447
$SILENCE,10903.53857321007,-3528.2005105257645,7851.005536437695,7477.619645311791,-187500.02235174447,-187500.02235174447,-187500.02235174447,-187500.02235174447
$SILENCE,11010.46931868426,-3493.8458792979577,8189.790927146784,7462.263996870995,-187500.02235174447,-187500.02235174447,-187500.02235174447,-187500.02235174447
$SILENCE,10850.00614523961,-3501.4678241572174,7928.2755170196915,7503.011227013019,-187500.02235174447,-187500.02235174447,-187500.02235174447,-187500.02235174447
$SILENCE,10720.231916932096,-3517.516376676128,7520.780863854989,7545.479541478103,-187500.02235174447,-187500.02235174447,-187500.02235174447,-187500.02235174447
$SILENCE,10840.95368873521,-3526.1888535247867,7763.654919106355,7491.9694652520975,-187500.02235174447,-187500.02235174447,-187500.02235174447,-187500.02235174447
$SILENCE,10973.678347310824,-3488.0120739951226,8201.05620635226,7476.435002855659,-187500.02235174447,-187500.02235174447,-187500.02235174447,-187500.02235174447
$SILENCE,10886.260674746118,-3496.416329910318,8012.027503493728,7494.852840286832,-187500.02235174447,-187500.02235174447,-187500.02235174447,-187500.02235174447
$SILENCE,10723.674085578214,-3530.3239262490188,7545.568948455924,7505.827546814388,-187500.02235174447,-187500.02235174447,-187500.02235174447,-187500.02235174447
$SILENCE,10787.75653693158,-3531.7544378941584,7674.80673489651,7516.690494619667,-187500.02235174447,-187500.02235174447,-187500.02235174447,-187500.02235174447
$SILENCE,10954.522902312625,-3490.9848560076784,8140.259461433824,7488.706110561623,-187500.02235174447,-187500.02235174447,-187500.02235174447,-187500.02235174447
$SILENCE,10930.204204345251,-3486.4027483943405,8088.224600341869,7504.329979935883,-187500.02235174447,-187500.02235174447,-187500.02235174447,-187500.02235174447
$SILENCE,10753.379553959317,-3503.188908480276,7610.925449243242,7554.196721815672,-187500.02235174447,-187500.02235174447,-187500.02235174447,-187500.02235174447
$SILENCE,10738.202719474164,-3528.5357866925942,7605.985713718619,7539.153997797251,-187500.02235174447,-187500.02235174447,-187500.02235174447,-187500.02235174447
$SILENCE,10925.487986265181,-3501.087844501477,8102.306199348713,7492.774128052489,-187500.02235174447,-187500.02235174447,-187500.02235174447,-187500.02235174447
$SILENCE,10949.270242365628,-3483.765242548614,8136.884348021073,7504.218221213606,-187500.02235174447,-187500.02235174447,-187500.02235174447,-187500.02235174447
$SILENCE,10790.32698754394,-3486.0674722275107,7703.148746865839,7553.280300293005,-187500.02235174447,-187500.02235174447,-187500.02235174447,-187500.02235174447
$SILENCE,10744.014173032543,-3502.473652657706,7594.40751009077,7577.1966668601835,-187500.02235174447,-187500.02235174447,-187500.02235174447,-187500.02235174447
$SILENCE,10919.184794328785,-3506.2734492151085,8043.297593986702,7498.227953699584,-187500.02235174447,-187500.02235174447,-187500.02235174447,-187500.02235174447
$SILENCE,10911.071111091509,-3479.2948936575526,8130.916432251505,7488.594351839346,-187500.02235174447,-187500.02235174447,-187500.02235174447,-187500.02235174447
$SILENCE,10738.739161341091,-3460.6982422707374,7774.562570400545,7554.867274149332,-187500.02235174447,-187500.02235174447,-187500.02235174447,-187500.02235174447
$SILENCE,10735.40875141725,-3510.2520597281527,7524.826529601399,7566.356070799359,-187500.02235174447,-187500.02235174447,-187500.02235174447,-187500.02235174447
$SILENCE,10961.876626238422,-3529.563966937538,7926.308563507625,7506.609857870324,-187500.02235174447,-187500.02235174447,-187500.02235174447,-187500.02235174447
$SILENCE,10957.11570466944,-3474.8245447664913,8189.410947491044,7501.401901412238,-187500.02235174447,-187500.02235174447,-187500.02235174447,-187500.02235174447
$SILENCE,10811.292923843017,-3453.791553234047,7891.126917734971,7577.777812216022,-187500.02235174447,-187500.02235174447,-187500.02235174447,-187500.02235174447
$SILENCE,10702.752852768046,-3496.3045711880413,7559.918768396231,7576.54846627098,-187500.02235174447,-187500.02235174447,-187500.02235174447,-187500.02235174447
$SILENCE,10878.415212442305,-3535.867158873935,7878.788754795642,7521.071436532908,-187500.02235174447,-187500.02235174447,-187500.02235174447,-187500.02235174447
$SILENCE,11018.381836221437,-3493.823527553502,8223.407950807567,7487.00737798302,-187500.02235174447,-187500.02235174447,-187500.02235174447,-187500.02235174447
$SILENCE,10846.407514382305,-3457.412535835807,7946.738057939775,7547.714715923634,-187500.02235174447,-187500.02235174447,-187500.02235174447,-187500.02235174447
$SILENCE,10723.539975111482,-3494.1364519758768,7553.704983437656,7574.693271481189,-187500.02235174447,-187500.02235174447,-187500.02235174447,-187500.02235174447
$SILENCE,10843.926470747767,-3509.9167835613234,7748.589843343479,7527.5981459138575,-187500.02235174447,-187500.02235174447,-187500.02235174447,-187500.02235174447
$SILENCE,10930.651239234357,-3488.4144053953178,8158.699650609452,7498.429119399681,-187500.02235174447,-187500.02235174447,-187500.02235174447,-187500.02235174447
$SILENCE,10787.75653693158,-3448.4271345647735,8018.4424541524,7538.34933499686,-187500.02235174447,-187500.02235174447,-187500.02235174447,-187500.02235174447
$SILENCE,10747.836321334402,-3470.667120297804,7593.6922542682005,7622.727170315644,-187500.02235174447,-187500.02235174447,-187500.02235174447,-187500.02235174447
$SILENCE,10851.280194673562,-3526.680591902804,7672.638615684345,7531.174425026707,-187500.02235174447,-187500.02235174447,-187500.02235174447,-187500.02235174447
$SILENCE,10961.496646582682,-3498.830318311491,8130.111769451114,7487.7449855500445,-187500.02235174447,-187500.02235174447,-187500.02235174447,-187500.02235174447
$SILENCE,10918.335428039483,-3463.9839487056674,8104.161394138503,7528.268698247516,-187500.02235174447,-187500.02235174447,-187500.02235174447,-187500.02235174447
$SILENCE,10758.632213906314,-3474.668082555304,7658.400554466314,7576.771983715533,-187500.02235174447,-187500.02235174447,-187500.02235174447,-187500.02235174447
$SILENCE,10782.928560129234,-3531.217996027231,7617.765083046566,7539.310460008438,-187500.02235174447,-187500.02235174447,-187500.02235174447,-187500.02235174447
$SILENCE,10939.949564927765,-3495.0752252429993,8080.4238415269665,7501.267790945505,-187500.02235174447,-187500.02235174447,-187500.02235174447,-187500.02235174447
$SILENCE,10903.15859355433,-3447.6671752532934,8136.459664876422,7519.707980121134,-187500.02235174447,-187500.02235174447,-187500.02235174447,-187500.02235174447
$SILENCE,10767.528208199526,-3462.531085316072,7715.397502827347,7586.897323953787,-187500.02235174447,-187500.02235174447,-187500.02235174447,-187500.02235174447
$SILENCE,10781.56510371746,-3514.2977254745633,7566.244312077083,7588.17137338774,-187500.02235174447,-187500.02235174447,-187500.02235174447,-187500.02235174447
$SILENCE,10917.083730349987,-3494.0693967425104,8011.625172093532,7521.563174910924,-187500.02235174447,-187500.02235174447,-187500.02235174447,-187500.02235174447
$SILENCE,10948.800855732066,-3452.472800311184,8174.479982194899,7525.25121274605,-187500.02235174447,-187500.02235174447,-187500.02235174447,-187500.02235174447
$SILENCE,10806.911981929778,-3454.998547434634,7814.080454597528,7573.866256936343,-187500.02235174447,-187500.02235174447,-187500.02235174447,-187500.02235174447
$SILENCE,10753.871292337333,-3512.308420218041,7544.294899021972,7575.587341259402,-187500.02235174447,-187500.02235174447,-187500.02235174447,-187500.02235174447
$SILENCE,10921.151747840851,-3528.2005105257645,7921.391179727457,7489.7342908065675,-187500.02235174447,-187500.02235174447,-187500.02235174447,-187500.02235174447
$SILENCE,10986.664710839357,-3476.8809052563797,8200.922095885528,7502.050102001442,-187500.02235174447,-187500.02235174447,-187500.02235174447,-187500.02235174447
$SILENCE,10831.185976408242,-3445.0743728964776,7919.513633193212,7573.709794725156,-187500.02235174447,-187500.02235174447,-187500.02235174447,-187500.02235174447
$SILENCE,10772.333833257419,-3482.804117537036,7556.16367532774,7593.2228676346385,-187500.02235174447,-187500.02235174447,-187500.02235174447,-187500.02235174447
$SILENCE,10924.7280269537,-3523.350181978963,7847.250443369204,7519.082131276386,-187500.02235174447,-187500.02235174447,-187500.02235174447,-187500.02235174447
$SILENCE,10982.17201020384,-3479.5854663354717,8193.836592893194,7505.224049714095,-187500.02235174447,-187500.02235174447,-187500.02235174447,-187500.02235174447
$SILENCE,10866.47938090317,-3458.641881780849,7977.516410054734,7547.468846734625,-187500.02235174447,-187500.02235174447,-187500.02235174447,-187500.02235174447
$SILENCE,10773.071440824442,-3486.313341416519,7609.852565509387,7592.038225178508,-187500.02235174447,-187500.02235174447,-187500.02235174447,-187500.02235174447
$SILENCE,10858.544511621538,-3512.308420218041,7784.710262383254,7542.551462954458,-187500.02235174447,-187500.02235174447,-187500.02235174447,-187500.02235174447
$SILENCE,10985.7929928056,-3480.0772047134883,8180.984339831393,7503.078282246385,-187500.02235174447,-187500.02235174447,-187500.02235174447,-187500.02235174447
$SILENCE,10907.96421861222,-3455.803210235025,8047.656184155487,7541.500930965059,-187500.02235174447,-187500.02235174447,-187500.02235174447,-187500.02235174447
$SILENCE,10786.013100864066,-3488.347350161952,7607.9526672306865,7572.860428435854,-187500.02235174447,-187500.02235174447,-187500.02235174447,-187500.02235174447
$SILENCE,10844.373505636871,-3518.4327981987954,7687.770746680588,7543.736105410589,-187500.02235174447,-187500.02235174447,-187500.02235174447,-187500.02235174447
$SILENCE,10985.904751527876,-3490.962504263223,8133.84451077515,7506.296933447949,-187500.02235174447,-187500.02235174447,-187500.02235174447,-187500.02235174447
$SILENCE,10955.059344179554,-3465.6156260509047,8108.944667451939,7525.944116824165,-187500.02235174447,-187500.02235174447,-187500.02235174447,-187500.02235174447
não,10784.828458407934,-3476.903257000835,7673.555037207012,7578.046033149485,-187500.02235174447,-187500.02235174447,-187500.02235174447,-187500.02235174447
não,10804.252124339597,-3515.705885375248,7631.1984814642055,7556.20837881665,-187500.02235174447,-187500.02235174447,-187500.02235174447,-187500.02235174447
não,11000.70160635729,-3505.2899724590748,8095.891248690039,7501.938343279165,-187500.02235174447,-187500.02235174447,-187500.02235174447,-187500.02235174447
não,10983.580170104524,-3477.7302715456813,8169.674357137008,7503.8829450467765,-187500.02235174447,-187500.02235174447,-187500.02235174447,-187500.02235174447
não,10843.121807947375,-3484.2122774377203,7757.687003336788,7553.63792820429,-187500.02235174447,-187500.02235174447,-187500.02235174447,-187500.02235174447
não,10820.635953025336,-3519.9080133328457,7581.018815162041,7554.911977638242,-187500.02235174447,-187500.02235174447,-187500.02235174447,-187500.02235174447
não,10980.093297969497,-3504.6864753587815,8031.048838025194,7505.358160180826,-187500.02235174447,-187500.02235174447,-187500.02235174447,-187500.02235174447
não,11008.658827383379,-3464.2298178946758,8208.298171555778,7508.018017771008,-187500.02235174447,-187500.02235174447,-187500.02235174447,-187500.02235174447
não,10867.664023359303,-3468.119021429899,7843.8082747230865,7550.1957595581725,-187500.02235174447,-187500.02235174447,-187500.02235174447,-187500.02235174447
não,10792.964493389665,-3514.3647807079296,7560.231692818606,7559.985823629597,-187500.02235174447,-187500.02235174447,-187500.02235174447,-187500.02235174447
não,10955.148751157374,-3518.701019132259,7949.420267274412,7503.190040968662,-187500.02235174447,-187500.02235174447,-187500.02235174447,-187500.02235174447
não,11030.675295671857,-3476.903257000835,8218.602325749674,7489.533125106469,-187500.02235174447,-187500.02235174447,-187500.02235174447,-187500.02235174447
não,10921.531727496593,-3471.44943135374,7928.253165275236,7533.946041339164,-187500.02235174447,-187500.02235174447,-187500.02235174447,-187500.02235174447
não,10811.337627331928,-3507.793367838069,7569.887646423298,7559.605843973857,-187500.02235174447,-187500.02235174447,-187500.02235174447,-187500.02235174447
não,10942.251794606662,-3525.026562813111,7875.927731505362,7500.91016303422,-187500.02235174447,-187500.02235174447,-187500.02235174447,-187500.02235174447
não,11049.607223225501,-3493.130623475388,8215.584840248208,7467.270787628983,-187500.02235174447,-187500.02235174447,-187500.02235174447,-187500.02235174447
não,10946.520977797625,-3475.3833383778738,7997.409462619957,7504.955828780631,-187500.02235174447,-187500.02235174447,-187500.02235174447,-187500.02235174447
não,10825.553336805504,-3506.564021893027,7578.582475016413,7544.049029832963,-187500.02235174447,-187500.02235174447,-187500.02235174447,-187500.02235174447
não,10938.92138468282,-3530.301574504563,7779.032919291606,7505.067587502907,-187500.02235174447,-187500.02235174447,-187500.02235174447,-187500.02235174447
não,11075.80346772712,-3498.115062488921,8194.685959182496,7460.632319525757,-187500.02235174447,-187500.02235174447,-187500.02235174447,-187500.02235174447
não,11011.98923730722,-3479.473707613195,8075.88643740254,7488.169668694695,-187500.02235174447,-187500.02235174447,-187500.02235174447,-187500.02235174447
não,10860.9137965338,-3506.0499317705553,7634.350077432404,7534.661297161734,-187500.02235174447,-187500.02235174447,-187500.02235174447,-187500.02235174447
não,10921.174099585307,-3536.470655974228,7702.008807898618,7503.905296791232,-187500.02235174447,-187500.02235174447,-187500.02235174447,-187500.02235174447
não,11068.785019968154,-3502.8089288245355,8159.414906432022,7466.354366106316,-187500.02235174447,-187500.02235174447,-187500.02235174447,-187500.02235174447
não,11021.891060100921,-3473.0811086989775,8139.723019566896,7490.158973951218,-187500.02235174447,-187500.02235174447,-187500.02235174447,-187500.02235174447
não,10867.328747192472,-3489.3531786624408,7702.835822443465,7543.44553273267,-187500.02235174447,-187500.02235174447,-187500.02235174447,-187500.02235174447
não,10875.241264729651,-3523.864272101435,7636.94287978922,7525.497081935058,-187500.02235174447,-187500.02235174447,-187500.02235174447,-187500.02235174447
não,11039.638345198435,-3505.9158213038236,8102.686179004452,7470.377680108271,-187500.02235174447,-187500.02235174447,-187500.02235174447,-187500.02235174447
não,11041.024153354663,-3478.1996581792428,8185.81231663374,7477.172610422685,-187500.02235174447,-187500.02235174447,-187500.02235174447,-187500.02235174447
não,10890.775727126089,-3484.704015815737,7773.333224455503,7527.151111024751,-187500.02235174447,-187500.02235174447,-187500.02235174447,-187500.02235174447
não,10858.723325577179,-3525.406542468851,7583.589265774402,7525.050047045952,-187500.02235174447,-187500.02235174447,-187500.02235174447,-187500.02235174447
não,11032.731656161744,-3518.7457226211695,8028.098407757093,7467.918988218187,-187500.02235174447,-187500.02235174447,-187500.02235174447,-187500.02235174447
não,11058.883197174455,-3477.506754101128,8216.791834448795,7471.227046397573,-187500.02235174447,-187500.02235174447,-187500.02235174447,-187500.02235174447
não,10918.670704206314,-3474.7798412775805,7868.08226920155,7524.357142967838,-187500.02235174447,-187500.02235174447,-187500.02235174447,-187500.02235174447
não,10848.24035742764,-3517.1363970203874,7568.144210355785,7539.2210530306165,-187500.02235174447,-187500.02235174447,-187500.02235174447,-187500.02235174447
não,10985.301254427583,-3521.6514494003595,7940.926604381395,7481.374738380282,-187500.02235174447,-187500.02235174447,-187500.02235174447,-187500.02235174447
não,11053.585833738547,-3481.7535855476362,8224.458482796965,7470.24356964154,-187500.02235174447,-187500.02235174447,-187500.02235174447,-187500.02235174447
não,10940.307192839051,-3470.0412714530557,7948.794418429664,7520.043256287963,-187500.02235174447,-187500.02235174447,-187500.02235174447,-187500.02235174447
não,10846.04988647102,-3501.668989857315,7602.476489839136,7548.049992090463,-187500.02235174447,-187500.02235174447,-187500.02235174447,-187500.02235174447
não,10965.810533262556,-3518.276335987608,7855.095905673016,7498.987913011064,-187500.02235174447,-187500.02235174447,-187500.02235174447,-187500.02235174447
não,11081.614921285502,-3483.8770012708906,8235.701410257985,7468.790706251944,-187500.02235174447,-187500.02235174447,-187500.02235174447,-187500.02235174447
não,10978.640434579902,-3466.2638266401086,8017.324866929635,7512.130738750785,-187500.02235174447,-187500.02235174447,-187500.02235174447,-187500.02235174447
não,10857.538683121049,-3500.9090305458344,7603.348207872893,7550.0169456025305,-187500.02235174447,-187500.02235174447,-187500.02235174447,-187500.02235174447
não,10937.06618989303,-3523.774865123614,7764.39252667338,7511.326075950394,-187500.02235174447,-187500.02235174447,-187500.02235174447,-187500.02235174447
não,11070.550807780124,-3493.6894170867704,8179.062089808237,7467.628415540268,-187500.02235174447,-187500.02235174447,-187500.02235174447,-187500.02235174447
não,11017.75598737669,-3472.6564255543267,8084.156582851003,7498.473822888592,-187500.02235174447,-187500.02235174447,-187500.02235174447,-187500.02235174447
não,10874.034270529064,-3493.6670653423153,7647.135275260839,7553.414410759737,-187500.02235174447,-187500.02235174447,-187500.02235174447,-187500.02235174447
não,10930.248907834162,-3531.4638652162394,7696.577333995979,7521.853747588843,-187500.02235174447,-187500.02235174447,-187500.02235174447,-187500.02235174447
não,11085.414717842903,-3507.480443415695,8150.094228994159,7466.8461044843325,-187500.02235174447,-187500.02235174447,-187500.02235174447,-187500.02235174447
não,11066.303976333616,-3482.111213458921,8135.856167776128,7484.593389581846,-187500.02235174447,-187500.02235174447,-187500.02235174447,-187500.02235174447
não,10914.893259393366,-3494.449376398251,7698.611342741412,7537.656430918745,-187500.02235174447,-187500.02235174447,-187500.02235174447,-187500.02235174447
não,10927.63375373289,-3533.252004772664,7618.435635380225,7524.088922034374,-187500.02235174447,-187500.02235174447,-187500.02235174447,-187500.02235174447
não,11100.39038662796,-3518.7457226211695,8089.185725353447,7462.934549204654,-187500.02235174447,-187500.02235174447,-187500.02235174447,-187500.02235174447
não,11103.206706429328,-3485.4639751272175,8190.550886458264,7471.159991164207,-187500.02235174447,-187500.02235174447,-187500.02235174447,-187500.02235174447
não,10947.750323742668,-3497.958600277734,7779.479954180712,7519.707980121134,-187500.02235174447,-187500.02235174447,-187500.02235174447,-187500.02235174447
não,10910.132337824385,-3538.214092041742,7569.664128978745,7519.7750353545,-187500.02235174447,-187500.02235174447,-187500.02235174447,-187500.02235174447
não,11072.09307814754,-3534.436647228795,7997.63298006451,7453.010374666497,-187500.02235174447,-187500.02235174447,-187500.02235174447,-187500.02235174447
não,11116.505994380235,-3500.1043677454436,8200.899744141072,7453.323299088872,-187500.02235174447,-187500.02235174447,-187500.02235174447,-187500.02235174447
não,10992.722033586746,-3496.058701999033,7861.60026330951,7510.990799783564,-187500.02235174447,-187500.02235174447,-187500.02235174447,-187500.02235174447
não,10907.941866867766,-3532.1344175498984,7556.968338128131,7532.962564583131,-187500.02235174447,-187500.02235174447,-187500.02235174447,-187500.02235174447
não,11060.157246608407,-3538.929347864312,7924.207499528826,7468.433078340659,-187500.02235174447,-187500.02235174447,-187500.02235174447,-187500.02235174447
não,11132.509843410236,-3500.7749200791027,8209.415758778543,7447.109514130297,-187500.02235174447,-187500.02235174447,-187500.02235174447,-187500.02235174447
não,11017.688932143323,-3495.9692950212116,7935.606889201033,7495.679854831679,-187500.02235174447,-187500.02235174447,-187500.02235174447,-187500.02235174447
não,10904.186773799274,-3527.574661681016,7556.722468939122,7529.051009303452,-187500.02235174447,-187500.02235174447,-187500.02235174447,-187500.02235174447
não,11026.60727818099,-3546.0819060900103,7835.560481019078,7474.311587132405,-187500.02235174447,-187500.02235174447,-187500.02235174447,-187500.02235174447
não,11135.303811467149,-3510.2744114726083,8206.711197699451,7445.56724376288,-187500.02235174447,-187500.02235174447,-187500.02235174447,-187500.02235174447
não,11045.293336545628,-3495.8128328100247,8016.855480296073,7482.089994202852,-187500.02235174447,-187500.02235174447,-187500.02235174447,-187500.02235174447
não,10917.374303027906,-3526.0323913136,7606.231582907628,7521.205546999639,-187500.02235174447,-187500.02235174447,-187500.02235174447,-187500.02235174447
não,10994.018434765154,-3549.546426480583,7742.063133962529,7487.655578572224,-187500.02235174447,-187500.02235174447,-187500.02235174447,-187500.02235174447
não,11130.051151520152,-3518.5892604099827,8172.893008338572,7446.506017030003,-187500.02235174447,-187500.02235174447,-187500.02235174447,-187500.02235174447
não,11060.984261153253,-3491.208373452231,8073.4948007458215,7475.496229588536,-187500.02235174447,-187500.02235174447,-187500.02235174447,-187500.02235174447
não,10914.088596592976,-3518.991591810178,7609.293771898005,7527.240518002573,-187500.02235174447,-187500.02235174447,-187500.02235174447,-187500.02235174447
não,10972.761925788156,-3557.727164951225,7651.985603807641,7495.657503087224,-187500.02235174447,-187500.02235174447,-187500.02235174447,-187500.02235174447
não,11131.749884098756,-3530.949775093767,8120.545222824243,7443.041496639431,-187500.02235174447,-187500.02235174447,-187500.02235174447,-187500.02235174447
não,11103.541982596158,-3498.1374142333766,8140.415923645011,7471.919950475687,-187500.02235174447,-187500.02235174447,-187500.02235174447,-187500.02235174447
não,10943.92817544081,-3510.3638184504293,7719.1302441513835,7529.833320359388,-187500.02235174447,-187500.02235174447,-187500.02235174447,-187500.02235174447
não,10938.317887582527,-3553.435630015806,7600.151908415784,7506.7216165926,-187500.02235174447,-187500.02235174447,-187500.02235174447,-187500.02235174447
não,11119.590535115069,-3517.1140452759323,8055.479294714844,7452.786857221945,-187500.02235174447,-187500.02235174447,-187500.02235174447,-187500.02235174447
não,11107.05120647564,-3502.4513009132506,8166.969796057916,7444.024973395464,-187500.02235174447,-187500.02235174447,-187500.02235174447,-187500.02235174447
não,10953.11474241194,-3499.925553789801,7781.11163152595,7506.833375314877,-187500.02235174447,-187500.02235174447,-187500.02235174447,-187500.02235174447
não,10921.308210052039,-3542.013888599144,7570.111163867851,7516.779901597489,-187500.02235174447,-187500.02235174447,-187500.02235174447,-187500.02235174447
não,11057.743258207234,-3572.9934064142,7950.582557986088,7434.592537235325,-187500.02235174447,-187500.02235174447,-187500.02235174447,-187500.02235174447
não,11128.710046852833,-3504.440606169773,8173.407098461044,7440.85102568281,-187500.02235174447,-187500.02235174447,-187500.02235174447,-187500.02235174447
não,10976.673481067835,-3510.9226120618123,7824.988105891718,7475.518581332992,-187500.02235174447,-187500.02235174447,-187500.02235174447,-187500.02235174447
não,10896.453070217738,-3555.2014178277755,7524.491253434569,7499.323189177894,-187500.02235174447,-187500.02235174447,-187500.02235174447,-187500.02235174447
não,11081.167886396395,-3541.2315775432085,7926.2191565298035,7462.28634861545,-187500.02235174447,-187500.02235174447,-187500.02235174447,-187500.02235174447
não,11151.821750619622,-3520.7797313666024,8243.457465583977,7424.444845252615,-187500.02235174447,-187500.02235174447,-187500.02235174447,-187500.02235174447
não,10989.101050984986,-3556.2966533060853,7908.9636098103065,7431.6868104561345,-187500.02235174447,-187500.02235174447,-187500.02235174447,-187500.02235174447
não,10904.119718565908,-3561.1693335973423,7547.714715923634,7498.406767655226,-187500.02235174447,-187500.02235174447,-187500.02235174447,-187500.02235174447
não,11060.403115797415,-3549.0323363581106,7857.5545975631,7462.554569548914,-187500.02235174447,-187500.02235174447,-187500.02235174447,-187500.02235174447
não,11141.20467200335,-3523.484292445695,8176.581046173698,7414.0736358253525,-187500.02235174447,-187500.02235174447,-187500.02235174447,-187500.02235174447
não,11030.138853804929,-3546.573644468027,7961.646671491465,7420.443882995115,-187500.02235174447,-187500.02235174447,-187500.02235174447,-187500.02235174447
não,10873.989567040155,-3589.7125112667695,7526.525262180003,7467.00256669552,-187500.02235174447,-187500.02235174447,-187500.02235174447,-187500.02235174447
não,10993.839620809511,-3592.5511828125937,7710.815395214009,7438.526444259459,-187500.02235174447,-187500.02235174447,-187500.02235174447,-187500.02235174447
não,11122.518613638713,-3562.6892522203034,8108.229411629369,7354.752106040968,-187500.02235174447,-187500.02235174447,-187500.02235174447,-187500.02235174447
não,11089.013348700208,-3532.089714060988,8097.098242890626,7404.954124087588,-187500.02235174447,-187500.02235174447,-187500.02235174447,-187500.02235174447
não,10925.666800220824,-3550.373441025429,7695.437395028758,7450.261110098495,-187500.02235174447,-187500.02235174447,-187500.02235174447,-187500.02235174447
não,10905.840802888966,-3647.447067194828,7588.93133269922,7384.614036633258,-187500.02235174447,-187500.02235174447,-187500.02235174447,-187500.02235174447
não,11134.29798296666,-3565.9526069107783,8168.802639103251,7396.929847828133,-187500.02235174447,-187500.02235174447,-187500.02235174447,-187500.02235174447
não,11085.057089931619,-3554.016775371644,8072.734841434341,7401.064920552364,-187500.02235174447,-187500.02235174447,-187500.02235174447,-187500.02235174447
não,10862.612529112403,-3622.86014829399,7565.573759743424,7391.408966947672,-187500.02235174447,-187500.02235174447,-187500.02235174447,-187500.02235174447
não,10948.845559220978,-3626.7717035736687,7536.471788462614,7422.902574885199,-187500.02235174447,-187500.02235174447,-187500.02235174447,-187500.02235174447
não,11094.087194691563,-3623.2624796941855,7952.86243592053,7355.824989774823,-187500.02235174447,-187500.02235174447,-187500.02235174447,-187500.02235174447
não,11080.85496197402,-3566.019662144144,8136.526720109788,7376.813277818356,-187500.02235174447,-187500.02235174447,-187500.02235174447,-187500.02235174447
não,10942.49766379567,-3565.37146155494,7733.010677458129,7419.8850893837325,-187500.02235174447,-187500.02235174447,-187500.02235174447,-187500.02235174447
não,10924.7280269537,-3592.7523485126912,7536.6953059071675,7471.271749886483,-187500.02235174447,-187500.02235174447,-187500.02235174447,-187500.02235174447
não,11062.727697220767,-3619.149758714409,7911.08702553356,7387.877391323733,-187500.02235174447,-187500.02235174447,-187500.02235174447,-187500.02235174447
não,11087.605188799524,-3602.0283224616437,8122.713342036408,7344.649117547169,-187500.02235174447,-187500.02235174447,-187500.02235174447,-187500.02235174447
não,10968.828018764021,-3592.729996768236,7807.665503938855,7440.672211727168,-187500.02235174447,-187500.02235174447,-187500.02235174447,-187500.02235174447
não,10896.944808595754,-3617.540433113627,7481.128869191274,7465.683813772656,-187500.02235174447,-187500.02235174447,-187500.02235174447,-187500.02235174447
não,11017.219545509763,-3616.3781424019508,7814.795710420098,7357.322556653328,-187500.02235174447,-187500.02235174447,-187500.02235174447,-187500.02235174447
não,11103.318465151604,-3575.8767814489347,8142.18171145698,7361.41292588865,-187500.02235174447,-187500.02235174447,-187500.02235174447,-187500.02235174447
não,11010.983408806731,-3554.642624216393,7904.113281263505,7407.010484577476,-187500.02235174447,-187500.02235174447,-187500.02235174447,-187500.02235174447
não,10897.145974295852,-3582.5152495521606,7517.5622126534245,7479.228970912573,-187500.02235174447,-187500.02235174447,-187500.02235174447,-187500.02235174447
não,10959.797914004079,-3636.9640990452885,7729.635564045378,7399.679112396135,-187500.02235174447,-187500.02235174447,-187500.02235174447,-187500.02235174447
não,11086.308787621116,-3593.7805287576352,8141.958194012427,7390.291379724906,-187500.02235174447,-187500.02235174447,-187500.02235174447,-187500.02235174447
não,11020.862879855977,-3564.7232609657362,7988.044081693182,7439.398162293215,-187500.02235174447,-187500.02235174447,-187500.02235174447,-187500.02235174447
não,10864.7135930912,-3586.3821013429288,7551.380402014304,7482.782898280967,-187500.02235174447,-187500.02235174447,-187500.02235174447,-187500.02235174447
não,10919.83299491799,-3611.214889432775,7672.0574703285065,7443.466179784082,-187500.02235174447,-187500.02235174447,-187500.02235174447,-187500.02235174447
não,11053.965813394287,-3588.3267031105406,8100.830984214662,7404.171813031651,-187500.02235174447,-187500.02235174447,-187500.02235174447,-187500.02235174447
não,11003.741443603212,-3564.3656330544513,8024.879756555529,7417.985191105032,-187500.02235174447,-187500.02235174447,-187500.02235174447,-187500.02235174447
não,10861.919625034288,-3578.9836739282223,7585.399757075282,7481.173572680184,-187500.02235174447,-187500.02235174447,-187500.02235174447,-187500.02235174447
não,10906.511355222627,-3616.266383679674,7589.847754221887,7464.879150972266,-187500.02235174447,-187500.02235174447,-187500.02235174447,-187500.02235174447
não,11070.327290335572,-3577.6649210053592,8066.811629153684,7432.089141856331,-187500.02235174447,-187500.02235174447,-187500.02235174447,-187500.02235174447
não,11061.967737909286,-3553.346223037985,8101.702702248419,7449.121171131274,-187500.02235174447,-187500.02235174447,-187500.02235174447,-187500.02235174447
não,10890.39574747035,-3570.624121501937,7684.596798967934,7502.0053985125305,-187500.02235174447,-187500.02235174447,-187500.02235174447,-187500.02235174447
não,10879.353985709427,-3611.594869088515,7551.045125847474,7480.078337201874,-187500.02235174447,-187500.02235174447,-187500.02235174447,-187500.02235174447
não,11040.733580676744,-3600.575459072049,8005.746663301786,7398.248600750995,-187500.02235174447,-187500.02235174447,-187500.02235174447,-187500.02235174447
não,11069.321461835083,-3557.3248335510298,8164.220531489913,7406.094063054808,-187500.02235174447,-187500.02235174447,-187500.02235174447,-187500.02235174447
não,10900.118756308408,-3561.124630108432,7748.38867764338,7468.924816718676,-187500.02235174447,-187500.02235174447,-187500.02235174447,-187500.02235174447
não,10857.739848821146,-3598.5190985821605,7537.857596618843,7482.2241046695835,-187500.02235174447,-187500.02235174447,-187500.02235174447,-187500.02235174447
não,11006.758929104679,-3598.764967771169,7919.133653537471,7425.8753568977545,-187500.02235174447,-187500.02235174447,-187500.02235174447,-187500.02235174447
não,11065.05227864412,-3560.185856841309,8190.103851569159,7420.846214395311,-187500.02235174447,-187500.02235174447,-187500.02235174447,-187500.02235174447
não,10915.653218704847,-3553.9497201382783,7842.064838655572,7481.307683146916,-187500.02235174447,-187500.02235174447,-187500.02235174447,-187500.02235174447
não,10830.314258374485,-3593.8475839910016,7540.718619909123,7512.086035261874,-187500.02235174447,-187500.02235174447,-187500.02235174447,-187500.02235174447
não,10965.564664073547,-3602.900040495401,7843.294184600614,7458.844179969333,-187500.02235174447,-187500.02235174447,-187500.02235174447,-187500.02235174447
não,11053.831702927555,-3565.1032406214763,8154.430467418489,7433.363191290283,-187500.02235174447,-187500.02235174447,-187500.02235174447,-187500.02235174447
não,10948.30911735405,-3547.3336037795075,7931.628278687987,7482.268808158495,-187500.02235174447,-187500.02235174447,-187500.02235174447,-187500.02235174447
não,10826.268592628074,-3577.150830882887,7532.0014395715525,7518.836262087377,-187500.02235174447,-187500.02235174447,-187500.02235174447,-187500.02235174447
não,10938.474349793714,-3600.307238138585,7758.312852181537,7467.38254635126,-187500.02235174447,-187500.02235174447,-187500.02235174447,-187500.02235174447
não,11058.391458796437,-3561.124630108432,8152.418810417511,7438.548796003914,-187500.02235174447,-187500.02235174447,-187500.02235174447,-187500.02235174447
não,10968.31392864155,-3536.090676318488,8006.305456913168,7472.9481307206315,-187500.02235174447,-187500.02235174447,-187500.02235174447,-187500.02235174447
não,10835.633973554848,-3566.6231592444374,7575.185009859206,7513.96358179612,-187500.02235174447,-187500.02235174447,-187500.02235174447,-187500.02235174447
não,10911.316980280517,-3593.534659568627,7686.831973413465,7475.406822610716,-187500.02235174447,-187500.02235174447,-187500.02235174447,-187500.02235174447
não,11042.387609766438,-3556.319005050541,8128.256574661324,7430.591574977824,-187500.02235174447,-187500.02235174447,-187500.02235174447,-187500.02235174447
não,10987.692891084302,-3529.4969117041724,8078.814515926185,7465.102668416819,-187500.02235174447,-187500.02235174447,-187500.02235174447,-187500.02235174447
não,10842.183034680253,-3546.9983276126777,7641.636746124834,7522.792520855966,-187500.02235174447,-187500.02235174447,-187500.02235174447,-187500.02235174447
não,10880.896256076843,-3583.8563542194793,7627.733961073633,7508.465052660114,-187500.02235174447,-187500.02235174447,-187500.02235174447,-187500.02235174447
não,11046.701496446312,-3565.6620342328592,8088.939856164438,7462.934549204654,-187500.02235174447,-187500.02235174447,-187500.02235174447,-187500.02235174447
não,11026.294353758616,-3534.1684262953313,8130.469397362399,7470.310624874905,-187500.02235174447,-187500.02235174447,-187500.02235174447,-187500.02235174447
não,10871.419116427795,-3536.6494699298705,7709.76486322461,7503.659427602223,-187500.02235174447,-187500.02235174447,-187500.02235174447,-187500.02235174447
não,10857.00224125412,-3570.4900110352055,7562.444515519681,7517.696323120156,-187500.02235174447,-187500.02235174447,-187500.02235174447,-187500.02235174447
não,11021.175804278351,-3564.8797231769236,8010.976971504328,7462.487514315548,-187500.02235174447,-187500.02235174447,-187500.02235174447,-187500.02235174447
não,11049.562519736592,-3534.436647228795,8157.269138964312,7466.063793428397,-187500.02235174447,-187500.02235174447,-187500.02235174447,-187500.02235174447
não,10906.600762200447,-3536.4930077186837,7786.073718795028,7517.115177764318,-187500.02235174447,-187500.02235174447,-187500.02235174447,-187500.02235174447
não,10838.204424167208,-3576.2344093602196,7528.425160458703,7525.698247635156,-187500.02235174447,-187500.02235174447,-187500.02235174447,-187500.02235174447
não,10988.050518995586,-3576.3685198269513,7933.505825222233,7462.822790482377,-187500.02235174447,-187500.02235174447,-187500.02235174447,-187500.02235174447
não,11047.416752268882,-3530.4356849712954,8191.064976580737,7459.782953236456,-187500.02235174447,-187500.02235174447,-187500.02235174447,-187500.02235174447
não,10917.642523961369,-3517.8516528429573,7878.676996073365,7508.085073004374,-187500.02235174447,-187500.02235174447,-187500.02235174447,-187500.02235174447
não,10836.885671244345,-3552.9662433822446,7557.8847596507985,7529.185119770184,-187500.02235174447,-187500.02235174447,-187500.02235174447,-187500.02235174447
não,10964.514132084149,-3569.8865139349123,7844.411771823379,7480.547723835436,-187500.02235174447,-187500.02235174447,-187500.02235174447,-187500.02235174447
não,11072.00367116972,-3534.928385606812,8195.401215005066,7455.33495608985,-187500.02235174447,-187500.02235174447,-187500.02235174447,-187500.02235174447
não,10966.50343734067,-3524.5571761795495,7939.272575291703,7490.516601862503,-187500.02235174447,-187500.02235174447,-187500.02235174447,-187500.02235174447
não,10845.424037626271,-3562.1081068644653,7549.9051868802535,7521.093788277363,-187500.02235174447,-187500.02235174447,-187500.02235174447,-187500.02235174447
não,10922.515204252626,-3596.440386347817,7740.699677550755,7473.618683054291,-187500.02235174447,-187500.02235174447,-187500.02235174447,-187500.02235174447
não,11047.394400524427,-3560.2976155635856,8135.029153231282,7453.032726410953,-187500.02235174447,-187500.02235174447,-187500.02235174447,-187500.02235174447
não,10966.436382107304,-3517.31521097603,8013.5027186277775,7502.139508979262,-187500.02235174447,-187500.02235174447,-187500.02235174447,-187500.02235174447
não,10823.42992108225,-3536.9623943522447,7583.812783218955,7547.088867078885,-187500.02235174447,-187500.02235174447,-187500.02235174447,-187500.02235174447
não,10908.075977334498,-3573.1722203698423,7675.23141804116,7501.871288045799,-187500.02235174447,-187500.02235174447,-187500.02235174447,-187500.02235174447
não,11065.074630388573,-3553.726202693725,8110.866917475095,7456.743115990534,-187500.02235174447,-187500.02235174447,-187500.02235174447,-187500.02235174447
não,11020.617010666969,-3519.3715714659184,8066.83398089814,7475.965616222098,-187500.02235174447,-187500.02235174447,-187500.02235174447,-187500.02235174447
não,10867.172284981285,-3527.7534756366585,7636.27232745556,7526.972297069108,-187500.02235174447,-187500.02235174447,-187500.02235174447,-187500.02235174447
não,10880.96331131021,-3571.4511360467836,7602.476489839136,7510.141433494263,-187500.02235174447,-187500.02235174447,-187500.02235174447,-187500.02235174447
não,11041.851167899511,-3555.0673073610437,8065.112896575081,7459.693546258634,-187500.02235174447,-187500.02235174447,-187500.02235174447,-187500.02235174447
não,11019.499423444204,-3522.567870923027,8125.216737415402,7471.271749886483,-187500.02235174447,-187500.02235174447,-187500.02235174447,-187500.02235174447
não,10855.594081353436,-3531.0838855604993,7708.535517279568,7524.580660412391,-187500.02235174447,-187500.02235174447,-187500.02235174447,-187500.02235174447
não,10838.33853463394,-3568.2101331007643,7548.0276403460075,7523.999515056553,-187500.02235174447,-187500.02235174447,-187500.02235174447,-187500.02235174447
não,11012.458623940782,-3556.922502150834,7995.934247485906,7462.755735249011,-187500.02235174447,-187500.02235174447,-187500.02235174447,-187500.02235174447
não,11049.227243569761,-3529.921594848823,8149.4236766605,7459.805304980911,-187500.02235174447,-187500.02235174447,-187500.02235174447,-187500.02235174447
não,10916.055550105042,-3531.9109001053457,7781.402204203869,7504.173517724696,-187500.02235174447,-187500.02235174447,-187500.02235174447,-187500.02235174447
não,10848.866206272389,-3570.624121501937,7511.795462583955,7515.081169018886,-187500.02235174447,-187500.02235174447,-187500.02235174447,-187500.02235174447
não,10996.521830144147,-3571.048804646588,7903.710949863309,7455.066735156386,-187500.02235174447,-187500.02235174447,-187500.02235174447,-187500.02235174447
não,11039.66069694289,-3524.1771965238095,8161.963005299927,7444.382601306749,-187500.02235174447,-187500.02235174447,-187500.02235174447,-187500.02235174447
não,10913.73096868169,-3513.448359185262,7868.08226920155,7500.060796744919,-187500.02235174447,-187500.02235174447,-187500.02235174447,-187500.02235174447
não,10809.66124649778,-3549.501722991672,7509.96261953862,7531.599108171357,-187500.02235174447,-187500.02235174447,-187500.02235174447,-187500.02235174447
não,10948.867910965433,-3568.0089674006663,7824.3175535580585,7491.745947807544,-187500.02235174447,-187500.02235174447,-187500.02235174447,-187500.02235174447
não,11058.816141941088,-3529.7874843820914,8176.581046173698,7469.237741141051,-187500.02235174447,-187500.02235174447,-187500.02235174447,-187500.02235174447
não,10958.568568059036,-3513.4930626741725,7956.3940115444675,7495.188116453662,-187500.02235174447,-187500.02235174447,-187500.02235174447,-187500.02235174447
não,10838.271479400573,-3547.154789823865,7556.096620094374,7506.475747403592,-187500.02235174447,-187500.02235174447,-187500.02235174447,-187500.02235174447
não,10936.552099770559,-3567.7854499561136,7737.570433327011,7472.277578386972,-187500.02235174447,-187500.02235174447,-187500.02235174447,-187500.02235174447
não,11065.834589700054,-3537.5211879636277,8158.297319209257,7445.164912362685,-187500.02235174447,-187500.02235174447,-187500.02235174447,-187500.02235174447
não,10977.925178757332,-3521.9643738227337,8017.861308796562,7469.997700452531,-187500.02235174447,-187500.02235174447,-187500.02235174447,-187500.02235174447
não,10846.988659738143,-3541.768019410136,7580.325911083926,7520.624401643801,-187500.02235174447,-187500.02235174447,-187500.02235174447,-187500.02235174447
não,10893.30147424954,-3567.2937115780965,7644.050734526007,7480.838296513355,-187500.02235174447,-187500.02235174447,-187500.02235174447,-187500.02235174447
não,11024.170938035362,-3548.7864671691023,8067.459829742888,7436.09010411383,-187500.02235174447,-187500.02235174447,-187500.02235174447,-187500.02235174447
não,10995.895981299398,-3508.1062922604433,8065.604634953098,7463.895674216232,-187500.02235174447,-187500.02235174447,-187500.02235174447,-187500.02235174447
não,10855.996412753631,-3523.9089755903456,7643.067257769973,7519.707980121134,-187500.02235174447,-187500.02235174447,-187500.02235174447,-187500.02235174447
não,10872.424944928283,-3568.8583336899683,7587.992559432097,7510.275543960995,-187500.02235174447,-187500.02235174447,-187500.02235174447,-187500.02235174447
não,11045.069819101074,-3557.213074828753,8045.935099832428,7447.936528675143,-187500.02235174447,-187500.02235174447,-187500.02235174447,-187500.02235174447
não,11040.957098121298,-3521.3161732335298,8117.661847789508,7447.601252508313,-187500.02235174447,-187500.02235174447,-187500.02235174447,-187500.02235174447
não,10874.10132576243,-3534.0790193175103,7698.454880530225,7490.5613053514135,-187500.02235174447,-187500.02235174447,-187500.02235174447,-187500.02235174447
não,10849.737924306146,-3570.08767963501,7526.167634268718,7494.741081564556,-187500.02235174447,-187500.02235174447,-187500.02235174447,-187500.02235174447
não,11023.969772335264,-3562.1975138422868,7973.582503030599,7434.570185490869,-187500.02235174447,-187500.02235174447,-187500.02235174447,-187500.02235174447
não,11056.42450528437,-3520.444455199773,8154.005784273838,7447.33303157485,-187500.02235174447,-187500.02235174447,-187500.02235174447,-187500.02235174447
não,10916.055550105042,-3519.84095809948,7799.149489301382,7513.181270740184,-187500.02235174447,-187500.02235174447,-187500.02235174447,-187500.02235174447
não,10847.52510160507,-3553.346223037985,7520.5573464104355,7522.770169111511,-187500.02235174447,-187500.02235174447,-187500.02235174447,-187500.02235174447
não,10986.105917227975,-3565.818496444046,7895.37374918148,7437.4982640145145,-187500.02235174447,-187500.02235174447,-187500.02235174447,-187500.02235174447
não,11057.765609951688,-3523.2607750011416,8175.6869763954855,7431.575051733858,-187500.02235174447,-187500.02235174447,-187500.02235174447,-187500.02235174447
não,10952.243024378184,-3515.616478397427,7890.65753110141,7493.131755963774,-187500.02235174447,-187500.02235174447,-187500.02235174447,-187500.02235174447
não,10848.150950449819,-3567.047842389088,7514.723541107601,7511.191965483662,-187500.02235174447,-187500.02235174447,-187500.02235174447,-187500.02235174447
$SILENCE,10982.283768926116,-3582.6270082744372,7811.733521429721,7468.947168463132,-187500.02235174447,-187500.02235174447,-187500.02235174447,-187500.02235174447
$SILENCE,11090.935598723365,-3534.2354815286976,8163.147647756058,7436.738304703034,-187500.02235174447,-187500.02235174447,-187500.02235174447,-187500.02235174447
$SILENCE,10990.822135308044,-3516.7564173646474,7956.461066777834,7473.216351654095,-187500.02235174447,-187500.02235174447,-187500.02235174447,-187500.02235174447
$SILENCE,10848.173302194275,-3554.08383060501,7533.499006450058,7499.43494790017,-187500.02235174447,-187500.02235174447,-187500.02235174447,-187500.02235174447
$SILENCE,10952.108913911452,-3580.0118541731663,7729.948488467752,7469.550665563424,-187500.02235174447,-187500.02235174447,-187500.02235174447,-187500.02235174447
$SILENCE,11088.231037644273,-3552.340394537496,8149.110752238125,7443.421476295171,-187500.02235174447,-187500.02235174447,-187500.02235174447,-187500.02235174447
$SILENCE,11020.058217055586,-3521.606745911449,8036.435608438923,7466.28731087295,-187500.02235174447,-187500.02235174447,-187500.02235174447,-187500.02235174447
$SILENCE,10890.73102363718,-3528.9157663483343,7618.8156150359655,7505.0005322695415,-187500.02235174447,-187500.02235174447,-187500.02235174447,-187500.02235174447
$SILENCE,10942.02827716211,-3567.18195285582,7665.37429873637,7473.5963313098355,-187500.02235174447,-187500.02235174447,-187500.02235174447,-187500.02235174447
$SILENCE,11102.022063973196,-3544.0702490890326,8107.22358312888,7430.546871488914,-187500.02235174447,-187500.02235174447,-187500.02235174447,-187500.02235174447
$SILENCE,11051.23890057074,-3505.4017311813514,8096.65120800152,7477.284369144961,-187500.02235174447,-187500.02235174447,-187500.02235174447,-187500.02235174447
$SILENCE,10878.571674653493,-3532.4920454611834,7628.5609756184795,7541.433875731693,-187500.02235174447,-187500.02235174447,-187500.02235174447,-187500.02235174447
$SILENCE,10897.503602207136,-3586.627970531937,7564.679689965212,7520.266773732516,-187500.02235174447,-187500.02235174447,-187500.02235174447,-187500.02235174447
$SILENCE,11074.261197359705,-3568.2101331007643,8028.97012579085,7449.031764153453,-187500.02235174447,-187500.02235174447,-187500.02235174447,-187500.02235174447
$SILENCE,11078.373918339483,-3521.472635444717,8129.0835892061705,7448.897653686721,-187500.02235174447,-187500.02235174447,-187500.02235174447,-187500.02235174447
$SILENCE,10931.478253779203,-3526.0323913136,7735.402314114847,7512.935401551176,-187500.02235174447,-187500.02235174447,-187500.02235174447,-187500.02235174447
$SILENCE,10888.004110813632,-3570.8476389464904,7538.68461116369,7496.462165887615,-187500.02235174447,-187500.02235174447,-187500.02235174447,-187500.02235174447
$SILENCE,11053.697592460823,-3561.7281272087253,7968.799229717163,7426.724723187056,-187500.02235174447,-187500.02235174447,-187500.02235174447,-187500.02235174447
$SILENCE,11092.500220835236,-3515.1247400194097,8155.95038604145,7448.13769437524,-187500.02235174447,-187500.02235174447,-187500.02235174447,-187500.02235174447
$SILENCE,10953.293556367584,-3523.0149058121333,7808.805442906076,7500.016093256008,-187500.02235174447,-187500.02235174447,-187500.02235174447,-187500.02235174447
$SILENCE,10873.229607728674,-3568.768926712147,7513.1589189957285,7509.023846271497,-187500.02235174447,-187500.02235174447,-187500.02235174447,-187500.02235174447
$SILENCE,11031.61406893898,-3572.4122610583618,7903.196859740837,7451.803380465911,-187500.02235174447,-187500.02235174447,-187500.02235174447,-187500.02235174447
$SILENCE,11101.19504942835,-3533.0061355836556,8178.257427007846,7437.90059541471,-187500.02235174447,-187500.02235174447,-187500.02235174447,-187500.02235174447
$SILENCE,10979.467449124748,-3528.1558070368537,7891.797470068631,7483.945188992642,-187500.02235174447,-187500.02235174447,-187500.02235174447,-187500.02235174447
$SILENCE,10870.368584438394,-3560.8787609194233,7519.193889998662,7519.752683610044,-187500.02235174447,-187500.02235174447,-187500.02235174447,-187500.02235174447
$SILENCE,11002.13211800243,-3583.2305053747305,7799.775338146132,7467.8966364737325,-187500.02235174447,-187500.02235174447,-187500.02235174447,-187500.02235174447
$SILENCE,11107.207668686828,-3549.8817026474126,8156.889159308573,7437.118284358774,-187500.02235174447,-187500.02235174447,-187500.02235174447,-187500.02235174447
$SILENCE,11007.98827504972,-3528.0440483145776,7958.204502845348,7475.7644505220005,-187500.02235174447,-187500.02235174447,-187500.02235174447,-187500.02235174447
$SILENCE,10884.763107867611,-3558.80004868508,7536.918823351721,7500.15020372274,-187500.02235174447,-187500.02235174447,-187500.02235174447,-187500.02235174447
$SILENCE,10984.720109071744,-3599.1896509158196,7711.9106306923195,7450.194054865129,-187500.02235174447,-187500.02235174447,-187500.02235174447,-187500.02235174447
$SILENCE,11120.842232804565,-3556.900150406379,8138.806598044229,7419.281592283439,-187500.02235174447,-187500.02235174447,-187500.02235174447,-187500.02235174447
$SILENCE,11055.597490739525,-3514.767112108125,8033.4628264263665,7460.878188714766,-187500.02235174447,-187500.02235174447,-187500.02235174447,-187500.02235174447
$SILENCE,10911.473442491704,-3541.924481621323,7613.473548111147,7520.646753388257,-187500.02235174447,-187500.02235174447,-187500.02235174447,-187500.02235174447
$SILENCE,10957.674498280823,-3583.5210780526495,7656.344193976426,7487.230895427572,-187500.02235174447,-187500.02235174447,-187500.02235174447,-187500.02235174447
$SILENCE,11111.67801757789,-3558.531827751616,8119.293525134746,7437.90059541471,-187500.02235174447,-187500.02235174447,-187500.02235174447,-187500.02235174447
$SILENCE,11064.828761199566,-3522.053780800555,8119.293525134746,7452.317470588383,-187500.02235174447,-187500.02235174447,-187500.02235174447,-187500.02235174447
$SILENCE,10898.35296849644,-3542.2374060436973,7658.735830633143,7502.385378168271,-187500.02235174447,-187500.02235174447,-187500.02235174447,-187500.02235174447
$SILENCE,10906.041968589065,-3572.926351180834,7600.464832838158,7498.250305444039,-187500.02235174447,-187500.02235174447,-187500.02235174447,-187500.02235174447
$SILENCE,11068.159171123407,-3562.733955709214,8025.371494933545,7448.160046119696,-187500.02235174447,-187500.02235174447,-187500.02235174447,-187500.02235174447
$SILENCE,11082.754860252722,-3530.3909814823846,8124.3897228705555,7450.104647887308,-187500.02235174447,-187500.02235174447,-187500.02235174447,-187500.02235174447
$SILENCE,10944.934003941298,-3538.6611269308482,7725.791063999065,7495.612799598312,-187500.02235174447,-187500.02235174447,-187500.02235174447,-187500.02235174447
$SILENCE,10903.695035421257,-3587.9690751992557,7527.687552891679,7488.370834394794,-187500.02235174447,-187500.02235174447,-187500.02235174447,-187500.02235174447
$SILENCE,11058.391458796437,-3587.611447287971,7970.38620357349,7424.891880141721,-187500.02235174447,-187500.02235174447,-187500.02235174447,-187500.02235174447
$SILENCE,11093.260180146717,-3543.0420688440886,8160.554845399242,7424.04251385242,-187500.02235174447,-187500.02235174447,-187500.02235174447,-187500.02235174447
$SILENCE,10958.501512825671,-3533.9672605952337,7819.981315133729,7467.337842862349,-187500.02235174447,-187500.02235174447,-187500.02235174447,-187500.02235174447
$SILENCE,10881.142125265853,-3572.188743613809,7508.643866615756,7486.470936116092,-187500.02235174447,-187500.02235174447,-187500.02235174447,-187500.02235174447
$SILENCE,11035.905603874398,-3578.246066361197,7864.595397066521,7436.6712494696685,-187500.02235174447,-187500.02235174447,-187500.02235174447,-187500.02235174447
$SILENCE,11105.8218605306,-3540.2033972982645,8156.106848252636,7431.7538656895,-187500.02235174447,-187500.02235174447,-187500.02235174447,-187500.02235174447
$SILENCE,10985.971806761243,-3532.0003070831667,7896.603095126521,7475.451526099626,-187500.02235174447,-187500.02235174447,-187500.02235174447,-187500.02235174447
$SILENCE,10865.540607636049,-3563.9409499098006,7522.658410389235,7501.781881067977,-187500.02235174447,-187500.02235174447,-187500.02235174447,-187500.02235174447
$SILENCE,10987.402318406383,-3583.990464686211,7792.086338053506,7450.082296142852,-187500.02235174447,-187500.02235174447,-187500.02235174447,-187500.02235174447
$SILENCE,11100.613904072512,-3551.088696847999,8166.2992437242565,7416.8005486489,-187500.02235174447,-187500.02235174447,-187500.02235174447,-187500.02235174447
$SILENCE,10998.689949356312,-3526.479426202706,7977.538761799188,7442.750923961512,-187500.02235174447,-187500.02235174447,-187500.02235174447,-187500.02235174447
$SILENCE,10863.90893029081,-3552.675670704326,7542.529111210002,7483.542857592447,-187500.02235174447,-187500.02235174447,-187500.02235174447,-187500.02235174447
$SILENCE,10962.994213461187,-3586.7620809986693,7702.567601510001,7446.081333885352,-187500.02235174447,-187500.02235174447,-187500.02235174447,-187500.02235174447
$SILENCE,11098.266970904706,-3550.440496258795,8136.258499176324,7404.5070891984815,-187500.02235174447,-187500.02235174447,-187500.02235174447,-187500.02235174447
$SILENCE,11028.976563093252,-3530.9721268382227,8050.852483612595,7438.369982048272,-187500.02235174447,-187500.02235174447,-187500.02235174447,-187500.02235174447
$SILENCE,10882.349119466438,-3549.7252404362252,7614.702894056189,7488.594351839346,-187500.02235174447,-187500.02235174447,-187500.02235174447,-187500.02235174447
$SILENCE,10939.010791660643,-3581.7776419851357,7647.627013638857,7460.162932892196,-187500.02235174447,-187500.02235174447,-187500.02235174447,-187500.02235174447
$SILENCE,11098.266970904706,-3560.8117056860574,8097.075891146171,7415.995885848509,-187500.02235174447,-187500.02235174447,-187500.02235174447,-187500.02235174447
$SILENCE,11064.649947243923,-3532.9837838392004,8098.215830113391,7434.257261068495,-187500.02235174447,-187500.02235174447,-187500.02235174447,-187500.02235174447
$SILENCE,10905.483174977682,-3541.6562606878592,7669.129391804861,7480.994758724542,-187500.02235174447,-187500.02235174447,-187500.02235174447,-187500.02235174447
$SILENCE,10902.197468542752,-3575.7426709822025,7578.895399438787,7468.589540551847,-187500.02235174447,-187500.02235174447,-187500.02235174447,-187500.02235174447
$SILENCE,11078.508028806214,-3566.46669703325,8051.008945823783,7406.585801432825,-187500.02235174447,-187500.02235174447,-187500.02235174447,-187500.02235174447
$SILENCE,11100.569200583603,-3533.0731908170214,8169.629653648098,7411.9055166131875,-187500.02235174447,-187500.02235174447,-187500.02235174447,-187500.02235174447
$SILENCE,10942.54236728458,-3541.2986327765743,7738.9115379943305,7464.946206205632,-187500.02235174447,-187500.02235174447,-187500.02235174447,-187500.02235174447
$SILENCE,10892.809735871522,-3581.71058675177,7531.844977360365,7468.120153918285,-187500.02235174447,-187500.02235174447,-187500.02235174447,-187500.02235174447
$SILENCE,11055.016345383687,-3580.9506274402893,7964.552398270655,7408.6198101782575,-187500.02235174447,-187500.02235174447,-187500.02235174447,-187500.02235174447
$SILENCE,11097.48465984877,-3540.6504321873704,8171.328386226701,7402.473080453048,-187500.02235174447,-187500.02235174447,-187500.02235174447,-187500.02235174447
$SILENCE,10958.255643636661,-3529.3628012374406,7829.659620482877,7456.854874712811,-187500.02235174447,-187500.02235174447,-187500.02235174447,-187500.02235174447
$SILENCE,10867.52991289257,-3572.27815059163,7514.187099240673,7481.888828502754,-187500.02235174447,-187500.02235174447,-187500.02235174447,-187500.02235174447
$SILENCE,11012.838603596521,-3583.655188519381,7874.2737024156695,7426.545909231414,-187500.02235174447,-187500.02235174447,-187500.02235174447,-187500.02235174447
$SILENCE,11092.343758624049,-3541.052763587566,8171.328386226701,7405.244696765506,-187500.02235174447,-187500.02235174447,-187500.02235174447,-187500.02235174447
$SILENCE,10988.922237029343,-3529.988650082189,7917.747845381242,7445.790761207433,-187500.02235174447,-187500.02235174447,-187500.02235174447,-187500.02235174447
$SILENCE,10877.610549641913,-3571.4958395356944,7540.986840842586,7480.6371308132575,-187500.02235174447,-187500.02235174447,-187500.02235174447,-187500.02235174447
$SILENCE,10993.213771964762,-3587.924371710345,7793.583904932011,7428.46815925457,-187500.02235174447,-187500.02235174447,-187500.02235174447,-187500.02235174447
$SILENCE,11099.742186038755,-3546.3724787679294,8166.52276116881,7398.315655984361,-187500.02235174447,-187500.02235174447,-187500.02235174447,-187500.02235174447
$SILENCE,11012.615086151969,-3525.540652935583,8002.013921977749,7439.196996593118,-187500.02235174447,-187500.02235174447,-187500.02235174447,-187500.02235174447
$SILENCE,10875.218912985196,-3555.8719701614345,7572.279283080016,7473.797497009933,-187500.02235174447,-187500.02235174447,-187500.02235174447,-187500.02235174447
$SILENCE,10960.982556460209,-3586.583267043027,7713.944639437752,7431.820920922866,-187500.02235174447,-187500.02235174447,-187500.02235174447,-187500.02235174447
$SILENCE,11093.52840108018,-3554.08383060501,8142.494635879355,7390.17962100263,-187500.02235174447,-187500.02235174447,-187500.02235174447,-187500.02235174447
$SILENCE,11025.243821769218,-3526.121798291421,8060.687251172931,7425.651839453201,-187500.02235174447,-187500.02235174447,-187500.02235174447,-187500.02235174447
$SILENCE,10876.805886841523,-3553.033298615611,7628.7397895741215,7479.988930224054,-187500.02235174447,-187500.02235174447,-187500.02235174447,-187500.02235174447
$SILENCE,10922.828128675,-3589.1090141664763,7645.928281060253,7457.391316579738,-187500.02235174447,-187500.02235174447,-187500.02235174447,-187500.02235174447
$SILENCE,11079.782078240167,-3559.2023800852753,8100.451004558922,7408.999789833998,-187500.02235174447,-187500.02235174447,-187500.02235174447,-187500.02235174447
$SILENCE,11049.42840926986,-3532.0450105720774,8121.551051324732,7423.841348152322,-187500.02235174447,-187500.02235174447,-187500.02235174447,-187500.02235174447
$SILENCE,10898.643541174359,-3540.2257490427196,7696.554982251523,7473.261055143006,-187500.02235174447,-187500.02235174447,-187500.02235174447,-187500.02235174447
$SILENCE,10892.67562540479,-3578.3354733390183,7581.331739584415,7459.022993924975,-187500.02235174447,-187500.02235174447,-187500.02235174447,-187500.02235174447
$SILENCE,11060.067839630585,-3571.2276186022305,8044.191663764914,7393.8229553488445,-187500.02235174447,-187500.02235174447,-187500.02235174447,-187500.02235174447
$SILENCE,11073.970624681786,-3539.1305135644097,8182.794831132273,7402.540135686414,-187500.02235174447,-187500.02235174447,-187500.02235174447,-187500.02235174447
$SILENCE,10918.558945484036,-3543.5561589665604,7761.285634194092,7452.652746755212,-187500.02235174447,-187500.02235174447,-187500.02235174447,-187500.02235174447
$SILENCE,10879.465744431704,-3571.3840808134178,7566.579588243912,7463.091011415841,-187500.02235174447,-187500.02235174447,-187500.02235174447,-187500.02235174447
$SILENCE,11029.04361832662,-3568.5230575231385,7956.684584222387,7412.710179413579,-187500.02235174447,-187500.02235174447,-187500.02235174447,-187500.02235174447
$SILENCE,11085.437069587359,-3536.6941734187812,8214.131976858615,7404.0377025649195,-187500.02235174447,-187500.02235174447,-187500.02235174447,-187500.02235174447
$SILENCE,10943.034105662598,-3534.0343158285996,7853.039545183128,7455.37965957876,-187500.02235174447,-187500.02235174447,-187500.02235174447,-187500.02235174447
$SILENCE,10861.137313978352,-3574.535676781616,7546.574776956413,7474.780973765966,-187500.02235174447,-187500.02235174447,-187500.02235174447,-187500.02235174447
$SILENCE,10988.184629462317,-3574.312159337063,7862.069649943072,7425.8753568977545,-187500.02235174447,-187500.02235174447,-187500.02235174447,-187500.02235174447
$SILENCE,11089.728604522777,-3534.8166268845353,8209.10283435617,7402.428376964138,-187500.02235174447,-187500.02235174447,-187500.02235174447,-187500.02235174447
$SILENCE,10965.587015818002,-3522.9031470898567,7918.150176781438,7441.298060571917,-187500.02235174447,-187500.02235174447,-187500.02235174447,-187500.02235174447
$SILENCE,10847.033363227054,-3563.9185981653454,7520.780863854989,7472.09876443133,-187500.02235174447,-187500.02235174447,-187500.02235174447,-187500.02235174447
$SILENCE,10965.475257095726,-3586.1138804094653,7777.736518113198,7423.126092329752,-187500.02235174447,-187500.02235174447,-187500.02235174447,-187500.02235174447
$SILENCE,11077.166924138895,-3548.540597980094,8165.963967557427,7399.1650222736625,-187500.02235174447,-187500.02235174447,-187500.02235174447,-187500.02235174447
$SILENCE,10999.405205178882,-3529.9439465932783,8016.453148895878,7445.410781551694,-187500.02235174447,-187500.02235174447,-187500.02235174447,-187500.02235174447
$SILENCE,10863.417191912795,-3555.1790660833203,7593.35697810137,7483.274636658984,-187500.02235174447,-187500.02235174447,-187500.02235174447,-187500.02235174447
$SILENCE,10939.92721318331,-3581.3306070960293,7722.483005819679,7443.8908629287325,-187500.02235174447,-187500.02235174447,-187500.02235174447,-187500.02235174447
$SILENCE,11076.161095638407,-3552.049821859577,8149.691897593963,7391.7665948589565,-187500.02235174447,-187500.02235174447,-187500.02235174447,-187500.02235174447
$SILENCE,11026.853147369999,-3532.179121038809,8085.497687518322,7425.361266775283,-187500.02235174447,-187500.02235174447,-187500.02235174447,-187500.02235174447
$SILENCE,10888.607607913926,-3547.1324380794094,7652.589100907934,7488.706110561623,-187500.02235174447,-187500.02235174447,-187500.02235174447,-187500.02235174447
$SILENCE,10915.11677683792,-3579.117784394954,7640.966193791175,7465.706165517112,-187500.02235174447,-187500.02235174447,-187500.02235174447,-187500.02235174447
$SILENCE,11065.320499577583,-3554.709679449759,8092.538487021743,7398.047435050898,-187500.02235174447,-187500.02235174447,-187500.02235174447,-187500.02235174447
$SILENCE,11046.94736563532,-3525.0712663020217,8122.89215599205,7406.250525265995,-187500.02235174447,-187500.02235174447,-187500.02235174447,-187500.02235174447
$SILENCE,10897.436546973771,-3536.113028062943,7704.8698311888975,7463.202770138118,-187500.02235174447,-187500.02235174447,-187500.02235174447,-187500.02235174447
$SILENCE,10882.01384329961,-3574.7591942261693,7591.211210633661,7452.8762641997655,-187500.02235174447,-187500.02235174447,-187500.02235174447,-187500.02235174447
$SILENCE,11042.164092321884,-3563.493915020694,8045.935099832428,7391.632484392225,-187500.02235174447,-187500.02235174447,-187500.02235174447,-187500.02235174447
$SILENCE,11065.812237955599,-3533.3190600060298,8174.658796150541,7400.662589152168,-187500.02235174447,-187500.02235174447,-187500.02235174447,-187500.02235174447
$SILENCE,10923.431625775293,-3533.609632683949,7787.437175206802,7458.419496824682,-187500.02235174447,-187500.02235174447,-187500.02235174447,-187500.02235174447
$SILENCE,10868.602796626425,-3562.599845242482,7556.521303239025,7478.178438923173,-187500.02235174447,-187500.02235174447,-187500.02235174447,-187500.02235174447
$SILENCE,11022.47220545676,-3561.7728306976355,7976.756450743253,7425.115397586274,-187500.02235174447,-187500.02235174447,-187500.02235174447,-187500.02235174447
$SILENCE,11071.601339769524,-3530.949775093767,8190.148555058069,7409.580935189836,-187500.02235174447,-187500.02235174447,-187500.02235174447,-187500.02235174447
$SILENCE,10951.818341233533,-3529.832187871002,7884.600208354022,7449.098819386819,-187500.02235174447,-187500.02235174447,-187500.02235174447,-187500.02235174447
$SILENCE,10877.38703219736,-3565.70673772177,7582.650492507279,7477.284369144961,-187500.02235174447,-187500.02235174447,-187500.02235174447,-187500.02235174447
$SILENCE,10996.946513288798,-3576.1002988934874,7876.4418216278345,7430.301002299906,-187500.02235174447,-187500.02235174447,-187500.02235174447,-187500.02235174447
$SILENCE,11091.740261523755,-3538.057629830555,8219.295229827789,7405.267048509962,-187500.02235174447,-187500.02235174447,-187500.02235174447,-187500.02235174447
$SILENCE,10978.975710746732,-3518.701019132259,7944.234662560781,7447.444790297126,-187500.02235174447,-187500.02235174447,-187500.02235174447,-187500.02235174447
$SILENCE,10864.668889602292,-3557.2354265732083,7567.07132662193,7476.680872044668,-187500.02235174447,-187500.02235174447,-187500.02235174447,-187500.02235174447
$SILENCE,10963.821228006032,-3578.6483977613925,7790.298198497081,7433.094970356819,-187500.02235174447,-187500.02235174447,-187500.02235174447,-187500.02235174447
$SILENCE,11094.444822602847,-3545.254891545164,8187.846325379172,7394.337045471317,-187500.02235174447,-187500.02235174447,-187500.02235174447,-187500.02235174447
$SILENCE,10996.79005107761,-3519.1033505324544,8000.96338998835,7433.027915123453,-187500.02235174447,-187500.02235174447,-187500.02235174447,-187500.02235174447
$SILENCE,10864.355965179917,-3549.769943925136,7589.892457710798,7491.298912918439,-187500.02235174447,-187500.02235174447,-187500.02235174447,-187500.02235174447
$SILENCE,10940.64246900588,-3578.402528572384,7718.683209262277,7460.162932892196,-187500.02235174447,-187500.02235174447,-187500.02235174447,-187500.02235174447
$SILENCE,11071.444877558337,-3544.897263633879,8145.132141725081,7405.021179320954,-187500.02235174447,-187500.02235174447,-187500.02235174447,-187500.02235174447
