WORD,Channel_1,Channel_2,Channel_3,Channel_4,Channel_5,Channel_6,Channel_7,Channel_8
$SILENCE,10706.575001069905,-4171.193143271583,7297.375178024195,7654.824275353465,-187500.02235174447,-187500.02235174447,-187500.02235174447,-187500.02235174447
$SILENCE,10843.94882249222,-4168.801506614865,7602.096510183395,7601.068329938452,-187500.02235174447,-187500.02235174447,-187500.02235174447,-187500.02235174447
$SILENCE,10933.445207291272,-4111.022247197896,7924.207499528826,7579.677710494722,-187500.02235174447,-187500.02235174447,-187500.02235174447,-187500.02235174447
$SILENCE,10827.408531595294,-4106.216622140005,7707.395578312347,7622.213080193172,-187500.02235174447,-187500.02235174447,-187500.02235174447,-187500.02235174447
$SILENCE,10699.645960288759,-4158.58675939879,7314.384855554683,7661.283929501049,-187500.02235174447,-187500.02235174447,-187500.02235174447,-187500.02235174447
$SILENCE,10812.164641876774,-4175.283512506904,7517.070474275408,7617.832138279932,-187500.02235174447,-187500.02235174447,-187500.02235174447,-187500.02235174447
$SILENCE,10944.397562074371,-4122.0193054699075,7900.760519595208,7579.364786072349,-187500.02235174447,-187500.02235174447,-187500.02235174447,-187500.02235174447
$SILENCE,10866.881712303366,-4105.434311084069,7773.087355266494,7609.673751553745,-187500.02235174447,-187500.02235174447,-187500.02235174447,-187500.02235174447
$SILENCE,10710.754777283046,-4149.780172083399,7349.544149582881,7655.003089309108,-187500.02235174447,-187500.02235174447,-187500.02235174447,-187500.02235174447
$SILENCE,10774.770173403045,-4179.619750931233,7427.37292377626,7625.498786628103,-187500.02235174447,-187500.02235174447,-187500.02235174447,-187500.02235174447
$SILENCE,10928.147843855364,-4130.132988707183,7862.9413679768295,7579.185972116706,-187500.02235174447,-187500.02235174447,-187500.02235174447,-187500.02235174447
$SILENCE,10885.05368054553,-4104.1155581612065,7832.1853676063265,7599.570763059946,-187500.02235174447,-187500.02235174447,-187500.02235174447,-187500.02235174447
$SILENCE,10736.392228173283,-4144.393401669669,7411.4361299796265,7650.2198159956715,-187500.02235174447,-187500.02235174447,-187500.02235174447,-187500.02235174447
$SILENCE,10750.585585902403,-4184.894762622686,7361.077649721819,7632.919565787264,-187500.02235174447,-187500.02235174447,-187500.02235174447,-187500.02235174447
$SILENCE,10907.673645934301,-4138.626651600201,7805.430329493324,7577.800163960477,-187500.02235174447,-187500.02235174447,-187500.02235174447,-187500.02235174447
$SILENCE,10897.056567318032,-4099.444043570047,7875.123068704971,7589.959512944164,-187500.02235174447,-187500.02235174447,-187500.02235174447,-187500.02235174447
$SILENCE,10742.762475343046,-4129.685953818078,7480.86064825781,7642.08378101394,-187500.02235174447,-187500.02235174447,-187500.02235174447,-187500.02235174447
$SILENCE,10719.717826809625,-4183.508954466457,7313.4684340320155,7641.1226560023615,-187500.02235174447,-187500.02235174447,-187500.02235174447,-187500.02235174447
$SILENCE,10886.350081723938,-4153.647023874167,7736.586956570978,7580.9517599286755,-187500.02235174447,-187500.02235174447,-187500.02235174447,-187500.02235174447
$SILENCE,10919.430663517793,-4106.641305284656,7908.293057476647,7583.1869343742055,-187500.02235174447,-187500.02235174447,-187500.02235174447,-187500.02235174447
$SILENCE,10775.08309782542,-4123.516872348413,7564.702041709667,7635.244147210616,-187500.02235174447,-187500.02235174447,-187500.02235174447,-187500.02235174447
$SILENCE,10704.49628883556,-4176.602265429767,7286.176954052085,7646.2859089715375,-187500.02235174447,-187500.02235174447,-187500.02235174447,-187500.02235174447
$SILENCE,10862.925453534777,-4161.0007477999625,7652.142066018828,7588.439594321203,-187500.02235174447,-187500.02235174447,-187500.02235174447,-187500.02235174447
$SILENCE,10929.131320611397,-4106.753064006933,7912.539888923156,7577.598998260379,-187500.02235174447,-187500.02235174447,-187500.02235174447,-187500.02235174447
$SILENCE,10806.75551971859,-4116.677238545089,7641.793208336021,7627.018705251063,-187500.02235174447,-187500.02235174447,-187500.02235174447,-187500.02235174447
$SILENCE,10700.338864366873,-4173.987111328496,7291.273151787896,7655.159551520294,-187500.02235174447,-187500.02235174447,-187500.02235174447,-187500.02235174447
$SILENCE,10829.28607812954,-4173.0930415502835,7569.64177723429,7599.101376426384,-187500.02235174447,-187500.02235174447,-187500.02235174447,-187500.02235174447
$SILENCE,10936.015657903632,-4114.710285033022,7906.750787109231,7572.256931335561,-187500.02235174447,-187500.02235174447,-187500.02235174447,-187500.02235174447
$SILENCE,10839.8584532569,-4108.004761696429,7714.078749904484,7614.278210911538,-187500.02235174447,-187500.02235174447,-187500.02235174447,-187500.02235174447
$SILENCE,10704.40688185774,-4158.9443873100745,7315.25657358844,7659.0264033110625,-187500.02235174447,-187500.02235174447,-187500.02235174447,-187500.02235174447
$SILENCE,10804.81091795098,-4177.183410785605,7485.710976804612,7613.0041614775855,-187500.02235174447,-187500.02235174447,-187500.02235174447,-187500.02235174447
$SILENCE,10940.486006794692,-4120.812311269321,7887.0141967551945,7575.632044748312,-187500.02235174447,-187500.02235174447,-187500.02235174447,-187500.02235174447
$SILENCE,10867.373450681383,-4098.281752858371,7781.357500714958,7604.26462939556,-187500.02235174447,-187500.02235174447,-187500.02235174447,-187500.02235174447
$SILENCE,10709.480727849093,-4140.705363834544,7359.26715842094,7656.165380020783,-187500.02235174447,-187500.02235174447,-187500.02235174447,-187500.02235174447
$SILENCE,10766.924711099233,-4172.601303172267,7411.547888701903,7626.057580239485,-187500.02235174447,-187500.02235174447,-187500.02235174447,-187500.02235174447
$SILENCE,10932.528785768603,-4127.696648561555,7848.569196292066,7581.868181451343,-187500.02235174447,-187500.02235174447,-187500.02235174447,-187500.02235174447
$SILENCE,10896.609532428925,-4097.030055168874,7835.918108930363,7602.722359028145,-187500.02235174447,-187500.02235174447,-187500.02235174447,-187500.02235174447
$SILENCE,10736.302821195462,-4134.625689342701,7418.9463161166095,7651.85149334091,-187500.02235174447,-187500.02235174447,-187500.02235174447,-187500.02235174447
$SILENCE,10742.047219520477,-4178.189239286094,7342.324536123817,7630.863205297376,-187500.02235174447,-187500.02235174447,-187500.02235174447,-187500.02235174447
$SILENCE,10911.406387258337,-4138.805465555843,7784.553800172067,7576.704928482167,-187500.02235174447,-187500.02235174447,-187500.02235174447,-187500.02235174447
$SILENCE,10913.082768092487,-4099.064063914307,7877.849981528519,7589.445422821692,-187500.02235174447,-187500.02235174447,-187500.02235174447,-187500.02235174447
$SILENCE,10765.248330265085,-4126.713171805522,7497.62445659929,7646.04003978253,-187500.02235174447,-187500.02235174447,-187500.02235174447,-187500.02235174447
$SILENCE,10727.451530391161,-4179.709157909055,7302.672541460102,7644.542472904024,-187500.02235174447,-187500.02235174447,-187500.02235174447,-187500.02235174447
$SILENCE,10896.721291151202,-4151.7247738510105,7715.732778994176,7586.606751275868,-187500.02235174447,-187500.02235174447,-187500.02235174447,-187500.02235174447
$SILENCE,10930.450073534259,-4101.746273248944,7902.191031240348,7585.735033242111,-187500.02235174447,-187500.02235174447,-187500.02235174447,-187500.02235174447
$SILENCE,10784.56023747447,-4116.00668621143,7573.530980769513,7634.551243132501,-187500.02235174447,-187500.02235174447,-187500.02235174447,-187500.02235174447
$SILENCE,10704.563344068927,-4172.869524105731,7280.209038282519,7650.622147395868,-187500.02235174447,-187500.02235174447,-187500.02235174447,-187500.02235174447
$SILENCE,10859.170360466285,-4160.710175122043,7629.276231441049,7596.799146747488,-187500.02235174447,-187500.02235174447,-187500.02235174447,-187500.02235174447
$SILENCE,10929.466596778226,-4104.9425727060525,7905.722606864287,7584.818611719444,-187500.02235174447,-187500.02235174447,-187500.02235174447,-187500.02235174447
$SILENCE,10811.04705465401,-4108.496500074447,7647.783475850043,7626.504615128591,-187500.02235174447,-187500.02235174447,-187500.02235174447,-187500.02235174447
$SILENCE,10694.326245108396,-4164.174695512616,7283.226523783985,7653.192598008228,-187500.02235174447,-187500.02235174447,-187500.02235174447,-187500.02235174447
$SILENCE,10818.177261135252,-4168.019195558929,7543.557291454947,7602.252972394583,-187500.02235174447,-187500.02235174447,-187500.02235174447,-187500.02235174447
$SILENCE,10928.796044444567,-4110.843433242254,7897.497164904734,7574.693271481189,-187500.02235174447,-187500.02235174447,-187500.02235174447,-187500.02235174447
$SILENCE,10834.583441565448,-4102.461529071514,7718.258526117626,7609.092606197907,-187500.02235174447,-187500.02235174447,-187500.02235174447,-187500.02235174447
$SILENCE,10692.247532874053,-4152.238863973483,7307.58992524027,7650.957423562697,-187500.02235174447,-187500.02235174447,-187500.02235174447,-187500.02235174447
$SILENCE,10785.007272363577,-4172.713061894544,7458.911235202699,7618.882670269331,-187500.02235174447,-187500.02235174447,-187500.02235174447,-187500.02235174447
$SILENCE,10926.963201399232,-4118.040694956862,7869.781001780153,7580.594132017391,-187500.02235174447,-187500.02235174447,-187500.02235174447,-187500.02235174447
$SILENCE,10861.897273289833,-4099.734616247966,7785.604332161467,7607.997370719597,-187500.02235174447,-187500.02235174447,-187500.02235174447,-187500.02235174447
$SILENCE,10707.223201659108,-4142.873483046708,7357.277853164417,7653.058487541496,-187500.02235174447,-187500.02235174447,-187500.02235174447,-187500.02235174447
$SILENCE,10751.45730393616,-4177.742204396988,7377.9755685300315,7629.589155863423,-187500.02235174447,-187500.02235174447,-187500.02235174447,-187500.02235174447
$SILENCE,10909.417082001815,-4128.747180550955,7819.735445944721,7577.64370174929,-187500.02235174447,-187500.02235174447,-187500.02235174447,-187500.02235174447
$SILENCE,10877.744660108645,-4095.4654330570024,7836.365143819469,7596.9779607031305,-187500.02235174447,-187500.02235174447,-187500.02235174447,-187500.02235174447
$SILENCE,10716.968562241622,-4128.858939273231,7426.836481909333,7651.113885773884,-187500.02235174447,-187500.02235174447,-187500.02235174447,-187500.02235174447
$SILENCE,10720.768358799025,-4174.59060842879,7320.442178302072,7639.982717035141,-187500.02235174447,-187500.02235174447,-187500.02235174447,-187500.02235174447
$SILENCE,10895.06726206151,-4137.240843443971,7760.078639993506,7584.8856669528095,-187500.02235174447,-187500.02235174447,-187500.02235174447,-187500.02235174447
$SILENCE,10903.024483087598,-4097.767662735899,7880.912170518896,7595.949780458186,-187500.02235174447,-187500.02235174447,-187500.02235174447,-187500.02235174447
$SILENCE,10752.284318481008,-4121.885195003176,7511.996628284053,7650.935071818241,-187500.02235174447,-187500.02235174447,-187500.02235174447,-187500.02235174447
$SILENCE,10706.954980725644,-4171.059032804851,7301.711416448524,7659.160513777794,-187500.02235174447,-187500.02235174447,-187500.02235174447,-187500.02235174447
$SILENCE,10869.9662530382,-4146.338003437281,7691.414081026803,7598.0955479258955,-187500.02235174447,-187500.02235174447,-187500.02235174447,-187500.02235174447
$SILENCE,10913.798023915057,-4096.8959447021425,7880.800411796619,7588.104318154374,-187500.02235174447,-187500.02235174447,-187500.02235174447,-187500.02235174447
$SILENCE,10771.305653012474,-4112.028075698385,7567.406602788759,7634.573594876957,-187500.02235174447,-187500.02235174447,-187500.02235174447,-187500.02235174447
$SILENCE,10681.384585068774,-4167.192181014083,7259.9136543171,7650.286871229037,-187500.02235174447,-187500.02235174447,-187500.02235174447,-187500.02235174447
$SILENCE,10837.824444511467,-4158.0056140429515,7591.747652500589,7600.263667138061,-187500.02235174447,-187500.02235174447,-187500.02235174447,-187500.02235174447
$SILENCE,10924.191585086774,-4104.316723861304,7892.80329856912,7582.78460297401,-187500.02235174447,-187500.02235174447,-187500.02235174447,-187500.02235174447
$SILENCE,10799.42414753725,-4099.801671481332,7651.85149334091,7626.616373850868,-187500.02235174447,-187500.02235174447,-187500.02235174447,-187500.02235174447
$SILENCE,10684.312663592418,-4155.859846575242,7283.9417796065545,7662.155647534806,-187500.02235174447,-187500.02235174447,-187500.02235174447,-187500.02235174447
$SILENCE,10804.699159228703,-4166.879256591708,7516.645791130757,7615.55226034549,-187500.02235174447,-187500.02235174447,-187500.02235174447,-187500.02235174447
$SILENCE,10912.143994825363,-4108.38474135217,7878.587589095544,7581.667015751245,-187500.02235174447,-187500.02235174447,-187500.02235174447,-187500.02235174447
$SILENCE,10821.552374548004,-4096.828889468777,7734.910575736831,7621.564879603968,-187500.02235174447,-187500.02235174447,-187500.02235174447,-187500.02235174447
$SILENCE,10674.835523943368,-4147.34383193777,7319.548108523859,7666.491885959135,-187500.02235174447,-187500.02235174447,-187500.02235174447,-187500.02235174447
$SILENCE,10760.822684862935,-4170.522590937923,7418.812205649878,7623.822405793954,-187500.02235174447,-187500.02235174447,-187500.02235174447,-187500.02235174447
$SILENCE,10914.960314626733,-4115.939630978064,7837.236861853226,7581.421146562237,-187500.02235174447,-187500.02235174447,-187500.02235174447,-187500.02235174447
$SILENCE,10855.415267397793,-4093.3643690782037,7776.417765190336,7608.846737008898,-187500.02235174447,-187500.02235174447,-187500.02235174447,-187500.02235174447
$SILENCE,10695.399128842251,-4138.2243202000045,7353.343946140283,7659.719307389178,-187500.02235174447,-187500.02235174447,-187500.02235174447,-187500.02235174447
$SILENCE,10740.303783452962,-4176.512858451946,7347.64425130418,7635.17709197725,-187500.02235174447,-187500.02235174447,-187500.02235174447,-187500.02235174447
$SILENCE,10912.389864014373,-4130.624727085201,7791.6840066533105,7578.7836407165105,-187500.02235174447,-187500.02235174447,-187500.02235174447,-187500.02235174447
$SILENCE,10893.972026583198,-4099.086415658762,7822.663524468366,7593.066405423451,-187500.02235174447,-187500.02235174447,-187500.02235174447,-187500.02235174447
$SILENCE,10732.279507193507,-4132.949308508552,7419.929792872643,7649.549263662013,-187500.02235174447,-187500.02235174447,-187500.02235174447,-187500.02235174447
$SILENCE,10718.019094231022,-4181.385538743203,7298.045730357854,7645.861225826887,-187500.02235174447,-187500.02235174447,-187500.02235174447,-187500.02235174447
$SILENCE,10895.760166139624,-4146.449762159558,7724.896994220852,7587.925504198731,-187500.02235174447,-187500.02235174447,-187500.02235174447,-187500.02235174447
$SILENCE,10908.075977334498,-4100.293409859349,7854.827684739553,7593.31227461246,-187500.02235174447,-187500.02235174447,-187500.02235174447,-187500.02235174447
$SILENCE,10743.097751509877,-4122.488692103469,7497.177421710185,7647.336440960938,-187500.02235174447,-187500.02235174447,-187500.02235174447,-187500.02235174447
$SILENCE,10684.983215926077,-4173.227152017016,7267.267378242896,7656.27713874306,-187500.02235174447,-187500.02235174447,-187500.02235174447,-187500.02235174447
$SILENCE,10852.733058063157,-4145.578044125801,7661.485095201147,7598.140251414807,-187500.02235174447,-187500.02235174447,-187500.02235174447,-187500.02235174447
$SILENCE,10899.671721419301,-4093.1855551225613,7882.99088275324,7586.897323953787,-187500.02235174447,-187500.02235174447,-187500.02235174447,-187500.02235174447
$SILENCE,10771.059783823464,-4108.362389607714,7585.489164053102,7638.820426323466,-187500.02235174447,-187500.02235174447,-187500.02235174447,-187500.02235174447
$SILENCE,10670.387526796761,-4164.711137379544,7263.132305518664,7660.747487634121,-187500.02235174447,-187500.02235174447,-187500.02235174447,-187500.02235174447
$SILENCE,10809.9518191757,-4157.290358220382,7582.583437273913,7604.152870673284,-187500.02235174447,-187500.02235174447,-187500.02235174447,-187500.02235174447
$SILENCE,10900.051701075043,-4099.913430203608,7892.222153213282,7578.7836407165105,-187500.02235174447,-187500.02235174447,-187500.02235174447,-187500.02235174447
$SILENCE,10792.115127100364,-4100.226354625983,7667.0059760816075,7617.0498272239965,-187500.02235174447,-187500.02235174447,-187500.02235174447,-187500.02235174447
$SILENCE,10667.995890140044,-4155.211645986038,7278.48795395946,7653.304356730504,-187500.02235174447,-187500.02235174447,-187500.02235174447,-187500.02235174447
$SILENCE,10789.119993343353,-4168.019195558929,7496.48451763207,7609.517289342558,-187500.02235174447,-187500.02235174447,-187500.02235174447,-187500.02235174447
$SILENCE,10917.530765239093,-4113.1009594322395,7876.419469883379,7572.413393546748,-187500.02235174447,-187500.02235174447,-187500.02235174447,-187500.02235174447
$SILENCE,10828.23554614014,-4098.326456347282,7740.833788017487,7606.276286396538,-187500.02235174447,-187500.02235174447,-187500.02235174447,-187500.02235174447
$SILENCE,10677.182457111176,-4148.327308693803,7320.710399235535,7652.007955552096,-187500.02235174447,-187500.02235174447,-187500.02235174447,-187500.02235174447
$SILENCE,10753.714830126148,-4177.608093930256,7404.641199665213,7612.087739954918,-187500.02235174447,-187500.02235174447,-187500.02235174447,-187500.02235174447
$SILENCE,10898.420023729805,-4121.572270580801,7826.418617536858,7567.943044655686,-187500.02235174447,-187500.02235174447,-187500.02235174447,-187500.02235174447
$SILENCE,10847.167473693786,-4095.957171435019,7792.689835153799,7595.346283357893,-187500.02235174447,-187500.02235174447,-187500.02235174447,-187500.02235174447
$SILENCE,10691.64403577376,-4139.8112940563315,7379.741356342001,7646.688240371734,-187500.02235174447,-187500.02235174447,-187500.02235174447,-187500.02235174447
$SILENCE,10724.657562334247,-4179.35152999777,7348.225396660018,7628.046885496007,-187500.02235174447,-187500.02235174447,-187500.02235174447,-187500.02235174447
$SILENCE,10889.747546881146,-4132.368163152714,7789.1582595298605,7577.6884052382,-187500.02235174447,-187500.02235174447,-187500.02235174447,-187500.02235174447
$SILENCE,10877.096459519442,-4097.030055168874,7846.289318357625,7591.12180365584,-187500.02235174447,-187500.02235174447,-187500.02235174447,-187500.02235174447
$SILENCE,10718.376722142306,-4128.411904384125,7453.055078155408,7639.580385634946,-187500.02235174447,-187500.02235174447,-187500.02235174447,-187500.02235174447
$SILENCE,10694.9744456976,-4177.250466018971,7300.929105392588,7630.840853552921,-187500.02235174447,-187500.02235174447,-187500.02235174447,-187500.02235174447
$SILENCE,10868.736907093156,-4146.092134248273,7723.153558153339,7569.708832467656,-187500.02235174447,-187500.02235174447,-187500.02235174447,-187500.02235174447
$SILENCE,10892.29564574905,-4099.444043570047,7872.8655425149855,7569.530018512013,-187500.02235174447,-187500.02235174447,-187500.02235174447,-187500.02235174447
$SILENCE,10743.835359076902,-4119.33709613527,7523.887756334277,7621.028437737041,-187500.02235174447,-187500.02235174447,-187500.02235174447,-187500.02235174447
$SILENCE,10681.429288557683,-4173.87535260622,7268.049689298831,7635.534719888535,-187500.02235174447,-187500.02235174447,-187500.02235174447,-187500.02235174447
$SILENCE,10847.413342882794,-4155.6810326196,7652.7455631191215,7576.190838359695,-187500.02235174447,-187500.02235174447,-187500.02235174447,-187500.02235174447
$SILENCE,10913.932134381788,-4099.354636592226,7926.085046063072,7564.724393454122,-187500.02235174447,-187500.02235174447,-187500.02235174447,-187500.02235174447
$SILENCE,10769.428106478228,-4111.804558253832,7605.7845480185215,7618.457987124681,-187500.02235174447,-187500.02235174447,-187500.02235174447,-187500.02235174447
$SILENCE,10675.707241977125,-4169.092079292784,7285.662863929613,7639.826254823954,-187500.02235174447,-187500.02235174447,-187500.02235174447,-187500.02235174447
$SILENCE,10801.256990582586,-4166.767497869432,7555.090791593885,7590.563010044457,-187500.02235174447,-187500.02235174447,-187500.02235174447,-187500.02235174447
$SILENCE,10913.552154726047,-4110.418750097603,7909.455348188323,7561.036355618997,-187500.02235174447,-187500.02235174447,-187500.02235174447,-187500.02235174447
$SILENCE,10797.032510880532,-4102.729750004977,7684.350929778926,7606.097472440895,-187500.02235174447,-187500.02235174447,-187500.02235174447,-187500.02235174447
$SILENCE,10673.516771020506,-4157.558579153845,7299.409186769627,7639.669792612767,-187500.02235174447,-187500.02235174447,-187500.02235174447,-187500.02235174447
$SILENCE,10776.200685048187,-4172.333082238803,7467.159028906707,7597.447347336692,-187500.02235174447,-187500.02235174447,-187500.02235174447,-187500.02235174447
$SILENCE,10905.751395911146,-4120.298221146849,7853.151303905404,7561.170466085729,-187500.02235174447,-187500.02235174447,-187500.02235174447,-187500.02235174447
$SILENCE,10827.766159506578,-4103.8249854832875,7735.268203648116,7592.015873434052,-187500.02235174447,-187500.02235174447,-187500.02235174447,-187500.02235174447
$SILENCE,10679.842314701356,-4151.992994784474,7320.486881790982,7638.395743178814,-187500.02235174447,-187500.02235174447,-187500.02235174447,-187500.02235174447
$SILENCE,10742.136626498297,-4181.027910831918,7392.191278003607,7606.45510035218,-187500.02235174447,-187500.02235174447,-187500.02235174447,-187500.02235174447
$SILENCE,10891.848610859945,-4128.210738684027,7825.792768692108,7560.321099796427,-187500.02235174447,-187500.02235174447,-187500.02235174447,-187500.02235174447
$SILENCE,10852.800113296524,-4100.181651137073,7806.637323693911,7586.964379187153,-187500.02235174447,-187500.02235174447,-187500.02235174447,-187500.02235174447
$SILENCE,10701.724672523103,-4139.8112940563315,7390.671359380646,7635.288850699527,-187500.02235174447,-187500.02235174447,-187500.02235174447,-187500.02235174447
$SILENCE,10716.633286074792,-4181.027910831918,7333.696762764069,7618.770911547054,-187500.02235174447,-187500.02235174447,-187500.02235174447,-187500.02235174447
$SILENCE,10878.884599075867,-4136.9279190215975,7776.35070995697,7567.317195810938,-187500.02235174447,-187500.02235174447,-187500.02235174447,-187500.02235174447
$SILENCE,10872.268482717096,-4099.332284847771,7854.939443461829,7576.503762782069,-187500.02235174447,-187500.02235174447,-187500.02235174447,-187500.02235174447
$SILENCE,10718.64494307577,-4128.747180550955,7465.057964927908,7622.771873804555,-187500.02235174447,-187500.02235174447,-187500.02235174447,-187500.02235174447
$SILENCE,10689.699434006148,-4180.1338410537055,7284.254704028929,7622.369542404359,-187500.02235174447,-187500.02235174447,-187500.02235174447,-187500.02235174447
$SILENCE,10857.896311032333,-4150.048393016862,7705.093348633451,7565.596111487879,-187500.02235174447,-187500.02235174447,-187500.02235174447,-187500.02235174447
$SILENCE,10889.613436414415,-4101.05336917083,7881.068632730083,7564.880855665309,-187500.02235174447,-187500.02235174447,-187500.02235174447,-187500.02235174447
$SILENCE,10745.131760255308,-4118.040694956862,7546.977108356608,7617.161585946273,-187500.02235174447,-187500.02235174447,-187500.02235174447,-187500.02235174447
$SILENCE,10673.092087875853,-4173.607131672756,7267.066212542798,7632.3160686869705,-187500.02235174447,-187500.02235174447,-187500.02235174447,-187500.02235174447
$SILENCE,10831.43184559725,-4157.53622740939,7623.375370904848,7575.520286026036,-187500.02235174447,-187500.02235174447,-187500.02235174447,-187500.02235174447
$SILENCE,10897.63771267387,-4103.690875016556,7888.176487466871,7563.360937042348,-187500.02235174447,-187500.02235174447,-187500.02235174447,-187500.02235174447
$SILENCE,10773.9431588582,-4113.1009594322395,7620.514347614569,7608.243239908606,-187500.02235174447,-187500.02235174447,-187500.02235174447,-187500.02235174447
$SILENCE,10667.951186651133,-4170.723756638022,7267.53559917636,7638.216929223172,-187500.02235174447,-187500.02235174447,-187500.02235174447,-187500.02235174447
$SILENCE,10797.32308355845,-4169.9190938376305,7544.898396122265,7582.382271573815,-187500.02235174447,-187500.02235174447,-187500.02235174447,-187500.02235174447
$SILENCE,10901.30339876454,-4110.217584397506,7888.042377000139,7553.414410759737,-187500.02235174447,-187500.02235174447,-187500.02235174447,-187500.02235174447
$SILENCE,10805.637932495825,-4104.830813983776,7701.941752665252,7592.261742623061,-187500.02235174447,-187500.02235174447,-187500.02235174447,-187500.02235174447
$SILENCE,10677.473029789095,-4156.105715764251,7322.789111469879,7627.041056995518,-187500.02235174447,-187500.02235174447,-187500.02235174447,-187500.02235174447
$SILENCE,10761.64969940778,-4173.227152017016,7464.834447483355,7592.127632156329,-187500.02235174447,-187500.02235174447,-187500.02235174447,-187500.02235174447
$SILENCE,10898.285913263073,-4120.432331613581,7870.384498880447,7552.453285748159,-187500.02235174447,-187500.02235174447,-187500.02235174447,-187500.02235174447
$SILENCE,10823.407569337794,-4098.907601703119,7767.097087752472,7584.840963463898,-187500.02235174447,-187500.02235174447,-187500.02235174447,-187500.02235174447
$SILENCE,10673.941454165157,-4149.087268005284,7344.649117547169,7632.249013453605,-187500.02235174447,-187500.02235174447,-187500.02235174447,-187500.02235174447
$SILENCE,10728.256193191552,-4176.311692751849,7390.000807046987,7607.215059663661,-187500.02235174447,-187500.02235174447,-187500.02235174447,-187500.02235174447
$SILENCE,10881.365642710405,-4128.43425612858,7810.280658040126,7557.169503828229,-187500.02235174447,-187500.02235174447,-187500.02235174447,-187500.02235174447
$SILENCE,10851.391953395838,-4098.0135319249075,7813.946344130796,7575.877913937321,-187500.02235174447,-187500.02235174447,-187500.02235174447,-187500.02235174447
$SILENCE,10695.488535820072,-4135.475055632002,7405.08823455432,7628.829196551943,-187500.02235174447,-187500.02235174447,-187500.02235174447,-187500.02235174447
$SILENCE,10704.205716157641,-4179.485640464502,7323.392608570172,7617.608620835379,-187500.02235174447,-187500.02235174447,-187500.02235174447,-187500.02235174447
$SILENCE,10872.469648417193,-4138.000802755452,7760.324509182515,7562.243349819583,-187500.02235174447,-187500.02235174447,-187500.02235174447,-187500.02235174447
$SILENCE,10873.25195947313,-4096.694779002044,7860.057992942095,7569.887646423298,-187500.02235174447,-187500.02235174447,-187500.02235174447,-187500.02235174447
$SILENCE,10725.17165245672,-4124.05331421534,7487.342654149849,7618.614449335868,-187500.02235174447,-187500.02235174447,-187500.02235174447,-187500.02235174447
$SILENCE,10683.30683509193,-4176.758727640954,7286.042843585354,7620.715513314666,-187500.02235174447,-187500.02235174447,-187500.02235174447,-187500.02235174447
$SILENCE,10848.48622661665,-4148.528474393902,7695.392691539847,7565.327890554416,-187500.02235174447,-187500.02235174447,-187500.02235174447,-187500.02235174447
$SILENCE,10884.58429391197,-4097.991180180452,7891.797470068631,7563.249178320072,-187500.02235174447,-187500.02235174447,-187500.02235174447,-187500.02235174447
$SILENCE,10746.852844578367,-4113.145662921151,7570.446440034681,7614.434673122725,-187500.02235174447,-187500.02235174447,-187500.02235174447,-187500.02235174447
$SILENCE,10660.955090636622,-4170.477887449013,7273.2576457569185,7632.494882642613,-187500.02235174447,-187500.02235174447,-187500.02235174447,-187500.02235174447
$SILENCE,10811.158813376285,-4157.469172176025,7616.893365012809,7575.9673209151415,-187500.02235174447,-187500.02235174447,-187500.02235174447,-187500.02235174447
$SILENCE,10891.803907371033,-4101.545107548846,7899.754691094719,7560.499913752069,-187500.02235174447,-187500.02235174447,-187500.02235174447,-187500.02235174447
$SILENCE,10773.205551291174,-4106.641305284656,7647.738772361133,7603.214097406161,-187500.02235174447,-187500.02235174447,-187500.02235174447,-187500.02235174447
$SILENCE,10661.089201103354,-4164.577026912812,7279.158506293119,7634.327725687948,-187500.02235174447,-187500.02235174447,-187500.02235174447,-187500.02235174447
$SILENCE,10785.677824697235,-4166.946311825074,7527.754608125045,7584.93037044172,-187500.02235174447,-187500.02235174447,-187500.02235174447,-187500.02235174447
$SILENCE,10895.201372528241,-4106.484843073469,7885.740147321242,7557.080096850407,-187500.02235174447,-187500.02235174447,-187500.02235174447,-187500.02235174447
$SILENCE,10804.319179572962,-4097.432386569069,7721.208956385727,7604.421091606748,-187500.02235174447,-187500.02235174447,-187500.02235174447,-187500.02235174447
$SILENCE,10659.278709802475,-4146.896797048664,7309.869803174711,7644.60952813739,-187500.02235174447,-187500.02235174447,-187500.02235174447,-187500.02235174447
$SILENCE,10747.545748656483,-4169.293244992882,7449.210578109095,7601.537716572013,-187500.02235174447,-187500.02235174447,-187500.02235174447,-187500.02235174447
$SILENCE,10887.668834646802,-4112.542165820857,7862.628443554455,7561.572797485924,-187500.02235174447,-187500.02235174447,-187500.02235174447,-187500.02235174447
$SILENCE,10826.04507518352,-4090.391587065648,7787.705396140265,7591.83705947841,-187500.02235174447,-187500.02235174447,-187500.02235174447,-187500.02235174447
$SILENCE,10679.238817601065,-4134.603337598245,7385.441051178104,7638.328687945448,-187500.02235174447,-187500.02235174447,-187500.02235174447,-187500.02235174447
$SILENCE,10717.840280275379,-4166.342814724781,7396.885144339221,7612.758292288577,-187500.02235174447,-187500.02235174447,-187500.02235174447,-187500.02235174447
$SILENCE,10874.280139718074,-4120.991125224963,7824.07168436905,7566.132553354807,-187500.02235174447,-187500.02235174447,-187500.02235174447,-187500.02235174447
$SILENCE,10849.00031673912,-4084.3119125738044,7851.541978304623,7585.980902431119,-187500.02235174447,-187500.02235174447,-187500.02235174447,-187500.02235174447
$SILENCE,10681.78691646897,-4126.422599127603,7410.7879293904225,7637.904004800797,-187500.02235174447,-187500.02235174447,-187500.02235174447,-187500.02235174447
$SILENCE,10687.106631649332,-4173.741242139487,7317.5140997784265,7626.437559895225,-187500.02235174447,-187500.02235174447,-187500.02235174447,-187500.02235174447
$SILENCE,10857.829255798968,-4133.575157353301,7753.551930612556,7571.206399346162,-187500.02235174447,-187500.02235174447,-187500.02235174447,-187500.02235174447
$SILENCE,10867.306395448017,-4089.832793454265,7874.65368207141,7580.102393639374,-187500.02235174447,-187500.02235174447,-187500.02235174447,-187500.02235174447
$SILENCE,10715.06866396292,-4111.424578598092,7510.141433494263,7632.249013453605,-187500.02235174447,-187500.02235174447,-187500.02235174447,-187500.02235174447
$SILENCE,10667.347689550841,-4165.471096691024,7287.652169186136,7640.98854553563,-187500.02235174447,-187500.02235174447,-187500.02235174447,-187500.02235174447
$SILENCE,10834.404627609805,-4143.141703980173,7684.708557690211,7580.124745383829,-187500.02235174447,-187500.02235174447,-187500.02235174447,-187500.02235174447
$SILENCE,10879.890427576354,-4089.8551451987205,7903.330970207569,7572.860428435854,-187500.02235174447,-187500.02235174447,-187500.02235174447,-187500.02235174447
$SILENCE,10744.12593175482,-4101.701569760033,7604.711664284667,7626.258745939583,-187500.02235174447,-187500.02235174447,-187500.02235174447,-187500.02235174447
$SILENCE,10654.406029511218,-4159.2349599879935,7290.736709920969,7645.436542682236,-187500.02235174447,-187500.02235174447,-187500.02235174447,-187500.02235174447
$SILENCE,10803.402758050295,-4151.0765732618065,7601.247143894094,7590.004216433074,-187500.02235174447,-187500.02235174447,-187500.02235174447,-187500.02235174447
$SILENCE,10884.58429391197,-4093.3643690782037,7898.793566083142,7568.658300478256,-187500.02235174447,-187500.02235174447,-187500.02235174447,-187500.02235174447
talvez,10771.998557090588,-4094.638418512156,7669.174095293773,7615.9992952345965,-187500.02235174447,-187500.02235174447,-187500.02235174447,-187500.02235174447
talvez,10653.266090543997,-4150.361317439237,7297.01755011291,7650.46568518468,-187500.02235174447,-187500.02235174447,-187500.02235174447,-187500.02235174447
talvez,10770.031603578522,-4158.430297187602,7529.229823259095,7599.704873526678,-187500.02235174447,-187500.02235174447,-187500.02235174447,-187500.02235174447
talvez,10892.653273660335,-4100.807499981821,7903.04039752965,7569.574722000924,-187500.02235174447,-187500.02235174447,-187500.02235174447,-187500.02235174447
talvez,10809.147156375308,-4089.3410550762483,7750.825017789009,7602.923524728242,-187500.02235174447,-187500.02235174447,-187500.02235174447,-187500.02235174447
talvez,10665.224273827585,-4139.297203933859,7335.574309298314,7644.162493248284,-187500.02235174447,-187500.02235174447,-187500.02235174447,-187500.02235174447
talvez,10739.767341586035,-4164.509971679446,7448.85295019781,7611.171318432251,-187500.02235174447,-187500.02235174447,-187500.02235174447,-187500.02235174447
talvez,10884.360776467416,-4108.787072752366,7872.507914603701,7568.993576645086,-187500.02235174447,-187500.02235174447,-187500.02235174447,-187500.02235174447
talvez,10828.95080196271,-4086.9494184195305,7827.826777437542,7595.078062424429,-187500.02235174447,-187500.02235174447,-187500.02235174447,-187500.02235174447
talvez,10675.863704188312,-4130.24474742946,7397.332179228328,7640.899138557808,-187500.02235174447,-187500.02235174447,-187500.02235174447,-187500.02235174447
talvez,10708.184326670686,-4168.265064747938,7375.785097573412,7620.112016214373,-187500.02235174447,-187500.02235174447,-187500.02235174447,-187500.02235174447
talvez,10870.43563967176,-4121.14758743615,7823.244669824204,7572.614559246846,-187500.02235174447,-187500.02235174447,-187500.02235174447,-187500.02235174447
talvez,10851.526063862571,-4085.0495201408294,7869.244559913226,7592.239390878605,-187500.02235174447,-187500.02235174447,-187500.02235174447,-187500.02235174447
talvez,10694.080375919388,-4118.130101934684,7469.327148118872,7643.022554281063,-187500.02235174447,-187500.02235174447,-187500.02235174447,-187500.02235174447
talvez,10682.524524035995,-4167.72862288101,7337.250690132462,7633.858339054387,-187500.02235174447,-187500.02235174447,-187500.02235174447,-187500.02235174447
talvez,10850.184959195252,-4130.155340451639,7778.697643124777,7576.034376148507,-187500.02235174447,-187500.02235174447,-187500.02235174447,-187500.02235174447
talvez,10867.954596037222,-4086.032996896863,7921.167662282904,7578.157791871762,-187500.02235174447,-187500.02235174447,-187500.02235174447,-187500.02235174447
talvez,10724.143472211776,-4107.736540762966,7564.724393454122,7624.068274982963,-187500.02235174447,-187500.02235174447,-187500.02235174447,-187500.02235174447
talvez,10666.453619772628,-4156.999785542463,7345.766704769934,7633.187786720728,-187500.02235174447,-187500.02235174447,-187500.02235174447,-187500.02235174447
talvez,10809.035397653031,-4139.587776611778,7695.683264217766,7583.321044840938,-187500.02235174447,-187500.02235174447,-187500.02235174447,-187500.02235174447
talvez,10872.53670365056,-4089.2292963539717,7931.985906599272,7571.966358657642,-187500.02235174447,-187500.02235174447,-187500.02235174447,-187500.02235174447
talvez,10749.356239957362,-4100.583982537268,7638.283984456538,7617.0498272239965,-187500.02235174447,-187500.02235174447,-187500.02235174447,-187500.02235174447
talvez,10655.903596389722,-4159.257311732449,7309.758044452435,7649.079877028451,-187500.02235174447,-187500.02235174447,-187500.02235174447,-187500.02235174447
talvez,10796.540772502514,-4153.982300040996,7619.396760391804,7596.262704880561,-187500.02235174447,-187500.02235174447,-187500.02235174447,-187500.02235174447
talvez,10881.7679741106,-4095.1078051457175,7937.685601435376,7570.580550501412,-187500.02235174447,-187500.02235174447,-187500.02235174447,-187500.02235174447
talvez,10771.439763479206,-4093.4761278004803,7725.791063999065,7608.26559165306,-187500.02235174447,-187500.02235174447,-187500.02235174447,-187500.02235174447
talvez,10651.813227154402,-4150.361317439237,7334.613184286736,7645.771818849065,-187500.02235174447,-187500.02235174447,-187500.02235174447,-187500.02235174447
talvez,10763.057859308465,-4161.268968733427,7544.8536926333545,7600.665998538256,-187500.02235174447,-187500.02235174447,-187500.02235174447,-187500.02235174447
talvez,10886.327729979485,-4101.120424404196,7934.824578145097,7567.652471977767,-187500.02235174447,-187500.02235174447,-187500.02235174447,-187500.02235174447
talvez,10806.107319129387,-4086.9717701639856,7802.0105125916625,7601.358902616371,-187500.02235174447,-187500.02235174447,-187500.02235174447,-187500.02235174447
talvez,10664.531369749471,-4137.442009144069,7376.142725484697,7641.681449613745,-187500.02235174447,-187500.02235174447,-187500.02235174447,-187500.02235174447
talvez,10734.112350238842,-4164.1076402792505,7467.04727018443,7607.237411408117,-187500.02235174447,-187500.02235174447,-187500.02235174447,-187500.02235174447
talvez,10876.492962419148,-4107.468319829502,7899.821746328086,7564.679689965212,-187500.02235174447,-187500.02235174447,-187500.02235174447,-187500.02235174447
talvez,10832.281211886551,-4084.736595718455,7861.756725520698,7586.919675698242,-187500.02235174447,-187500.02235174447,-187500.02235174447,-187500.02235174447
talvez,10681.183419368675,-4128.188386939572,7444.002621651009,7638.306336200993,-187500.02235174447,-187500.02235174447,-187500.02235174447,-187500.02235174447
talvez,10706.999684214556,-4166.901608336164,7411.480833468537,7622.41424589327,-187500.02235174447,-187500.02235174447,-187500.02235174447,-187500.02235174447
talvez,10878.929302564777,-4117.884232745675,7854.805332995097,7567.339547555393,-187500.02235174447,-187500.02235174447,-187500.02235174447,-187500.02235174447
talvez,10872.693165861747,-4083.3060840733156,7917.747845381242,7580.0129866615525,-187500.02235174447,-187500.02235174447,-187500.02235174447,-187500.02235174447
talvez,10724.992838501077,-4114.375008866192,7525.988820313075,7631.779626820044,-187500.02235174447,-187500.02235174447,-187500.02235174447,-187500.02235174447
talvez,10698.863649232824,-4162.431259445102,7366.866751535744,7625.722304072655,-187500.02235174447,-187500.02235174447,-187500.02235174447,-187500.02235174447
talvez,10876.314148463505,-4132.032886985885,7787.839506606997,7570.602902245868,-187500.02235174447,-187500.02235174447,-187500.02235174447,-187500.02235174447
talvez,10904.343236010462,-4085.7871277078543,7952.102476609049,7577.487239538103,-187500.02235174447,-187500.02235174447,-187500.02235174447,-187500.02235174447
talvez,10748.46217017915,-4104.160261650117,7605.672789296244,7626.839891295421,-187500.02235174447,-187500.02235174447,-187500.02235174447,-187500.02235174447
talvez,10682.099840891344,-4161.0007477999625,7337.07187617682,7639.0662955124735,-187500.02235174447,-187500.02235174447,-187500.02235174447,-187500.02235174447
talvez,10849.179130694763,-4141.018288256918,7709.206069613228,7581.7787744735215,-187500.02235174447,-187500.02235174447,-187500.02235174447,-187500.02235174447
talvez,10909.662951190825,-4086.3012178303266,7963.568921514621,7568.390079544793,-187500.02235174447,-187500.02235174447,-187500.02235174447,-187500.02235174447
talvez,10781.207475806175,-4094.347845834237,7684.574447223479,7615.105225456385,-187500.02235174447,-187500.02235174447,-187500.02235174447,-187500.02235174447
talvez,10682.166896124709,-4147.165017982128,7362.955196256065,7637.6581356117895,-187500.02235174447,-187500.02235174447,-187500.02235174447,-187500.02235174447
talvez,10808.655417997292,-4147.276776704404,7621.296658670504,7593.0440536789965,-187500.02235174447,-187500.02235174447,-187500.02235174447,-187500.02235174447
talvez,10908.835936645977,-4093.587886522757,7949.107342852038,7567.9206929112315,-187500.02235174447,-187500.02235174447,-187500.02235174447,-187500.02235174447
talvez,10801.346397560406,-4089.385758565159,7758.648128348366,7607.483280597125,-187500.02235174447,-187500.02235174447,-187500.02235174447,-187500.02235174447
talvez,10675.439021043661,-4146.025079014907,7366.844399791289,7644.386010692837,-187500.02235174447,-187500.02235174447,-187500.02235174447,-187500.02235174447
talvez,10777.430030993228,-4159.324366965815,7551.402753758759,7604.085815439918,-187500.02235174447,-187500.02235174447,-187500.02235174447,-187500.02235174447
talvez,10905.706692422234,-4108.183575652072,7939.76431366972,7564.411469031748,-187500.02235174447,-187500.02235174447,-187500.02235174447,-187500.02235174447
talvez,10841.758351535602,-4089.6316277541673,7833.705286229288,7596.307408369471,-187500.02235174447,-187500.02235174447,-187500.02235174447,-187500.02235174447
talvez,10706.060910947432,-4130.803541040843,7414.587725947825,7649.169284006272,-187500.02235174447,-187500.02235174447,-187500.02235174447,-187500.02235174447
talvez,10762.499065697082,-4163.660605390144,7477.418479611693,7617.899193513298,-187500.02235174447,-187500.02235174447,-187500.02235174447,-187500.02235174447
talvez,10907.96421861222,-4116.297258889349,7909.745920866242,7563.562102742447,-187500.02235174447,-187500.02235174447,-187500.02235174447,-187500.02235174447
talvez,10864.937110535755,-4094.0796249007735,7895.150231736927,7581.711719240156,-187500.02235174447,-187500.02235174447,-187500.02235174447,-187500.02235174447
talvez,10705.50211733605,-4133.53045386439,7464.09683991633,7638.7757228345545,-187500.02235174447,-187500.02235174447,-187500.02235174447,-187500.02235174447
talvez,10727.473882135617,-4171.260198504949,7392.7947751039,7616.423978379247,-187500.02235174447,-187500.02235174447,-187500.02235174447,-187500.02235174447
talvez,10911.786366914079,-4136.525587621401,7863.74603077722,7565.596111487879,-187500.02235174447,-187500.02235174447,-187500.02235174447,-187500.02235174447
talvez,10904.477346477193,-4084.490726529447,7946.782761428686,7583.231637863117,-187500.02235174447,-187500.02235174447,-187500.02235174447,-187500.02235174447
talvez,10734.760550828047,-4101.9474389490415,7539.802198386455,7625.610545350379,-187500.02235174447,-187500.02235174447,-187500.02235174447,-187500.02235174447
talvez,10691.867553218312,-4161.358375711247,7352.338117639794,7622.9283360157415,-187500.02235174447,-187500.02235174447,-187500.02235174447,-187500.02235174447
talvez,10865.205331469218,-4143.879311547197,7769.578131387011,7567.048974877474,-187500.02235174447,-187500.02235174447,-187500.02235174447,-187500.02235174447
talvez,10916.815509416523,-4088.5363922758575,7961.3784505580015,7580.035338406007,-187500.02235174447,-187500.02235174447,-187500.02235174447,-187500.02235174447
talvez,10763.817818619946,-4112.184537909572,7635.378257677348,7628.762141318577,-187500.02235174447,-187500.02235174447,-187500.02235174447,-187500.02235174447
talvez,10703.222239401608,-4167.214532758539,7344.850283247267,7642.642574625323,-187500.02235174447,-187500.02235174447,-187500.02235174447,-187500.02235174447
talvez,10881.209180499218,-4156.753916353455,7713.631715015378,7582.672844251734,-187500.02235174447,-187500.02235174447,-187500.02235174447,-187500.02235174447
talvez,10933.288745080084,-4096.851241213231,7991.955636972862,7554.420239260226,-187500.02235174447,-187500.02235174447,-187500.02235174447,-187500.02235174447
talvez,10803.46981328366,-4100.807499981821,7713.832880715476,7594.452213579681,-187500.02235174447,-187500.02235174447,-187500.02235174447,-187500.02235174447
talvez,10703.579867312894,-4162.475962934013,7363.379879400716,7626.929298273242,-187500.02235174447,-187500.02235174447,-187500.02235174447,-187500.02235174447
talvez,10879.666910131802,-4172.668358405633,7613.540603344513,7575.766155215044,-187500.02235174447,-187500.02235174447,-187500.02235174447,-187500.02235174447
talvez,10954.344088356984,-4127.629593328189,7944.838159661074,7548.139399068285,-187500.02235174447,-187500.02235174447,-187500.02235174447,-187500.02235174447
talvez,10842.875938758367,-4084.423671296081,7829.056123382584,7607.259763152571,-187500.02235174447,-187500.02235174447,-187500.02235174447,-187500.02235174447
talvez,10754.787713860002,-4145.980375525996,7459.201807880618,7639.982717035141,-187500.02235174447,-187500.02235174447,-187500.02235174447,-187500.02235174447
talvez,10844.820540525978,-4194.30484703837,7579.141268627795,7582.7398994851,-187500.02235174447,-187500.02235174447,-187500.02235174447,-187500.02235174447
talvez,10909.908820379833,-4141.241805701471,7937.909118879929,7547.647660690268,-187500.02235174447,-187500.02235174447,-187500.02235174447,-187500.02235174447
talvez,10828.839043240434,-4139.051334744851,7743.046610718562,7548.653489190757,-187500.02235174447,-187500.02235174447,-187500.02235174447,-187500.02235174447
talvez,10705.792690013968,-4172.802468872365,7416.912307371177,7576.704928482167,-187500.02235174447,-187500.02235174447,-187500.02235174447,-187500.02235174447
talvez,10809.750653475601,-4236.996678948007,7507.235706715072,7574.380347058815,-187500.02235174447,-187500.02235174447,-187500.02235174447,-187500.02235174447
talvez,10913.753320426145,-4216.187204860116,7892.579781124567,7505.7604915810225,-187500.02235174447,-187500.02235174447,-187500.02235174447,-187500.02235174447
talvez,10902.242172031662,-4134.893910276164,7971.436735562889,7580.6611872507565,-187500.02235174447,-187500.02235174447,-187500.02235174447,-187500.02235174447
talvez,10762.096734296887,-4168.242713003482,7403.70242639809,7626.951650017697,-187500.02235174447,-187500.02235174447,-187500.02235174447,-187500.02235174447
talvez,10725.506928623548,-4249.111324442783,7232.309249914796,7522.457244689137,-187500.02235174447,-187500.02235174447,-187500.02235174447,-187500.02235174447
talvez,10883.265540989107,-4224.16677763066,7681.668720444289,7442.460351283593,-187500.02235174447,-187500.02235174447,-187500.02235174447,-187500.02235174447
talvez,10943.25762310715,-4199.937486641108,7834.174672862849,7475.6526917997235,-187500.02235174447,-187500.02235174447,-187500.02235174447,-187500.02235174447
talvez,10787.667129953757,-4211.269821079948,7474.892732488243,7543.132608310296,-187500.02235174447,-187500.02235174447,-187500.02235174447,-187500.02235174447
talvez,10713.727559295603,-4241.288213883426,7323.370256825717,7567.250140577572,-187500.02235174447,-187500.02235174447,-187500.02235174447,-187500.02235174447
talvez,10957.562739558547,-4210.934544913119,7756.882340536397,7518.612744642824,-187500.02235174447,-187500.02235174447,-187500.02235174447,-187500.02235174447
talvez,10987.827001551033,-4189.454518491569,7957.489247022778,7546.664183934234,-187500.02235174447,-187500.02235174447,-187500.02235174447,-187500.02235174447
talvez,10824.882784471845,-4190.281533036415,7633.210138465183,7582.0693471514405,-187500.02235174447,-187500.02235174447,-187500.02235174447,-187500.02235174447
talvez,10724.657562334247,-4278.2803509569585,7304.9524193945435,7566.646643477278,-187500.02235174447,-187500.02235174447,-187500.02235174447,-187500.02235174447
talvez,10853.202444696719,-4262.634129838244,7607.483280597125,7473.506924332014,-187500.02235174447,-187500.02235174447,-187500.02235174447,-187500.02235174447
talvez,10926.06913162102,-4208.989943145507,7902.392196940446,7488.259075672517,-187500.02235174447,-187500.02235174447,-187500.02235174447,-187500.02235174447
talvez,10902.53274470958,-4196.696483695088,7684.99913036813,7589.9371611997085,-187500.02235174447,-187500.02235174447,-187500.02235174447,-187500.02235174447
talvez,10768.578740188927,-4260.89069377073,7308.975733396499,7592.909943212265,-187500.02235174447,-187500.02235174447,-187500.02235174447,-187500.02235174447
talvez,10865.607662869414,-4238.829521993342,7563.316233553438,7519.4397591876705,-187500.02235174447,-187500.02235174447,-187500.02235174447,-187500.02235174447
talvez,10984.675405582835,-4191.354416770269,7900.13467075046,7483.542857592447,-187500.02235174447,-187500.02235174447,-187500.02235174447,-187500.02235174447
talvez,10815.651514011803,-4182.994864343985,7749.595671843967,7585.980902431119,-187500.02235174447,-187500.02235174447,-187500.02235174447,-187500.02235174447
talvez,10648.035782341454,-4223.183300874627,7323.727884737002,7631.89138554232,-187500.02235174447,-187500.02235174447,-187500.02235174447,-187500.02235174447
talvez,10754.161865015252,-4254.565150089878,7464.365060849794,7615.842833023409,-187500.02235174447,-187500.02235174447,-187500.02235174447,-187500.02235174447
talvez,10906.712520922723,-4206.352437299781,7890.1210892344825,7579.655358750268,-187500.02235174447,-187500.02235174447,-187500.02235174447,-187500.02235174447
talvez,10835.43280785475,-4175.015291573441,7817.16499533236,7575.408527303759,-187500.02235174447,-187500.02235174447,-187500.02235174447,-187500.02235174447
talvez,10684.223256614598,-4219.383504317225,7367.671414336135,7601.537716572013,-187500.02235174447,-187500.02235174447,-187500.02235174447,-187500.02235174447
talvez,10715.269829663019,-4257.26971116897,7386.156307000674,7576.190838359695,-187500.02235174447,-187500.02235174447,-187500.02235174447,-187500.02235174447
talvez,10923.655143219847,-4216.656591493677,7862.807257510097,7552.676803192712,-187500.02235174447,-187500.02235174447,-187500.02235174447,-187500.02235174447
talvez,10885.500715434637,-4186.794660901387,7867.791696523631,7563.964434142642,-187500.02235174447,-187500.02235174447,-187500.02235174447,-187500.02235174447
talvez,10729.865518792334,-4219.919946184153,7483.676968059179,7636.31703094447,-187500.02235174447,-187500.02235174447,-187500.02235174447,-187500.02235174447
talvez,10726.065722234933,-4260.644824581722,7364.586873601303,7617.496862113102,-187500.02235174447,-187500.02235174447,-187500.02235174447,-187500.02235174447
talvez,10876.984700797166,-4221.149292129194,7801.83169863602,7580.16944887274,-187500.02235174447,-187500.02235174447,-187500.02235174447,-187500.02235174447
talvez,10840.394895123827,-4192.159079570661,7900.067615517094,7544.183140299695,-187500.02235174447,-187500.02235174447,-187500.02235174447,-187500.02235174447
talvez,10705.144489424765,-4219.964649673063,7554.509646238047,7583.45515530767,-187500.02235174447,-187500.02235174447,-187500.02235174447,-187500.02235174447
talvez,10710.307742393941,-4267.4174031516795,7356.942576997588,7600.777757260533,-187500.02235174447,-187500.02235174447,-187500.02235174447,-187500.02235174447
talvez,10876.24709323014,-4246.607929063789,7751.0038317446515,7563.897378909276,-187500.02235174447,-187500.02235174447,-187500.02235174447,-187500.02235174447
talvez,10887.11004103542,-4198.752844184976,7956.617528989021,7562.265701564039,-187500.02235174447,-187500.02235174447,-187500.02235174447,-187500.02235174447
talvez,10738.090960751888,-4202.6420477202,7643.871920570365,7610.567821331957,-187500.02235174447,-187500.02235174447,-187500.02235174447,-187500.02235174447
talvez,10695.063852675421,-4236.12496091425,7362.083478222308,7646.330612460449,-187500.02235174447,-187500.02235174447,-187500.02235174447,-187500.02235174447
talvez,10842.227738169162,-4235.141484158216,7684.820316412487,7598.40847234827,-187500.02235174447,-187500.02235174447,-187500.02235174447,-187500.02235174447
talvez,10925.622096731913,-4185.431204489613,7969.559189028644,7566.423126032726,-187500.02235174447,-187500.02235174447,-187500.02235174447,-187500.02235174447
talvez,10816.992618679122,-4179.619750931233,7747.651070076356,7598.7437485150995,-187500.02235174447,-187500.02235174447,-187500.02235174447,-187500.02235174447
talvez,10692.15812589623,-4220.925774684641,7372.231170205018,7650.286871229037,-187500.02235174447,-187500.02235174447,-187500.02235174447,-187500.02235174447
talvez,10799.021816137054,-4223.228004363537,7598.117899670351,7597.447347336692,-187500.02235174447,-187500.02235174447,-187500.02235174447,-187500.02235174447
talvez,10905.438471488771,-4178.68097766411,7973.0013576747615,7555.560178227446,-187500.02235174447,-187500.02235174447,-187500.02235174447,-187500.02235174447
talvez,10852.62129934088,-4171.0366810603955,7843.763571234175,7603.012931706064,-187500.02235174447,-187500.02235174447,-187500.02235174447,-187500.02235174447
talvez,10733.754722327558,-4217.148329871694,7410.072673567853,7637.412266422781,-187500.02235174447,-187500.02235174447,-187500.02235174447,-187500.02235174447
talvez,10761.64969940778,-4244.46216159608,7506.341636936861,7582.561085529457,-187500.02235174447,-187500.02235174447,-187500.02235174447,-187500.02235174447
talvez,10931.500605523659,-4164.599378657267,7963.770087214719,7590.719472255644,-187500.02235174447,-187500.02235174447,-187500.02235174447,-187500.02235174447
talvez,10877.7670118531,-4125.9532124940415,7921.905269849929,7630.505577386091,-187500.02235174447,-187500.02235174447,-187500.02235174447,-187500.02235174447
talvez,10727.36212341334,-4149.400192427658,7505.291104947461,7700.511241020113,-187500.02235174447,-187500.02235174447,-187500.02235174447,-187500.02235174447
talvez,10766.164751787754,-4197.612905217756,7491.611837340813,7684.842668156943,-187500.02235174447,-187500.02235174447,-187500.02235174447,-187500.02235174447
talvez,10921.867003663421,-4159.302015221359,7935.562185712121,7604.085815439918,-187500.02235174447,-187500.02235174447,-187500.02235174447,-187500.02235174447
talvez,10896.20720102873,-4121.214642669516,7974.1189448975265,7606.119824185351,-187500.02235174447,-187500.02235174447,-187500.02235174447,-187500.02235174447
talvez,10759.258062751063,-4160.240788488482,7561.237521319094,7646.218853738172,-187500.02235174447,-187500.02235174447,-187500.02235174447,-187500.02235174447
talvez,10728.79263505848,-4215.181376359627,7407.055188066386,7633.2548419540935,-187500.02235174447,-187500.02235174447,-187500.02235174447,-187500.02235174447
talvez,10897.458898718227,-4164.085288534795,7862.203760409804,7622.347190659904,-187500.02235174447,-187500.02235174447,-187500.02235174447,-187500.02235174447
talvez,10931.701771223758,-4102.483880815969,8029.394808935501,7637.814597822977,-187500.02235174447,-187500.02235174447,-187500.02235174447,-187500.02235174447
talvez,10793.456231767683,-4113.257421643427,7671.610435439401,7663.206179524205,-187500.02235174447,-187500.02235174447,-187500.02235174447,-187500.02235174447
talvez,10753.178388259219,-4171.684881649599,7440.627508238257,7689.581237981468,-187500.02235174447,-187500.02235174447,-187500.02235174447,-187500.02235174447
talvez,10895.53664869507,-4166.074593791317,7807.173765560838,7656.098324787417,-187500.02235174447,-187500.02235174447,-187500.02235174447,-187500.02235174447
talvez,10966.79401001859,-4116.610183311723,8062.497742473811,7644.207196737194,-187500.02235174447,-187500.02235174447,-187500.02235174447,-187500.02235174447
talvez,10841.825406768967,-4124.477997359991,7762.559683628045,7645.257728726594,-187500.02235174447,-187500.02235174447,-187500.02235174447,-187500.02235174447
talvez,10743.500082910072,-4174.121221795228,7436.224214580562,7672.437449984247,-187500.02235174447,-187500.02235174447,-187500.02235174447,-187500.02235174447
talvez,10861.62905235637,-4176.691672407588,7733.256546647138,7610.344303887404,-187500.02235174447,-187500.02235174447,-187500.02235174447,-187500.02235174447
talvez,10923.655143219847,-4118.286564145871,8001.969218488839,7584.617446019345,-187500.02235174447,-187500.02235174447,-187500.02235174447,-187500.02235174447
talvez,10891.24511375965,-4103.489709316457,7850.357335848491,7705.830956200476,-187500.02235174447,-187500.02235174447,-187500.02235174447,-187500.02235174447
talvez,10774.166676302753,-4157.11154426474,7461.369927092783,7717.453863317235,-187500.02235174447,-187500.02235174447,-187500.02235174447,-187500.02235174447
talvez,10862.076087245476,-4178.748032897476,7645.280080471049,7636.0711617554625,-187500.02235174447,-187500.02235174447,-187500.02235174447,-187500.02235174447
talvez,10975.377079889427,-4128.233090428483,8022.577526876632,7606.142175929806,-187500.02235174447,-187500.02235174447,-187500.02235174447,-187500.02235174447
talvez,10916.659047205336,-4108.563555307813,7906.169641753393,7648.319917716971,-187500.02235174447,-187500.02235174447,-187500.02235174447,-187500.02235174447
talvez,10775.060746080964,-4136.883215532686,7519.372703954305,7713.274087104093,-187500.02235174447,-187500.02235174447,-187500.02235174447,-187500.02235174447
talvez,10831.543604319526,-4176.892838107686,7623.0400947380185,7685.8484966574315,-187500.02235174447,-187500.02235174447,-187500.02235174447,-187500.02235174447
talvez,10969.543274586591,-4133.396343397659,8045.108085287582,7636.451141411203,-187500.02235174447,-187500.02235174447,-187500.02235174447,-187500.02235174447
talvez,10921.218803074218,-4116.520776333902,7975.124773398015,7626.281097684038,-187500.02235174447,-187500.02235174447,-187500.02235174447,-187500.02235174447
talvez,10782.995615362599,-4130.624727085201,7579.588303516902,7711.530651036579,-187500.02235174447,-187500.02235174447,-187500.02235174447,-187500.02235174447
talvez,10799.692368470713,-4178.345701497281,7530.526224437503,7702.321732320993,-187500.02235174447,-187500.02235174447,-187500.02235174447,-187500.02235174447
talvez,10978.685138068813,-4152.127105251206,8019.470634397345,7638.328687945448,-187500.02235174447,-187500.02235174447,-187500.02235174447,-187500.02235174447
talvez,11009.597600650502,-4106.261325628916,8110.643400030542,7649.2810427285485,-187500.02235174447,-187500.02235174447,-187500.02235174447,-187500.02235174447
talvez,10863.998337268631,-4129.082456717784,7618.614449335868,7715.218688871705,-187500.02235174447,-187500.02235174447,-187500.02235174447,-187500.02235174447
talvez,10753.446609192682,-4208.006466389474,7401.735472886023,7674.940845363241,-187500.02235174447,-187500.02235174447,-187500.02235174447,-187500.02235174447
talvez,10946.319812097528,-4151.858884317742,7895.351397437024,7668.548246449023,-187500.02235174447,-187500.02235174447,-187500.02235174447,-187500.02235174447
talvez,10981.41205089236,-4094.1243283896843,8030.512396158266,7655.5618829204905,-187500.02235174447,-187500.02235174447,-187500.02235174447,-187500.02235174447
talvez,10818.512537302082,-4141.577081868301,7650.175112506761,7683.993301867641,-187500.02235174447,-187500.02235174447,-187500.02235174447,-187500.02235174447
talvez,10731.094864737375,-4227.541891043412,7417.135824815729,7689.9612176372075,-187500.02235174447,-187500.02235174447,-187500.02235174447,-187500.02235174447
talvez,10936.954431170754,-4177.585742185801,7797.473108467235,7643.491940914624,-187500.02235174447,-187500.02235174447,-187500.02235174447,-187500.02235174447
talvez,10990.755080074678,-4127.495482861457,8049.041992311716,7618.659152824778,-187500.02235174447,-187500.02235174447,-187500.02235174447,-187500.02235174447
talvez,10893.368529482905,-4132.39051489717,7793.561553187556,7681.847534399932,-187500.02235174447,-187500.02235174447,-187500.02235174447,-187500.02235174447
talvez,10770.27747276753,-4214.0637891368615,7441.789798949933,7707.8649649459085,-187500.02235174447,-187500.02235174447,-187500.02235174447,-187500.02235174447
talvez,10902.957427854231,-4198.30580929587,7741.236119417682,7658.51231318859,-187500.02235174447,-187500.02235174447,-187500.02235174447,-187500.02235174447
talvez,10990.442155652305,-4174.612960173245,8030.668858369453,7598.967265959653,-187500.02235174447,-187500.02235174447,-187500.02235174447,-187500.02235174447
talvez,10901.996302842654,-4169.963797326541,7822.238841323715,7648.297565972515,-187500.02235174447,-187500.02235174447,-187500.02235174447,-187500.02235174447
talvez,10752.820760347935,-4235.812036491876,7440.672211727168,7656.813580609987,-187500.02235174447,-187500.02235174447,-187500.02235174447,-187500.02235174447
talvez,10867.351098936928,-4247.8149232643755,7616.155757445784,7660.345156233926,-187500.02235174447,-187500.02235174447,-187500.02235174447,-187500.02235174447
talvez,10982.619045092946,-4175.059995062351,7961.780781958197,7621.676638326245,-187500.02235174447,-187500.02235174447,-187500.02235174447,-187500.02235174447
talvez,10906.824279645,-4170.567294426834,7876.84415302803,7629.611507607879,-187500.02235174447,-187500.02235174447,-187500.02235174447,-187500.02235174447
talvez,10784.448478752194,-4199.870431407742,7469.483610330059,7686.630807713367,-187500.02235174447,-187500.02235174447,-187500.02235174447,-187500.02235174447
talvez,10832.616488053382,-4238.762466759976,7480.9277034911765,7633.187786720728,-187500.02235174447,-187500.02235174447,-187500.02235174447,-187500.02235174447
talvez,10964.514132084149,-4214.443768792602,7912.2493162452365,7561.9974806305745,-187500.02235174447,-187500.02235174447,-187500.02235174447,-187500.02235174447
talvez,10971.420821120837,-4170.96962582703,7945.754581183742,7621.006085992585,-187500.02235174447,-187500.02235174447,-187500.02235174447,-187500.02235174447
talvez,10834.181110165253,-4194.707178438566,7555.8283991609105,7692.554019994023,-187500.02235174447,-187500.02235174447,-187500.02235174447,-187500.02235174447
talvez,10846.251052171117,-4216.075446137839,7523.328962722893,7704.71336897771,-187500.02235174447,-187500.02235174447,-187500.02235174447,-187500.02235174447
talvez,10965.676422795823,-4222.490396796513,7964.619453504021,7586.293826853494,-187500.02235174447,-187500.02235174447,-187500.02235174447,-187500.02235174447
talvez,10973.857161266465,-4177.071652063329,8005.187869690403,7583.231637863117,-187500.02235174447,-187500.02235174447,-187500.02235174447,-187500.02235174447
talvez,10831.476549086161,-4202.709102953566,7582.248161107083,7650.197464251217,-187500.02235174447,-187500.02235174447,-187500.02235174447,-187500.02235174447
talvez,10798.865353925867,-4248.418420364669,7423.170795818663,7652.410286952292,-187500.02235174447,-187500.02235174447,-187500.02235174447,-187500.02235174447
talvez,10961.608405304958,-4212.543870513901,7824.362257046969,7606.164527674262,-187500.02235174447,-187500.02235174447,-187500.02235174447,-187500.02235174447
talvez,11003.115594758463,-4155.233997730494,8040.436570696423,7573.933312169709,-187500.02235174447,-187500.02235174447,-187500.02235174447,-187500.02235174447
talvez,10863.931282035266,-4179.038605575395,7669.509371460602,7634.528891388046,-187500.02235174447,-187500.02235174447,-187500.02235174447,-187500.02235174447
talvez,10786.728356686635,-4252.2182169220705,7388.614998890758,7669.487019716146,-187500.02235174447,-187500.02235174447,-187500.02235174447,-187500.02235174447
talvez,10933.534614269092,-4236.415533592169,7752.546102112067,7606.276286396538,-187500.02235174447,-187500.02235174447,-187500.02235174447,-187500.02235174447
talvez,11018.247725754705,-4186.794660901387,8026.891413556506,7582.449326807181,-187500.02235174447,-187500.02235174447,-187500.02235174447,-187500.02235174447
talvez,10905.147898810852,-4174.300035750871,7803.396320747891,7633.858339054387,-187500.02235174447,-187500.02235174447,-187500.02235174447,-187500.02235174447
talvez,10779.307577527474,-4236.326126614347,7420.242717295017,7656.187731765239,-187500.02235174447,-187500.02235174447,-187500.02235174447,-187500.02235174447
talvez,10905.30436102204,-4239.924757471652,7662.155647534806,7609.584344575924,-187500.02235174447,-187500.02235174447,-187500.02235174447,-187500.02235174447
talvez,11022.159281034385,-4167.527457180912,8033.820454337651,7588.7078152546665,-187500.02235174447,-187500.02235174447,-187500.02235174447,-187500.02235174447
talvez,10915.54145998257,-4165.627558902212,7843.40594332289,7600.375425860337,-187500.02235174447,-187500.02235174447,-187500.02235174447,-187500.02235174447
talvez,10791.154002088786,-4229.21827187756,7447.243624597028,7646.777647349554,-187500.02235174447,-187500.02235174447,-187500.02235174447,-187500.02235174447
talvez,10898.82235513,-4219.517614783957,7628.180995962739,7624.492958127614,-187500.02235174447,-187500.02235174447,-187500.02235174447,-187500.02235174447
talvez,10993.437289409316,-4191.01914060344,7975.4824013093,7550.508683980547,-187500.02235174447,-187500.02235174447,-187500.02235174447,-187500.02235174447
talvez,10910.199393057752,-4183.263085277448,7885.382519409957,7568.54654175598,-187500.02235174447,-187500.02235174447,-187500.02235174447,-187500.02235174447
talvez,10788.717661943158,-4211.918021669152,7517.7410266090665,7661.865074856887,-187500.02235174447,-187500.02235174447,-187500.02235174447,-187500.02235174447
talvez,10845.580499837459,-4236.750809758998,7505.447567158648,7633.7242285876555,-187500.02235174447,-187500.02235174447,-187500.02235174447,-187500.02235174447
talvez,10993.817269065055,-4190.683864436611,7926.308563507625,7563.249178320072,-187500.02235174447,-187500.02235174447,-187500.02235174447,-187500.02235174447
talvez,10972.31489089905,-4151.568311639823,7961.937244169384,7586.271475109038,-187500.02235174447,-187500.02235174447,-187500.02235174447,-187500.02235174447
talvez,10807.761348219079,-4184.425375989124,7565.640814976789,7635.668830355267,-187500.02235174447,-187500.02235174447,-187500.02235174447,-187500.02235174447
talvez,10799.625313237348,-4244.193940662616,7467.516656817992,7617.8768417688425,-187500.02235174447,-187500.02235174447,-187500.02235174447,-187500.02235174447
talvez,10978.12634445743,-4192.762576670954,7922.039380316661,7580.8400012063985,-187500.02235174447,-187500.02235174447,-187500.02235174447,-187500.02235174447
talvez,10980.36151890296,-4146.6285761152,8044.817512609663,7580.303559339472,-187500.02235174447,-187500.02235174447,-187500.02235174447,-187500.02235174447
talvez,10822.982886193144,-4190.527402225423,7638.060467011985,7624.98469650563,-187500.02235174447,-187500.02235174447,-187500.02235174447,-187500.02235174447
talvez,10774.412545491761,-4248.217254664571,7412.553717202391,7623.263612182572,-187500.02235174447,-187500.02235174447,-187500.02235174447,-187500.02235174447
$SILENCE,10925.957372898743,-4223.339763085814,7792.1533932868715,7555.314309038438,-187500.02235174447,-187500.02235174447,-187500.02235174447,-187500.02235174447
$SILENCE,10971.59963507648,-4166.052242046862,8026.109102500571,7552.96737587063,-187500.02235174447,-187500.02235174447,-187500.02235174447,-187500.02235174447
$SILENCE,10855.459970886704,-4172.154268283161,7746.354668897948,7612.423016121747,-187500.02235174447,-187500.02235174447,-187500.02235174447,-187500.02235174447
$SILENCE,10794.350301545895,-4213.974382159041,7428.848138910311,7641.8826153138425,-187500.02235174447,-187500.02235174447,-187500.02235174447,-187500.02235174447
$SILENCE,10912.255753547639,-4218.2882688389145,7734.441189103269,7564.880855665309,-187500.02235174447,-187500.02235174447,-187500.02235174447,-187500.02235174447
$SILENCE,10979.154524702373,-4163.8170676013315,8028.2995734571905,7543.222015288117,-187500.02235174447,-187500.02235174447,-187500.02235174447,-187500.02235174447
$SILENCE,10872.737869350656,-4153.6023203852565,7782.340977470992,7600.196611904695,-187500.02235174447,-187500.02235174447,-187500.02235174447,-187500.02235174447
$SILENCE,10742.874234065323,-4214.332010070326,7416.398217248705,7632.3160686869705,-187500.02235174447,-187500.02235174447,-187500.02235174447,-187500.02235174447
$SILENCE,10837.66798230028,-4238.427190593146,7646.420019438269,7576.54846627098,-187500.02235174447,-187500.02235174447,-187500.02235174447,-187500.02235174447
$SILENCE,10968.31392864155,-4158.7655733544325,8019.895317541996,7552.363878770338,-187500.02235174447,-187500.02235174447,-187500.02235174447,-187500.02235174447
$SILENCE,10878.72813686468,-4163.839419345787,7875.167772193882,7574.469754036636,-187500.02235174447,-187500.02235174447,-187500.02235174447,-187500.02235174447
$SILENCE,10756.262928994052,-4204.363132043259,7512.063683517419,7642.977850792152,-187500.02235174447,-187500.02235174447,-187500.02235174447,-187500.02235174447
$SILENCE,10823.675790271258,-4214.533175770423,7567.943044655686,7594.8098414909655,-187500.02235174447,-187500.02235174447,-187500.02235174447,-187500.02235174447
$SILENCE,10949.73962899919,-4164.912303079642,7957.802171445152,7541.120951309318,-187500.02235174447,-187500.02235174447,-187500.02235174447,-187500.02235174447
$SILENCE,10904.834974388477,-4141.331212679293,7918.686618648365,7571.586379001901,-187500.02235174447,-187500.02235174447,-187500.02235174447,-187500.02235174447
$SILENCE,10773.160847802264,-4173.808297372853,7516.466977175114,7627.84571979591,-187500.02235174447,-187500.02235174447,-187500.02235174447,-187500.02235174447
$SILENCE,10795.154964346286,-4235.700277769599,7501.7148258346115,7590.630065277823,-187500.02235174447,-187500.02235174447,-187500.02235174447,-187500.02235174447
$SILENCE,10941.31302133954,-4197.367036028747,7933.461121733323,7541.009192587041,-187500.02235174447,-187500.02235174447,-187500.02235174447,-187500.02235174447
$SILENCE,10930.360666556438,-4141.9794132684965,7965.178247115404,7573.732146469611,-187500.02235174447,-187500.02235174447,-187500.02235174447,-187500.02235174447
$SILENCE,10772.46794372415,-4179.1950677865825,7556.901282894765,7617.407455135281,-187500.02235174447,-187500.02235174447,-187500.02235174447,-187500.02235174447
$SILENCE,10767.014118077055,-4229.531196299934,7436.067752369375,7608.22088816415,-187500.02235174447,-187500.02235174447,-187500.02235174447,-187500.02235174447
$SILENCE,10944.822245219022,-4187.085233579306,7891.439842157346,7562.01983237503,-187500.02235174447,-187500.02235174447,-187500.02235174447,-187500.02235174447
$SILENCE,10965.497608840182,-4125.975564238496,8041.3306404746345,7577.598998260379,-187500.02235174447,-187500.02235174447,-187500.02235174447,-187500.02235174447
$SILENCE,10789.924656143745,-4171.7966403718765,7642.642574625323,7606.432748607725,-187500.02235174447,-187500.02235174447,-187500.02235174447,-187500.02235174447
$SILENCE,10720.20956518764,-4239.723591771554,7387.69857736809,7610.903097498786,-187500.02235174447,-187500.02235174447,-187500.02235174447,-187500.02235174447
$SILENCE,10886.663006146313,-4208.2523355784815,7780.172858258827,7573.061594135952,-187500.02235174447,-187500.02235174447,-187500.02235174447,-187500.02235174447
$SILENCE,10946.565681286536,-4153.714079107533,8014.6203058505425,7558.957643384653,-187500.02235174447,-187500.02235174447,-187500.02235174447,-187500.02235174447
$SILENCE,10835.008124710099,-4161.224265244516,7730.820206501509,7591.188858889206,-187500.02235174447,-187500.02235174447,-187500.02235174447,-187500.02235174447
$SILENCE,10745.578795144414,-4220.724608984543,7408.686865411623,7617.832138279932,-187500.02235174447,-187500.02235174447,-187500.02235174447,-187500.02235174447
$SILENCE,10883.712575878213,-4215.047265892896,7721.320715108003,7572.54750401348,-187500.02235174447,-187500.02235174447,-187500.02235174447,-187500.02235174447
$SILENCE,10962.949509972277,-4155.6810326196,8027.3608001900675,7548.832303146399,-187500.02235174447,-187500.02235174447,-187500.02235174447,-187500.02235174447
$SILENCE,10855.90700577581,-4151.389497684181,7802.792823647598,7592.462908323158,-187500.02235174447,-187500.02235174447,-187500.02235174447,-187500.02235174447
$SILENCE,10736.034600261999,-4205.2572018214705,7414.699484670101,7616.714551057166,-187500.02235174447,-187500.02235174447,-187500.02235174447,-187500.02235174447
$SILENCE,10840.350191634918,-4232.928661457141,7631.265536697571,7555.694288694178,-187500.02235174447,-187500.02235174447,-187500.02235174447,-187500.02235174447
$SILENCE,10968.336280386005,-4171.193143271583,8013.905050027973,7532.828454116399,-187500.02235174447,-187500.02235174447,-187500.02235174447,-187500.02235174447
$SILENCE,10885.523067179092,-4150.338965694781,7865.757687778198,7567.026623133019,-187500.02235174447,-187500.02235174447,-187500.02235174447,-187500.02235174447
$SILENCE,10756.8887778388,-4199.892783152197,7479.072508701385,7616.111053956874,-187500.02235174447,-187500.02235174447,-187500.02235174447,-187500.02235174447
$SILENCE,10818.28901985753,-4222.758617729976,7566.311367310449,7589.914809455253,-187500.02235174447,-187500.02235174447,-187500.02235174447,-187500.02235174447
$SILENCE,10961.74251577169,-4174.948236340075,7988.759337515752,7543.9149193662315,-187500.02235174447,-187500.02235174447,-187500.02235174447,-187500.02235174447
$SILENCE,10905.661988933325,-4151.411849428636,7944.726400938797,7563.182123086706,-187500.02235174447,-187500.02235174447,-187500.02235174447,-187500.02235174447
$SILENCE,10740.594356130881,-4195.6906551945995,7489.309607661916,7628.8515482963985,-187500.02235174447,-187500.02235174447,-187500.02235174447,-187500.02235174447
$SILENCE,10781.56510371746,-4229.441789322113,7468.47778182957,7614.926411500742,-187500.02235174447,-187500.02235174447,-187500.02235174447,-187500.02235174447
$SILENCE,10951.058381922054,-4177.071652063329,7927.694371663853,7557.191855572683,-187500.02235174447,-187500.02235174447,-187500.02235174447,-187500.02235174447
$SILENCE,10932.439378790783,-4144.259291202938,7981.830296734607,7556.521303239025,-187500.02235174447,-187500.02235174447,-187500.02235174447,-187500.02235174447
$SILENCE,10778.771135660547,-4181.653759676667,7575.721451726134,7616.379274890337,-187500.02235174447,-187500.02235174447,-187500.02235174447,-187500.02235174447
$SILENCE,10766.298862254485,-4226.044324164906,7421.047380095409,7602.007103205575,-187500.02235174447,-187500.02235174447,-187500.02235174447,-187500.02235174447
$SILENCE,10932.841710190978,-4192.8743353932305,7837.0580478975835,7534.34837273936,-187500.02235174447,-187500.02235174447,-187500.02235174447,-187500.02235174447
$SILENCE,10951.8853964669,-4142.135875479684,7995.241343407792,7544.026678088508,-187500.02235174447,-187500.02235174447,-187500.02235174447,-187500.02235174447
$SILENCE,10809.102452886398,-4157.133896009194,7658.758182377599,7606.209231163172,-187500.02235174447,-187500.02235174447,-187500.02235174447,-187500.02235174447
$SILENCE,10743.254213721064,-4208.520556511946,7405.714083399068,7625.0964552279065,-187500.02235174447,-187500.02235174447,-187500.02235174447,-187500.02235174447
$SILENCE,10892.854439360433,-4198.238754062504,7782.273922237626,7561.461038763648,-187500.02235174447,-187500.02235174447,-187500.02235174447,-187500.02235174447
$SILENCE,10964.536483828602,-4146.092134248273,8040.168349762959,7556.87893115031,-187500.02235174447,-187500.02235174447,-187500.02235174447,-187500.02235174447
$SILENCE,10845.692258559735,-4151.277738961904,7745.013564230629,7609.383178875826,-187500.02235174447,-187500.02235174447,-187500.02235174447,-187500.02235174447
$SILENCE,10747.411638189751,-4209.995771645996,7391.520725669948,7611.55129808799,-187500.02235174447,-187500.02235174447,-187500.02235174447,-187500.02235174447
$SILENCE,10886.707709635224,-4201.21153607506,7694.81154618401,7576.459059293158,-187500.02235174447,-187500.02235174447,-187500.02235174447,-187500.02235174447
$SILENCE,10987.089393984008,-4133.061067230829,8038.089637528616,7563.11506785334,-187500.02235174447,-187500.02235174447,-187500.02235174447,-187500.02235174447
$SILENCE,10883.310244478018,-4130.1776921960945,7839.650850254399,7591.568838544946,-187500.02235174447,-187500.02235174447,-187500.02235174447,-187500.02235174447
$SILENCE,10737.50981539605,-4193.053149348873,7411.994923591009,7620.313181914471,-187500.02235174447,-187500.02235174447,-187500.02235174447,-187500.02235174447
$SILENCE,10842.183034680253,-4206.128919855228,7605.829251507432,7579.990634917097,-187500.02235174447,-187500.02235174447,-187500.02235174447,-187500.02235174447
$SILENCE,10974.326547900027,-4142.20293071305,8010.999323248783,7562.176294586217,-187500.02235174447,-187500.02235174447,-187500.02235174447,-187500.02235174447
$SILENCE,10899.58231444148,-4128.858939273231,7892.624484613477,7592.529963556524,-187500.02235174447,-187500.02235174447,-187500.02235174447,-187500.02235174447
$SILENCE,10756.620556905336,-4178.479811964013,7472.4787440870705,7633.411304165281,-187500.02235174447,-187500.02235174447,-187500.02235174447,-187500.02235174447
$SILENCE,10828.079083928953,-4195.73535868351,7550.173407813717,7606.499803841091,-187500.02235174447,-187500.02235174447,-187500.02235174447,-187500.02235174447
$SILENCE,10972.449001365781,-4144.482808647491,7984.110174669048,7548.474675235114,-187500.02235174447,-187500.02235174447,-187500.02235174447,-187500.02235174447
$SILENCE,10924.593916486969,-4129.641250329167,7953.443581276368,7569.395908045281,-187500.02235174447,-187500.02235174447,-187500.02235174447,-187500.02235174447
$SILENCE,10789.23175206563,-4162.274797233916,7540.115122808829,7641.301469958004,-187500.02235174447,-187500.02235174447,-187500.02235174447,-187500.02235174447
$SILENCE,10801.636970238325,-4201.412701775158,7481.397090124738,7629.7903215635215,-187500.02235174447,-187500.02235174447,-187500.02235174447,-187500.02235174447
$SILENCE,10949.471408065727,-4159.2349599879935,7910.751749366731,7566.803105688466,-187500.02235174447,-187500.02235174447,-187500.02235174447,-187500.02235174447
$SILENCE,10927.92432641081,-4128.076628217295,7973.023709419216,7563.293881808982,-187500.02235174447,-187500.02235174447,-187500.02235174447,-187500.02235174447
$SILENCE,10795.356130046384,-4165.359337968747,7601.135385171818,7606.499803841091,-187500.02235174447,-187500.02235174447,-187500.02235174447,-187500.02235174447
$SILENCE,10782.36976651785,-4203.446710520591,7462.688680015645,7616.781606290532,-187500.02235174447,-187500.02235174447,-187500.02235174447,-187500.02235174447
$SILENCE,10935.92625092581,-4166.231056002504,7856.884045229441,7583.9468936856865,-187500.02235174447,-187500.02235174447,-187500.02235174447,-187500.02235174447
$SILENCE,10967.464562352248,-4119.0241717128965,8032.501701414789,7581.018815162041,-187500.02235174447,-187500.02235174447,-187500.02235174447,-187500.02235174447
$SILENCE,10828.682581029247,-4141.465323146024,7681.780479166566,7620.626106336846,-187500.02235174447,-187500.02235174447,-187500.02235174447,-187500.02235174447
$SILENCE,10765.069516309442,-4196.45061450608,7403.188336275618,7626.638725595323,-187500.02235174447,-187500.02235174447,-187500.02235174447,-187500.02235174447
$SILENCE,10913.328637281495,-4175.9093613516525,7770.561608143045,7564.903207409765,-187500.02235174447,-187500.02235174447,-187500.02235174447,-187500.02235174447
$SILENCE,10971.30906239856,-4133.128122464195,8026.600840878587,7550.575739213913,-187500.02235174447,-187500.02235174447,-187500.02235174447,-187500.02235174447
$SILENCE,10848.106246960908,-4140.928881279097,7759.497494637668,7596.195649647195,-187500.02235174447,-187500.02235174447,-187500.02235174447,-187500.02235174447
$SILENCE,10743.768303843535,-4189.476870236024,7413.201917791595,7630.639687852823,-187500.02235174447,-187500.02235174447,-187500.02235174447,-187500.02235174447
$SILENCE,10863.528950635071,-4192.337893526304,7683.859191400909,7575.542637770491,-187500.02235174447,-187500.02235174447,-187500.02235174447,-187500.02235174447
$SILENCE,10969.610329819958,-4134.625689342701,8024.678590855431,7556.789524172488,-187500.02235174447,-187500.02235174447,-187500.02235174447,-187500.02235174447
$SILENCE,10885.29954973454,-4126.668468316611,7824.921050658352,7591.12180365584,-187500.02235174447,-187500.02235174447,-187500.02235174447,-187500.02235174447
$SILENCE,10771.32800475693,-4173.718890395033,7426.344743531316,7626.638725595323,-187500.02235174447,-187500.02235174447,-187500.02235174447,-187500.02235174447
$SILENCE,10859.013898255098,-4203.714931454055,7587.322007098438,7581.398794817781,-187500.02235174447,-187500.02235174447,-187500.02235174447,-187500.02235174447
$SILENCE,10987.625835850935,-4142.806427813342,8005.791366790697,7562.06453586394,-187500.02235174447,-187500.02235174447,-187500.02235174447,-187500.02235174447
$SILENCE,10924.571564742513,-4122.108712447728,7911.623467400488,7597.536754314513,-187500.02235174447,-187500.02235174447,-187500.02235174447,-187500.02235174447
$SILENCE,10768.444629722195,-4176.512858451946,7471.942302220143,7622.123673215351,-187500.02235174447,-187500.02235174447,-187500.02235174447,-187500.02235174447
$SILENCE,10822.200575137207,-4209.21346059006,7515.5058521635365,7589.490126310602,-187500.02235174447,-187500.02235174447,-187500.02235174447,-187500.02235174447
$SILENCE,10981.7920305481,-4153.82583782981,7953.890616165473,7554.688460193689,-187500.02235174447,-187500.02235174447,-187500.02235174447,-187500.02235174447
$SILENCE,10949.382001087904,-4120.544090335857,7959.992642401772,7577.375480815826,-187500.02235174447,-187500.02235174447,-187500.02235174447,-187500.02235174447
$SILENCE,10786.147211330797,-4165.53815192439,7538.081114063396,7615.909888256775,-187500.02235174447,-187500.02235174447,-187500.02235174447,-187500.02235174447
$SILENCE,10782.190952562209,-4210.755730957476,7438.548796003914,7602.141213672307,-187500.02235174447,-187500.02235174447,-187500.02235174447,-187500.02235174447
$SILENCE,10961.094315182485,-4168.957968826052,7890.65753110141,7542.640869932279,-187500.02235174447,-187500.02235174447,-187500.02235174447,-187500.02235174447
$SILENCE,10973.208960677262,-4128.858939273231,7993.967293973839,7543.981974599597,-187500.02235174447,-187500.02235174447,-187500.02235174447,-187500.02235174447
$SILENCE,10830.403665352305,-4156.932730309097,7619.664981325267,7599.011969448563,-187500.02235174447,-187500.02235174447,-187500.02235174447,-187500.02235174447
$SILENCE,10791.75749918908,-4206.218326833049,7426.255336553495,7616.871013268354,-187500.02235174447,-187500.02235174447,-187500.02235174447,-187500.02235174447
$SILENCE,10936.149768370364,-4180.6032276872675,7835.0016874076955,7556.744820683578,-187500.02235174447,-187500.02235174447,-187500.02235174447,-187500.02235174447
$SILENCE,10965.40820186236,-4120.924069991597,8033.663992126464,7558.35414628436,-187500.02235174447,-187500.02235174447,-187500.02235174447,-187500.02235174447
$SILENCE,10841.892462002334,-4134.268061431416,7703.707540477221,7619.9332022587305,-187500.02235174447,-187500.02235174447,-187500.02235174447,-187500.02235174447
$SILENCE,10777.586493204415,-4200.8539081637755,7392.370091959249,7635.51236814408,-187500.02235174447,-187500.02235174447,-187500.02235174447,-187500.02235174447
$SILENCE,10921.665837963325,-4187.532268468412,7764.303119695559,7594.318103112949,-187500.02235174447,-187500.02235174447,-187500.02235174447,-187500.02235174447
$SILENCE,10992.766737075655,-4128.970697995508,8054.6522801699975,7572.0334138910075,-187500.02235174447,-187500.02235174447,-187500.02235174447,-187500.02235174447
$SILENCE,10892.876791104889,-4134.379820153692,7783.391509460392,7590.495954811091,-187500.02235174447,-187500.02235174447,-187500.02235174447,-187500.02235174447
$SILENCE,10806.710816229679,-4196.048283105884,7449.545854275925,7619.597926091901,-187500.02235174447,-187500.02235174447,-187500.02235174447,-187500.02235174447
$SILENCE,10908.970047112709,-4203.044379120395,7679.18767680975,7597.939085714708,-187500.02235174447,-187500.02235174447,-187500.02235174447,-187500.02235174447
$SILENCE,10977.634606079413,-4135.72092482101,8021.30347744268,7560.991652130086,-187500.02235174447,-187500.02235174447,-187500.02235174447,-187500.02235174447
$SILENCE,10889.926360836787,-4128.233090428483,7853.486580072235,7578.694233738689,-187500.02235174447,-187500.02235174447,-187500.02235174447,-187500.02235174447
$SILENCE,10767.036469821509,-4182.704291666066,7440.873377427266,7627.599850606901,-187500.02235174447,-187500.02235174447,-187500.02235174447,-187500.02235174447
$SILENCE,10844.462912614694,-4201.747977941987,7596.329760113927,7598.944914215197,-187500.02235174447,-187500.02235174447,-187500.02235174447,-187500.02235174447
$SILENCE,10973.946568244288,-4145.063954003329,7996.403634119468,7517.763378353522,-187500.02235174447,-187500.02235174447,-187500.02235174447,-187500.02235174447
$SILENCE,10931.321791568016,-4123.24865141495,7903.666246374399,7519.305648720939,-187500.02235174447,-187500.02235174447,-187500.02235174447,-187500.02235174447
$SILENCE,10780.916903128256,-4165.962835069041,7467.315491117894,7586.562047786957,-187500.02235174447,-187500.02235174447,-187500.02235174447,-187500.02235174447
$SILENCE,10814.422168066762,-4205.190146588105,7491.544782107447,7590.831230977921,-187500.02235174447,-187500.02235174447,-187500.02235174447,-187500.02235174447
$SILENCE,10981.590864848002,-4157.424468687113,7952.594214987066,7577.353129071371,-187500.02235174447,-187500.02235174447,-187500.02235174447,-187500.02235174447
$SILENCE,10962.815399505544,-4122.6228025702,7976.354119343057,7601.001274705086,-187500.02235174447,-187500.02235174447,-187500.02235174447,-187500.02235174447
$SILENCE,10805.414415051273,-4156.820971586821,7570.848771434877,7612.668885310756,-187500.02235174447,-187500.02235174447,-187500.02235174447,-187500.02235174447
$SILENCE,10788.672958454246,-4200.0939488522945,7454.820865967377,7603.012931706064,-187500.02235174447,-187500.02235174447,-187500.02235174447,-187500.02235174447
$SILENCE,10952.891224967389,-4160.531361166401,7900.13467075046,7558.197684073172,-187500.02235174447,-187500.02235174447,-187500.02235174447,-187500.02235174447
$SILENCE,10926.180890343296,-4114.397360610647,8005.500794112778,7551.156884569751,-187500.02235174447,-187500.02235174447,-187500.02235174447,-187500.02235174447
$SILENCE,10799.938237659722,-4142.135875479684,7630.952612275197,7582.426975062725,-187500.02235174447,-187500.02235174447,-187500.02235174447,-187500.02235174447
$SILENCE,10795.959627146678,-4201.0327221194175,7425.607135964291,7602.476489839136,-187500.02235174447,-187500.02235174447,-187500.02235174447,-187500.02235174447
$SILENCE,10940.486006794692,-4173.2048002725605,7832.878271684441,7560.54461724098,-187500.02235174447,-187500.02235174447,-187500.02235174447,-187500.02235174447
$SILENCE,10976.271149667638,-4114.9785059664855,8046.918576588461,7555.515474738536,-187500.02235174447,-187500.02235174447,-187500.02235174447,-187500.02235174447
$SILENCE,10852.9118720188,-4130.937651507575,7732.876566991397,7577.040204648996,-187500.02235174447,-187500.02235174447,-187500.02235174447,-187500.02235174447
$SILENCE,10769.606920433871,-4189.007483602462,7415.9511823595985,7590.764175744555,-187500.02235174447,-187500.02235174447,-187500.02235174447,-187500.02235174447
$SILENCE,10908.545363968058,-4177.026948574418,7748.925119510308,7548.184102557195,-187500.02235174447,-187500.02235174447,-187500.02235174447,-187500.02235174447
$SILENCE,10995.98538827722,-4118.9124129906195,8060.195512794914,7548.675840935211,-187500.02235174447,-187500.02235174447,-187500.02235174447,-187500.02235174447
$SILENCE,10859.684450588758,-4117.459549601024,7813.476957497234,7602.901172983787,-187500.02235174447,-187500.02235174447,-187500.02235174447,-187500.02235174447
$SILENCE,10752.038449291998,-4177.898666608175,7425.025990608453,7611.081911454429,-187500.02235174447,-187500.02235174447,-187500.02235174447,-187500.02235174447
$SILENCE,10919.49771875116,-4191.712044681554,7670.515199961091,7553.0120793595415,-187500.02235174447,-187500.02235174447,-187500.02235174447,-187500.02235174447
$SILENCE,11012.570382663058,-4130.423561385102,8044.504588187288,7530.995611071064,-187500.02235174447,-187500.02235174447,-187500.02235174447,-187500.02235174447
$SILENCE,10901.01282608662,-4115.000857710941,7890.366958423491,7570.513495268046,-187500.02235174447,-187500.02235174447,-187500.02235174447,-187500.02235174447
$SILENCE,10769.159885544765,-4164.666433890633,7479.7654127795,7618.882670269331,-187500.02235174447,-187500.02235174447,-187500.02235174447,-187500.02235174447
$SILENCE,10851.682526073757,-4191.443823748091,7596.106242669373,7587.5902280319015,-187500.02235174447,-187500.02235174447,-187500.02235174447,-187500.02235174447
$SILENCE,10995.337187688016,-4137.352602166248,8012.116910471548,7538.282279763494,-187500.02235174447,-187500.02235174447,-187500.02235174447,-187500.02235174447
$SILENCE,10950.03020167711,-4113.883270488175,7957.779819700697,7567.9206929112315,-187500.02235174447,-187500.02235174447,-187500.02235174447,-187500.02235174447
$SILENCE,10800.944066160211,-4156.865675075731,7538.841073374877,7623.151853460295,-187500.02235174447,-187500.02235174447,-187500.02235174447,-187500.02235174447
$SILENCE,10845.044057970532,-4195.780062172421,7527.1287592802955,7602.565896816957,-187500.02235174447,-187500.02235174447,-187500.02235174447,-187500.02235174447
$SILENCE,11003.115594758463,-4148.372012182715,7963.1442383699705,7542.7302769101,-187500.02235174447,-187500.02235174447,-187500.02235174447,-187500.02235174447
$SILENCE,11000.32162670155,-4113.033904198874,8006.506622613267,7546.418314745226,-187500.02235174447,-187500.02235174447,-187500.02235174447,-187500.02235174447
$SILENCE,10844.753485292613,-4146.762686581932,7604.421091606748,7597.782623503522,-187500.02235174447,-187500.02235174447,-187500.02235174447,-187500.02235174447
$SILENCE,10833.555261320504,-4197.702312195577,7474.7139185326005,7602.565896816957,-187500.02235174447,-187500.02235174447,-187500.02235174447,-187500.02235174447
$SILENCE,11014.738501875223,-4158.810276843343,7909.365941210502,7555.895454394276,-187500.02235174447,-187500.02235174447,-187500.02235174447,-187500.02235174447
$SILENCE,11009.709359372779,-4107.71418901851,8045.935099832428,7556.901282894765,-187500.02235174447,-187500.02235174447,-187500.02235174447,-187500.02235174447
$SILENCE,10828.660229284791,-4123.494520603957,7689.581237981468,7619.687333069723,-187500.02235174447,-187500.02235174447,-187500.02235174447,-187500.02235174447
$SILENCE,10770.031603578522,-4173.942407839586,7447.511845530492,7646.643536882822,-187500.02235174447,-187500.02235174447,-187500.02235174447,-187500.02235174447
$SILENCE,10919.028332117598,-4156.39628844217,7828.676143726843,7584.081004152418,-187500.02235174447,-187500.02235174447,-187500.02235174447,-187500.02235174447
$SILENCE,10996.141850488408,-4105.903697717631,8062.9894808518275,7562.131591097306,-187500.02235174447,-187500.02235174447,-187500.02235174447,-187500.02235174447
$SILENCE,10879.845724087445,-4117.660715301123,7776.238951234693,7606.768024774555,-187500.02235174447,-187500.02235174447,-187500.02235174447,-187500.02235174447
$SILENCE,10772.311481512963,-4176.624617174222,7438.7276099595565,7627.376333162348,-187500.02235174447,-187500.02235174447,-187500.02235174447,-187500.02235174447
$SILENCE,10907.047797089554,-4172.243675260982,7741.660802562333,7575.877913937321,-187500.02235174447,-187500.02235174447,-187500.02235174447,-187500.02235174447
$SILENCE,10989.235161451717,-4112.206889654028,8057.937986604928,7577.263722093549,-187500.02235174447,-187500.02235174447,-187500.02235174447,-187500.02235174447
$SILENCE,10857.158703465308,-4106.283677373371,7824.094036113505,7625.409379650281,-187500.02235174447,-187500.02235174447,-187500.02235174447,-187500.02235174447
$SILENCE,10765.583606431916,-4162.431259445102,7434.078447112853,7636.22762396665,-187500.02235174447,-187500.02235174447,-187500.02235174447,-187500.02235174447
$SILENCE,10955.506379068658,-4174.702367151066,7652.499693930113,7583.633969263312,-187500.02235174447,-187500.02235174447,-187500.02235174447,-187500.02235174447
$SILENCE,11069.14264787944,-4115.2690786444045,8047.387963222023,7552.855617148354,-187500.02235174447,-187500.02235174447,-187500.02235174447,-187500.02235174447
$SILENCE,10918.78246292859,-4105.926049462086,7920.966496582806,7584.192762874694,-187500.02235174447,-187500.02235174447,-187500.02235174447,-187500.02235174447
$SILENCE,10777.027699593033,-4154.161113996639,7498.697340333145,7624.783530805533,-187500.02235174447,-187500.02235174447,-187500.02235174447,-187500.02235174447
$SILENCE,10852.934223763255,-4181.385538743203,7583.276341352027,7594.474565324136,-187500.02235174447,-187500.02235174447,-187500.02235174447,-187500.02235174447
$SILENCE,10999.56166739007,-4126.7802270388875,8010.328770915124,7551.849788647865,-187500.02235174447,-187500.02235174447,-187500.02235174447,-187500.02235174447
$SILENCE,10959.015602948142,-4105.031979683874,7965.848799449062,7568.390079544793,-187500.02235174447,-187500.02235174447,-187500.02235174447,-187500.02235174447
$SILENCE,10812.477566299149,-4145.622747614711,7544.294899021972,7614.971114989653,-187500.02235174447,-187500.02235174447,-187500.02235174447,-187500.02235174447
$SILENCE,10827.073255428464,-4184.49243122249,7507.928610793187,7606.432748607725,-187500.02235174447,-187500.02235174447,-187500.02235174447,-187500.02235174447
$SILENCE,10978.79689679109,-4138.29137543337,7949.599081230054,7550.30751828045,-187500.02235174447,-187500.02235174447,-187500.02235174447,-187500.02235174447
$SILENCE,10964.044745450587,-4099.24287786995,8013.2121459498585,7556.431896261203,-187500.02235174447,-187500.02235174447,-187500.02235174447,-187500.02235174447
$SILENCE,10795.669054468759,-4131.138817207672,7615.082873711929,7609.0702544534515,-187500.02235174447,-187500.02235174447,-187500.02235174447,-187500.02235174447
$SILENCE,10795.534944002027,-4186.97347485703,7448.8082467089,7591.12180365584,-187500.02235174447,-187500.02235174447,-187500.02235174447,-187500.02235174447
$SILENCE,11028.864804370976,-4157.268006475926,7880.755708307709,7527.575794169402,-187500.02235174447,-187500.02235174447,-187500.02235174447,-187500.02235174447
$SILENCE,11025.243821769218,-4105.456662828525,8049.757248134286,7539.645736175268,-187500.02235174447,-187500.02235174447,-187500.02235174447,-187500.02235174447
$SILENCE,10868.647500115336,-4126.8919857611645,7702.545249765546,7600.286018882516,-187500.02235174447,-187500.02235174447,-187500.02235174447,-187500.02235174447
$SILENCE,10799.491202770616,-4187.085233579306,7434.547833746414,7612.802995777488,-187500.02235174447,-187500.02235174447,-187500.02235174447,-187500.02235174447
$SILENCE,10961.049611693576,-4167.72862288101,7801.518774213645,7548.474675235114,-187500.02235174447,-187500.02235174447,-187500.02235174447,-187500.02235174447
$SILENCE,11022.494557201215,-4114.24089839946,8051.254815012791,7530.995611071064,-187500.02235174447,-187500.02235174447,-187500.02235174447,-187500.02235174447
$SILENCE,10891.133355037375,-4125.349715393748,7774.629625633911,7578.090736638396,-187500.02235174447,-187500.02235174447,-187500.02235174447,-187500.02235174447
$SILENCE,10795.42318527975,-4179.642102675689,7426.121226086763,7606.589210818913,-187500.02235174447,-187500.02235174447,-187500.02235174447,-187500.02235174447
$SILENCE,10930.852404934456,-4172.735413638999,7718.973781940196,7557.325966039416,-187500.02235174447,-187500.02235174447,-187500.02235174447,-187500.02235174447
$SILENCE,11028.954211348799,-4117.079569945285,8065.537579719732,7532.850805860854,-187500.02235174447,-187500.02235174447,-187500.02235174447,-187500.02235174447
$SILENCE,10933.668724735824,-4118.510081590424,7855.654699284399,7568.725355711622,-187500.02235174447,-187500.02235174447,-187500.02235174447,-187500.02235174447
$SILENCE,10797.904228914289,-4172.042509560884,7439.353458804305,7600.196611904695,-187500.02235174447,-187500.02235174447,-187500.02235174447,-187500.02235174447
$SILENCE,10902.420985987304,-4182.614884688244,7630.013839008074,7562.913902153243,-187500.02235174447,-187500.02235174447,-187500.02235174447,-187500.02235174447
$SILENCE,11035.860900385487,-4123.159244437128,8033.507529915278,7533.320192494416,-187500.02235174447,-187500.02235174447,-187500.02235174447,-187500.02235174447
$SILENCE,10964.782353017612,-4109.9270117195865,7922.262897761214,7569.485315023103,-187500.02235174447,-187500.02235174447,-187500.02235174447,-187500.02235174447
$SILENCE,10816.23265936764,-4160.866637333231,7498.429119399681,7614.233507422628,-187500.02235174447,-187500.02235174447,-187500.02235174447,-187500.02235174447
$SILENCE,10879.935131065266,-4196.696483695088,7555.202550316161,7579.007158161064,-187500.02235174447,-187500.02235174447,-187500.02235174447,-187500.02235174447
$SILENCE,11030.18355729384,-4143.834608058287,7985.875962481018,7516.757549853033,-187500.02235174447,-187500.02235174447,-187500.02235174447,-187500.02235174447
$SILENCE,10990.12923122993,-4110.530508819879,7978.164610643937,7539.779846642,-187500.02235174447,-187500.02235174447,-187500.02235174447,-187500.02235174447
$SILENCE,10832.348267119916,-4151.411849428636,7564.1655998427395,7590.40654783327,-187500.02235174447,-187500.02235174447,-187500.02235174447,-187500.02235174447
$SILENCE,10857.918662776789,-4197.076463350829,7490.002511740031,7575.408527303759,-187500.02235174447,-187500.02235174447,-187500.02235174447,-187500.02235174447
$SILENCE,11030.831757883045,-4150.651890117156,7924.878051862485,7533.275489005505,-187500.02235174447,-187500.02235174447,-187500.02235174447,-187500.02235174447
$SILENCE,11014.202060008296,-4112.408055354125,8003.511488856255,7543.222015288117,-187500.02235174447,-187500.02235174447,-187500.02235174447,-187500.02235174447
$SILENCE,10854.923529019778,-4142.649965602156,7618.525042358046,7584.997425675086,-187500.02235174447,-187500.02235174447,-187500.02235174447,-187500.02235174447
$SILENCE,10828.101435673409,-4192.896687137686,7434.592537235325,7594.228696135127,-187500.02235174447,-187500.02235174447,-187500.02235174447,-187500.02235174447
$SILENCE,11000.656902868379,-4169.360300226248,7856.146437662415,7541.29976526496,-187500.02235174447,-187500.02235174447,-187500.02235174447,-187500.02235174447
$SILENCE,11036.866728885976,-4118.219508912505,8046.739762632819,7530.995611071064,-187500.02235174447,-187500.02235174447,-187500.02235174447,-187500.02235174447
$SILENCE,10899.515259208114,-4131.362334652225,7708.535517279568,7577.6660534937455,-187500.02235174447,-187500.02235174447,-187500.02235174447,-187500.02235174447
talvez,10823.340514104428,-4184.514782966946,7416.219403293062,7602.007103205575,-187500.02235174447,-187500.02235174447,-187500.02235174447,-187500.02235174447
talvez,10975.51119035616,-4168.846210103776,7773.355576199959,7545.703058922656,-187500.02235174447,-187500.02235174447,-187500.02235174447,-187500.02235174447
talvez,11047.372048779971,-4116.00668621143,8046.829169610641,7530.414465715226,-187500.02235174447,-187500.02235174447,-187500.02235174447,-187500.02235174447
talvez,10930.360666556438,-4123.539224092868,7786.364291472947,7583.633969263312,-187500.02235174447,-187500.02235174447,-187500.02235174447,-187500.02235174447
talvez,10817.23848786813,-4179.619750931233,7419.639220194724,7615.194632434205,-187500.02235174447,-187500.02235174447,-187500.02235174447,-187500.02235174447
talvez,10947.191530131286,-4181.318483509837,7691.771708938088,7570.40173654577,-187500.02235174447,-187500.02235174447,-187500.02235174447,-187500.02235174447
talvez,11050.680106959357,-4129.529491606891,8040.883605585529,7534.482483206092,-187500.02235174447,-187500.02235174447,-187500.02235174447,-187500.02235174447
talvez,10950.566643544036,-4127.33902065027,7853.106600416494,7562.198646330673,-187500.02235174447,-187500.02235174447,-187500.02235174447,-187500.02235174447
talvez,10827.944973462221,-4171.304901993859,7460.945243948132,7608.377350375337,-187500.02235174447,-187500.02235174447,-187500.02235174447,-187500.02235174447
talvez,10930.360666556438,-4183.330140510814,7622.682466826734,7574.983844159108,-187500.02235174447,-187500.02235174447,-187500.02235174447,-187500.02235174447
talvez,11066.885121689455,-4130.736485807477,8020.297648942191,7540.8080268869435,-187500.02235174447,-187500.02235174447,-187500.02235174447,-187500.02235174447
talvez,10994.286655698617,-4115.425540855592,7923.939278595362,7571.496972024081,-187500.02235174447,-187500.02235174447,-187500.02235174447,-187500.02235174447
talvez,10838.539700334037,-4162.520666422924,7500.530183378481,7615.5299086010355,-187500.02235174447,-187500.02235174447,-187500.02235174447,-187500.02235174447
talvez,10889.121698036397,-4195.288323794403,7541.322117009416,7582.7175477406445,-187500.02235174447,-187500.02235174447,-187500.02235174447,-187500.02235174447
talvez,11048.355525536004,-4144.393401669669,7976.264712365236,7529.498044192558,-187500.02235174447,-187500.02235174447,-187500.02235174447,-187500.02235174447
talvez,11017.04073155412,-4113.43623559907,7977.739927499286,7554.062611348941,-187500.02235174447,-187500.02235174447,-187500.02235174447,-187500.02235174447
talvez,10861.740811078645,-4155.055183774851,7565.707870210156,7605.605734062879,-187500.02235174447,-187500.02235174447,-187500.02235174447,-187500.02235174447
talvez,10864.981814024666,-4200.83155641932,7474.5351045769585,7593.9828269461195,-187500.02235174447,-187500.02235174447,-187500.02235174447,-187500.02235174447
talvez,11031.882289872443,-4154.96577679703,7919.1783570263815,7541.523282709513,-187500.02235174447,-187500.02235174447,-187500.02235174447,-187500.02235174447
talvez,11035.369162007471,-4110.016418697407,8027.4949106568,7549.145227568773,-187500.02235174447,-187500.02235174447,-187500.02235174447,-187500.02235174447
talvez,10883.354947966927,-4139.00663125594,7651.605624151901,7600.576591560435,-187500.02235174447,-187500.02235174447,-187500.02235174447,-187500.02235174447
talvez,10844.217043425686,-4193.701349938077,7442.929737917154,7611.081911454429,-187500.02235174447,-187500.02235174447,-187500.02235174447,-187500.02235174447
talvez,11004.389644192415,-4162.788887356387,7848.345678847513,7554.867274149332,-187500.02235174447,-187500.02235174447,-187500.02235174447,-187500.02235174447
talvez,11043.728714433755,-4111.134005920173,8047.2538527552915,7551.335698525393,-187500.02235174447,-187500.02235174447,-187500.02235174447,-187500.02235174447
talvez,10913.529802981593,-4130.289450918371,7728.652087289344,7597.492050825603,-187500.02235174447,-187500.02235174447,-187500.02235174447,-187500.02235174447
talvez,10829.978982207655,-4187.196992301582,7429.6304499662465,7612.423016121747,-187500.02235174447,-187500.02235174447,-187500.02235174447,-187500.02235174447
talvez,10976.405260134372,-4173.3836142282025,7770.606311631956,7554.286128793494,-187500.02235174447,-187500.02235174447,-187500.02235174447,-187500.02235174447
talvez,11057.8103134406,-4121.885195003176,8056.038088326227,7536.248271018061,-187500.02235174447,-187500.02235174447,-187500.02235174447,-187500.02235174447
talvez,10939.726047483213,-4124.947383993553,7803.552782959078,7582.672844251734,-187500.02235174447,-187500.02235174447,-187500.02235174447,-187500.02235174447
talvez,10826.983848450644,-4181.20672478756,7432.37971453425,7611.439539365714,-187500.02235174447,-187500.02235174447,-187500.02235174447,-187500.02235174447
talvez,10953.941756956787,-4187.264047534949,7679.210028554205,7556.253082305561,-187500.02235174447,-187500.02235174447,-187500.02235174447,-187500.02235174447
talvez,11064.962871666297,-4129.462436373525,8043.945794575906,7525.228861001595,-187500.02235174447,-187500.02235174447,-187500.02235174447,-187500.02235174447
talvez,10975.801763034078,-4116.788997267366,7876.374766394469,7561.505742252558,-187500.02235174447,-187500.02235174447,-187500.02235174447,-187500.02235174447
talvez,10835.365752621383,-4174.098870050772,7463.538046304947,7603.9070014842755,-187500.02235174447,-187500.02235174447,-187500.02235174447,-187500.02235174447
talvez,10919.073035606509,-4194.058977849362,7594.07223392394,7567.697175466678,-187500.02235174447,-187500.02235174447,-187500.02235174447,-187500.02235174447
talvez,11063.28649083215,-4135.475055632002,8012.541593616199,7526.704076135645,-187500.02235174447,-187500.02235174447,-187500.02235174447,-187500.02235174447
talvez,11001.394510435404,-4114.665581544111,7941.0160113592165,7550.039297346985,-187500.02235174447,-187500.02235174447,-187500.02235174447,-187500.02235174447
talvez,10851.637822584848,-4158.430297187602,7538.192872785673,7598.520231070546,-187500.02235174447,-187500.02235174447,-187500.02235174447,-187500.02235174447
talvez,10887.937055580265,-4190.437995247602,7540.405695486748,7583.745727985589,-187500.02235174447,-187500.02235174447,-187500.02235174447,-187500.02235174447
talvez,11040.733580676744,-4148.684936605088,7963.211293603336,7531.509701193536,-187500.02235174447,-187500.02235174447,-187500.02235174447,-187500.02235174447
talvez,11027.769568892667,-4109.010590196918,8003.15386094497,7551.626271203312,-187500.02235174447,-187500.02235174447,-187500.02235174447,-187500.02235174447
talvez,10867.328747192472,-4150.741297094977,7580.392966317292,7599.771928760044,-187500.02235174447,-187500.02235174447,-187500.02235174447,-187500.02235174447
talvez,10861.159665722807,-4193.880163893719,7481.19592442464,7585.153887886273,-187500.02235174447,-187500.02235174447,-187500.02235174447,-187500.02235174447
talvez,11022.583964179035,-4154.7199076080215,7895.2843422036585,7533.454302961148,-187500.02235174447,-187500.02235174447,-187500.02235174447,-187500.02235174447
talvez,11040.487711487736,-4109.52468031939,8044.348125976101,7533.007268072041,-187500.02235174447,-187500.02235174447,-187500.02235174447,-187500.02235174447
talvez,10885.835991601467,-4145.578044125801,7657.886464343842,7588.372539087837,-187500.02235174447,-187500.02235174447,-187500.02235174447,-187500.02235174447
talvez,10854.945880764233,-4191.622637703734,7459.961767192098,7595.301579868982,-187500.02235174447,-187500.02235174447,-187500.02235174447,-187500.02235174447
talvez,10997.304141200084,-4165.269930990927,7804.603314948477,7533.96839308362,-187500.02235174447,-187500.02235174447,-187500.02235174447,-187500.02235174447
talvez,11039.034848098141,-4120.298221146849,8031.674686869942,7518.769206854011,-187500.02235174447,-187500.02235174447,-187500.02235174447,-187500.02235174447
talvez,10915.54145998257,-4140.81712255682,7752.032011989595,7560.455210263159,-187500.02235174447,-187500.02235174447,-187500.02235174447,-187500.02235174447
talvez,10836.773912522069,-4179.507992208957,7415.392388748216,7595.145117657795,-187500.02235174447,-187500.02235174447,-187500.02235174447,-187500.02235174447
talvez,10982.194361948295,-4186.30292252337,7736.251680404149,7549.815779902432,-187500.02235174447,-187500.02235174447,-187500.02235174447,-187500.02235174447
talvez,11074.819990971087,-4113.123311176695,8063.145943063015,7540.740971653578,-187500.02235174447,-187500.02235174447,-187500.02235174447,-187500.02235174447
talvez,10977.41108863486,-4080.802688694321,7856.146437662415,7585.936198942209,-187500.02235174447,-187500.02235174447,-187500.02235174447,-187500.02235174447
talvez,10802.106356871887,-4201.680922708621,7414.051284080897,7545.457189733647,-187500.02235174447,-187500.02235174447,-187500.02235174447,-187500.02235174447
talvez,10926.225593832207,-4206.9559344000745,7663.6085109244,7519.484462676581,-187500.02235174447,-187500.02235174447,-187500.02235174447,-187500.02235174447
talvez,11046.969717379776,-4141.152398723651,8028.746608346297,7509.537936393969,-187500.02235174447,-187500.02235174447,-187500.02235174447,-187500.02235174447
talvez,10960.9378529713,-4125.774398538399,7920.206537271326,7559.583492229402,-187500.02235174447,-187500.02235174447,-187500.02235174447,-187500.02235174447
talvez,10834.42697935426,-4153.423506429614,7520.5573464104355,7618.949725502697,-187500.02235174447,-187500.02235174447,-187500.02235174447,-187500.02235174447
talvez,10881.611511899413,-4211.716855969054,7507.928610793187,7533.7001721501565,-187500.02235174447,-187500.02235174447,-187500.02235174447,-187500.02235174447
talvez,11028.864804370976,-4167.795678114376,7927.359095497024,7477.731404034067,-187500.02235174447,-187500.02235174447,-187500.02235174447,-187500.02235174447
talvez,10969.655033308869,-4143.432276658092,7906.616676642499,7531.152073282251,-187500.02235174447,-187500.02235174447,-187500.02235174447,-187500.02235174447
talvez,10796.406662035783,-4189.275704535926,7488.661407072713,7579.945931428187,-187500.02235174447,-187500.02235174447,-187500.02235174447,-187500.02235174447
talvez,10825.083950171942,-4227.318373598859,7467.583712051358,7553.325003781915,-187500.02235174447,-187500.02235174447,-187500.02235174447,-187500.02235174447
talvez,10999.852240067989,-4178.815088130843,7918.463101203812,7503.39120666876,-187500.02235174447,-187500.02235174447,-187500.02235174447,-187500.02235174447
talvez,10983.93779801581,-4131.988183496975,7967.547532027666,7524.066570289919,-187500.02235174447,-187500.02235174447,-187500.02235174447,-187500.02235174447
talvez,10840.48430210165,-4166.6333874027005,7583.701024496678,7573.352166813871,-187500.02235174447,-187500.02235174447,-187500.02235174447,-187500.02235174447
talvez,10827.207365895196,-4239.4777225825455,7441.923909416665,7553.883797393299,-187500.02235174447,-187500.02235174447,-187500.02235174447,-187500.02235174447
talvez,11003.696740114301,-4203.334951798314,7900.760519595208,7497.088014732363,-187500.02235174447,-187500.02235174447,-187500.02235174447,-187500.02235174447
talvez,11026.830795625543,-4144.527512136401,8035.206262493881,7498.987913011064,-187500.02235174447,-187500.02235174447,-187500.02235174447,-187500.02235174447
talvez,10875.464782174204,-4142.873483046708,7643.044906025519,7576.92844592672,-187500.02235174447,-187500.02235174447,-187500.02235174447,-187500.02235174447
talvez,10778.36880426035,-4239.991812705018,7384.859905822266,7567.741878955589,-187500.02235174447,-187500.02235174447,-187500.02235174447,-187500.02235174447
talvez,10897.324788251495,-4220.277574095438,7725.791063999065,7487.342654149849,-187500.02235174447,-187500.02235174447,-187500.02235174447,-187500.02235174447
talvez,10996.27596095514,-4138.805465555843,8032.613460137065,7495.925724020687,-187500.02235174447,-187500.02235174447,-187500.02235174447,-187500.02235174447
talvez,10839.009086967599,-4178.457460219558,7711.485947547669,7521.496119677558,-187500.02235174447,-187500.02235174447,-187500.02235174447,-187500.02235174447
talvez,10783.241484551607,-4237.510769070479,7386.201010489584,7578.940102927698,-187500.02235174447,-187500.02235174447,-187500.02235174447,-187500.02235174447
talvez,10864.557130880015,-4250.966519232574,7641.636746124834,7498.876154288788,-187500.02235174447,-187500.02235174447,-187500.02235174447,-187500.02235174447
talvez,10994.688987098813,-4181.586704443301,7985.227761891814,7500.708997334123,-187500.02235174447,-187500.02235174447,-187500.02235174447,-187500.02235174447
talvez,10928.01373338863,-4179.9550270980635,7768.482895908702,7590.607713533368,-187500.02235174447,-187500.02235174447,-187500.02235174447,-187500.02235174447
talvez,10759.213359262152,-4200.675094208133,7430.345705788816,7581.175277373229,-187500.02235174447,-187500.02235174447,-187500.02235174447,-187500.02235174447
talvez,10843.23356666965,-4232.88395796823,7579.11891688334,7510.834337572377,-187500.02235174447,-187500.02235174447,-187500.02235174447,-187500.02235174447
talvez,10961.273129138128,-4210.68867572411,7890.545772379133,7434.771351190967,-187500.02235174447,-187500.02235174447,-187500.02235174447,-187500.02235174447
talvez,10937.848500948967,-4161.827762344809,7845.439952068324,7511.795462583955,-187500.02235174447,-187500.02235174447,-187500.02235174447,-187500.02235174447
talvez,10776.915940870756,-4224.904385197686,7441.52157801647,7557.705945695156,-187500.02235174447,-187500.02235174447,-187500.02235174447,-187500.02235174447
talvez,10828.771988007067,-4284.2035632376155,7485.778032037978,7513.784767840478,-187500.02235174447,-187500.02235174447,-187500.02235174447,-187500.02235174447
talvez,10994.197248720795,-4199.73632094101,7926.420322229901,7506.855727059332,-187500.02235174447,-187500.02235174447,-187500.02235174447,-187500.02235174447
talvez,10927.343181054972,-4161.805410600354,7909.723569121787,7505.693436347657,-187500.02235174447,-187500.02235174447,-187500.02235174447,-187500.02235174447
talvez,10778.793487405,-4205.838347177309,7484.280465159472,7595.972132202642,-187500.02235174447,-187500.02235174447,-187500.02235174447,-187500.02235174447
talvez,10766.835304121412,-4257.314414657881,7414.8335951368335,7552.386230514793,-187500.02235174447,-187500.02235174447,-187500.02235174447,-187500.02235174447
talvez,10945.73866674169,-4200.228059319027,7876.84415302803,7507.123947992796,-187500.02235174447,-187500.02235174447,-187500.02235174447,-187500.02235174447
talvez,10961.273129138128,-4168.6897478925885,7968.039270405683,7522.054913288941,-187500.02235174447,-187500.02235174447,-187500.02235174447,-187500.02235174447
talvez,10835.455159599205,-4202.2620680644595,7592.239390878605,7587.679635009723,-187500.02235174447,-187500.02235174447,-187500.02235174447,-187500.02235174447
talvez,10765.158923287265,-4255.123943701261,7391.408966947672,7574.0897743808955,-187500.02235174447,-187500.02235174447,-187500.02235174447,-187500.02235174447
talvez,10930.11479736743,-4233.465103324068,7792.8015938760755,7501.647770601246,-187500.02235174447,-187500.02235174447,-187500.02235174447,-187500.02235174447
talvez,10954.008812190154,-4166.454573447058,7968.754526228253,7513.829471329388,-187500.02235174447,-187500.02235174447,-187500.02235174447,-187500.02235174447
talvez,10809.728301731146,-4180.8938003651865,7649.348097961914,7561.505742252558,-187500.02235174447,-187500.02235174447,-187500.02235174447,-187500.02235174447
talvez,10764.823647120435,-4257.157952446693,7385.038719777909,7571.7428412130885,-187500.02235174447,-187500.02235174447,-187500.02235174447,-187500.02235174447
talvez,10931.813529946034,-4243.612795306778,7757.910520781341,7521.272602233005,-187500.02235174447,-187500.02235174447,-187500.02235174447,-187500.02235174447
talvez,11029.356542748994,-4191.220306303538,8036.077980527638,7560.54461724098,-187500.02235174447,-187500.02235174447,-187500.02235174447,-187500.02235174447
talvez,10887.400613713338,-4199.1551755851715,7743.225424674204,7524.1336255232845,-187500.02235174447,-187500.02235174447,-187500.02235174447,-187500.02235174447
talvez,10755.838245849402,-4255.883903012741,7410.94439160161,7543.467884477125,-187500.02235174447,-187500.02235174447,-187500.02235174447,-187500.02235174447
talvez,10883.466706689205,-4264.288158927937,7683.881543145364,7560.298748051971,-187500.02235174447,-187500.02235174447,-187500.02235174447,-187500.02235174447
talvez,11000.925123801842,-4203.893745409697,8034.803931093685,7478.021976711986,-187500.02235174447,-187500.02235174447,-187500.02235174447,-187500.02235174447
talvez,10890.865134103911,-4177.339872996792,7828.385571048924,7527.262869747027,-187500.02235174447,-187500.02235174447,-187500.02235174447,-187500.02235174447
talvez,10747.07636202292,-4226.737228243021,7422.209670807085,7545.233672289094,-187500.02235174447,-187500.02235174447,-187500.02235174447,-187500.02235174447
talvez,10868.491037904148,-4261.628301337755,7588.394890832293,7509.783805582978,-187500.02235174447,-187500.02235174447,-187500.02235174447,-187500.02235174447
talvez,11006.289542471117,-4215.181376359627,8001.768052788741,7506.833375314877,-187500.02235174447,-187500.02235174447,-187500.02235174447,-187500.02235174447
talvez,10920.615305973924,-4185.989998100996,7912.383426711968,7516.578735897391,-187500.02235174447,-187500.02235174447,-187500.02235174447,-187500.02235174447
talvez,10749.356239957362,-4232.571033545856,7481.307683146916,7556.431896261203,-187500.02235174447,-187500.02235174447,-187500.02235174447,-187500.02235174447
talvez,10791.869257911356,-4264.51167637249,7509.314418949416,7540.562157697936,-187500.02235174447,-187500.02235174447,-187500.02235174447,-187500.02235174447
talvez,10967.911597241355,-4217.416550805157,7940.993659614762,7466.3767178507715,-187500.02235174447,-187500.02235174447,-187500.02235174447,-187500.02235174447
talvez,10957.003945947165,-4180.647931176178,7960.216159846325,7490.918933262698,-187500.02235174447,-187500.02235174447,-187500.02235174447,-187500.02235174447
talvez,10790.975188133143,-4208.006466389474,7564.903207409765,7543.579643199402,-187500.02235174447,-187500.02235174447,-187500.02235174447,-187500.02235174447
talvez,10792.673920711746,-4244.529216829445,7471.8305434978665,7536.851768118355,-187500.02235174447,-187500.02235174447,-187500.02235174447,-187500.02235174447
talvez,10957.473332580726,-4204.1396145987055,7903.666246374399,7472.85872374281,-187500.02235174447,-187500.02235174447,-187500.02235174447,-187500.02235174447
talvez,10949.02437317662,-4162.0512797893625,8005.612552835054,7485.57686633788,-187500.02235174447,-187500.02235174447,-187500.02235174447,-187500.02235174447
talvez,10792.115127100364,-4185.610018445256,7608.667923053256,7537.25409951855,-187500.02235174447,-187500.02235174447,-187500.02235174447,-187500.02235174447
talvez,10795.892571913311,-4224.077370652839,7448.9423571756315,7571.586379001901,-187500.02235174447,-187500.02235174447,-187500.02235174447,-187500.02235174447
talvez,10949.963146443743,-4208.609963489766,7852.011364938184,7515.371741696805,-187500.02235174447,-187500.02235174447,-187500.02235174447,-187500.02235174447
talvez,10997.41589992236,-4145.555692381346,8051.299518501702,7522.837224344877,-187500.02235174447,-187500.02235174447,-187500.02235174447,-187500.02235174447
talvez,10879.242226987151,-4158.206779743049,7748.075753221006,7552.654451448257,-187500.02235174447,-187500.02235174447,-187500.02235174447,-187500.02235174447
talvez,10786.013100864066,-4224.613812519767,7429.742208688523,7540.875082120309,-187500.02235174447,-187500.02235174447,-187500.02235174447,-187500.02235174447
talvez,10921.01763737412,-4206.128919855228,7771.388622687891,7512.890698062265,-187500.02235174447,-187500.02235174447,-187500.02235174447,-187500.02235174447
talvez,10995.292484199106,-4138.6937068335665,8057.960338349383,7526.704076135645,-187500.02235174447,-187500.02235174447,-187500.02235174447,-187500.02235174447
talvez,10888.182924769275,-4149.735468594488,7814.773358675642,7550.508683980547,-187500.02235174447,-187500.02235174447,-187500.02235174447,-187500.02235174447
talvez,10796.831345180433,-4202.887916909208,7453.569168277881,7557.750649184067,-187500.02235174447,-187500.02235174447,-187500.02235174447,-187500.02235174447
talvez,10941.201262617262,-4199.110472096261,7714.950467938241,7542.573814698913,-187500.02235174447,-187500.02235174447,-187500.02235174447,-187500.02235174447
talvez,11012.838603596521,-4157.290358220382,8053.646451669509,7504.665256102712,-187500.02235174447,-187500.02235174447,-187500.02235174447,-187500.02235174447
talvez,10923.409274030839,-4135.117427720717,7880.107507718505,7526.435855202181,-187500.02235174447,-187500.02235174447,-187500.02235174447,-187500.02235174447
talvez,10796.026682380043,-4175.842306118287,7504.799366569444,7600.889515982809,-187500.02235174447,-187500.02235174447,-187500.02235174447,-187500.02235174447
talvez,10896.341311495462,-4200.965666886052,7642.12848450285,7589.9371611997085,-187500.02235174447,-187500.02235174447,-187500.02235174447,-187500.02235174447
talvez,11025.176766535851,-4155.390459941681,8057.759172649286,7513.673009118201,-187500.02235174447,-187500.02235174447,-187500.02235174447,-187500.02235174447
talvez,10983.669577082346,-4114.9785059664855,7987.395881103979,7530.660334904234,-187500.02235174447,-187500.02235174447,-187500.02235174447,-187500.02235174447
talvez,10853.180092952263,-4166.365166469236,7549.055820590952,7602.252972394583,-187500.02235174447,-187500.02235174447,-187500.02235174447,-187500.02235174447
talvez,10865.853532058421,-4204.564297743356,7564.567931242935,7567.585416744401,-187500.02235174447,-187500.02235174447,-187500.02235174447,-187500.02235174447
talvez,10995.806574321578,-4157.223302987016,7965.826447704608,7506.00636077003,-187500.02235174447,-187500.02235174447,-187500.02235174447,-187500.02235174447
talvez,11002.400338935893,-4119.627668813189,8008.294762169691,7556.990689872586,-187500.02235174447,-187500.02235174447,-187500.02235174447,-187500.02235174447
talvez,10856.443447642738,-4149.511951149935,7658.0876300439395,7630.058542496985,-187500.02235174447,-187500.02235174447,-187500.02235174447,-187500.02235174447
talvez,10848.28506091655,-4194.461309249557,7534.34837273936,7599.213135148661,-187500.02235174447,-187500.02235174447,-187500.02235174447,-187500.02235174447
