WORD,Channel_1,Channel_2,Channel_3,Channel_4,Channel_5,Channel_6,Channel_7,Channel_8
não,4841.544311230697,-10366.314395226766,8820.512452186638,10788.605903220881,-187500.02235174447,-187500.02235174447,-187500.02235174447,-187500.02235174447
não,4734.278289589678,-10372.908159841081,8579.024205091502,10821.351208847906,-187500.02235174447,-187500.02235174447,-187500.02235174447,-187500.02235174447
não,4612.014247419149,-10424.54068953284,8035.139207260515,10851.794284796035,-187500.02235174447,-187500.02235174447,-187500.02235174447,-187500.02235174447
não,4713.938202135349,-10423.713674987994,8225.397256064089,10813.23752561063,-187500.02235174447,-187500.02235174447,-187500.02235174447,-187500.02235174447
não,4835.755209416772,-10369.57774991724,8787.990664004166,10779.888722883312,-187500.02235174447,-187500.02235174447,-187500.02235174447,-187500.02235174447
não,4768.007071972736,-10367.521389427351,8664.497275888596,10811.248220354108,-187500.02235174447,-187500.02235174447,-187500.02235174447,-187500.02235174447
não,4615.411712576355,-10429.25690761291,8084.134231106548,10836.885671244345,-187500.02235174447,-187500.02235174447,-187500.02235174447,-187500.02235174447
não,4668.027719024149,-10438.979916450968,8128.502443850332,10806.934333674233,-187500.02235174447,-187500.02235174447,-187500.02235174447,-187500.02235174447
não,4842.259567053266,-10375.72447964245,8749.657422263315,10788.874124154345,-187500.02235174447,-187500.02235174447,-187500.02235174447,-187500.02235174447
não,4809.5589649151525,-10362.872226580648,8768.455239350229,10814.243354111119,-187500.02235174447,-187500.02235174447,-187500.02235174447,-187500.02235174447
não,4656.002480507193,-10406.77105269087,8194.57420046022,10851.906043518311,-187500.02235174447,-187500.02235174447,-187500.02235174447,-187500.02235174447
não,4676.230809239246,-10437.63881178365,8072.198399567414,10832.594136308926,-187500.02235174447,-187500.02235174447,-187500.02235174447,-187500.02235174447
não,4829.675534924929,-10387.883828626136,8650.773304793038,10776.357147259372,-187500.02235174447,-187500.02235174447,-187500.02235174447,-187500.02235174447
não,4788.436566404887,-10366.0461742933,8769.59517831745,10778.32410077144,-187500.02235174447,-187500.02235174447,-187500.02235174447,-187500.02235174447
não,4640.065686710559,-10406.659293968594,8270.458372885987,10856.689316831746,-187500.02235174447,-187500.02235174447,-187500.02235174447,-187500.02235174447
não,4660.49518114271,-10438.979916450968,8029.2383467243135,10905.885506377877,-187500.02235174447,-187500.02235174447,-187500.02235174447,-187500.02235174447
não,4835.889319883504,-10404.513526500885,8578.308949268932,10783.621464207348,-187500.02235174447,-187500.02235174447,-187500.02235174447,-187500.02235174447
não,4853.077811369635,-10363.855703336681,8841.36662976344,10787.823592164945,-187500.02235174447,-187500.02235174447,-187500.02235174447,-187500.02235174447
não,4725.024667385182,-10392.19771530601,8397.66215058114,10843.94882249222,-187500.02235174447,-187500.02235174447,-187500.02235174447,-187500.02235174447
não,4646.68180306933,-10437.459997828008,7990.72629102782,10827.341476361928,-187500.02235174447,-187500.02235174447,-187500.02235174447,-187500.02235174447
não,4778.46768837782,-10408.469785269474,8445.740752904505,10773.876103624834,-187500.02235174447,-187500.02235174447,-187500.02235174447,-187500.02235174447
não,4879.430518082442,-10364.369793459153,8876.458868558273,10774.27843502503,-187500.02235174447,-187500.02235174447,-187500.02235174447,-187500.02235174447
não,4749.253958374734,-10386.118040814166,8482.44231730012,10793.076252111943,-187500.02235174447,-187500.02235174447,-187500.02235174447,-187500.02235174447
não,4637.271718653646,-10443.562024064306,7985.96536945884,10815.763272734079,-187500.02235174447,-187500.02235174447,-187500.02235174447,-187500.02235174447
não,4783.13920296898,-10428.832224468259,8357.674879750595,10788.337682287418,-187500.02235174447,-187500.02235174447,-187500.02235174447,-187500.02235174447
não,4887.611256553085,-10376.037404064824,8837.790350650592,10805.414415051273,-187500.02235174447,-187500.02235174447,-187500.02235174447,-187500.02235174447
não,4770.197542929357,-10391.124831572155,8585.03682434998,10843.501787603116,-187500.02235174447,-187500.02235174447,-187500.02235174447,-187500.02235174447
não,4671.894570814917,-10432.1626343921,8048.103219044593,10828.928450218255,-187500.02235174447,-187500.02235174447,-187500.02235174447,-187500.02235174447
não,4788.011883260237,-10438.488178072952,8248.687773786518,10783.733222929624,-187500.02235174447,-187500.02235174447,-187500.02235174447,-187500.02235174447
não,4905.49265211733,-10378.540799443817,8799.568867632017,10759.481580195616,-187500.02235174447,-187500.02235174447,-187500.02235174447,-187500.02235174447
não,4822.1206452990355,-10376.506790698384,8680.143497007311,10780.000481605588,-187500.02235174447,-187500.02235174447,-187500.02235174447,-187500.02235174447
não,4690.5135739461875,-10434.330753604265,8113.9961616988385,10826.425054839261,-187500.02235174447,-187500.02235174447,-187500.02235174447,-187500.02235174447
não,4753.70195552134,-10452.50272184643,8137.197272443447,10805.414415051273,-187500.02235174447,-187500.02235174447,-187500.02235174447,-187500.02235174447
não,4899.055349714202,-10400.333750287742,8737.386314557352,10747.858673078856,-187500.02235174447,-187500.02235174447,-187500.02235174447,-187500.02235174447
não,4857.43640153842,-10386.587427447728,8765.750678271137,10772.244426279596,-187500.02235174447,-187500.02235174447,-187500.02235174447,-187500.02235174447
não,4714.161719579902,-10434.10723615971,8212.008561135359,10825.910964716788,-187500.02235174447,-187500.02235174447,-187500.02235174447,-187500.02235174447
não,4738.011030913714,-10464.438553385562,8073.919483890472,10817.551412290504,-187500.02235174447,-187500.02235174447,-187500.02235174447,-187500.02235174447
não,4901.916373004481,-10415.287067328343,8663.379688665831,10766.924711099233,-187500.02235174447,-187500.02235174447,-187500.02235174447,-187500.02235174447
não,4891.880439744048,-10386.542723958817,8816.958524818245,10765.449495965184,-187500.02235174447,-187500.02235174447,-187500.02235174447,-187500.02235174447
não,4758.351118368044,-10424.808910466303,8328.528204980876,10816.769101234568,-187500.02235174447,-187500.02235174447,-187500.02235174447,-187500.02235174447
não,4735.686449490363,-10465.623195841694,8033.976916548839,10817.037322168031,-187500.02235174447,-187500.02235174447,-187500.02235174447,-187500.02235174447
não,4901.290524159733,-10429.815701224292,8565.143771784757,10761.9402720857,-187500.02235174447,-187500.02235174447,-187500.02235174447,-187500.02235174447
não,4933.141760008545,-10389.940189116025,8852.1401705909,10761.895568596789,-187500.02235174447,-187500.02235174447,-187500.02235174447,-187500.02235174447
não,4791.632865861996,-10420.182099364054,8423.970153805036,10800.452327782194,-187500.02235174447,-187500.02235174447,-187500.02235174447,-187500.02235174447
não,4715.703989947318,-10478.02841401439,8003.10915745606,10798.66418822577,-187500.02235174447,-187500.02235174447,-187500.02235174447,-187500.02235174447
não,4886.828945497149,-10444.366686864698,8464.516218246963,10778.27939728253,-187500.02235174447,-187500.02235174447,-187500.02235174447,-187500.02235174447
não,4959.203894043433,-10395.371663018665,8878.358766836973,10769.092830311398,-187500.02235174447,-187500.02235174447,-187500.02235174447,-187500.02235174447
não,4839.018564107248,-10414.214183594488,8529.917422523193,10801.32404581595,-187500.02235174447,-187500.02235174447,-187500.02235174447,-187500.02235174447
não,4733.853606445027,-10466.36080340872,8021.795215820696,10828.503767073604,-187500.02235174447,-187500.02235174447,-187500.02235174447,-187500.02235174447
não,4856.229407337833,-10455.1178759477,8350.097638380246,10786.236618308618,-187500.02235174447,-187500.02235174447,-187500.02235174447,-187500.02235174447
não,4970.692690693461,-10413.521279516373,8865.215941097253,10764.041336064498,-187500.02235174447,-187500.02235174447,-187500.02235174447,-187500.02235174447
não,4886.046634441213,-10412.314285315786,8637.965755220146,10808.566011019471,-187500.02235174447,-187500.02235174447,-187500.02235174447,-187500.02235174447
não,4756.026536944692,-10459.096486460745,8075.662919957987,10868.066354759498,-187500.02235174447,-187500.02235174447,-187500.02235174447,-187500.02235174447
não,4847.825151422639,-10467.031355742378,8246.989041207915,10803.067481883465,-187500.02235174447,-187500.02235174447,-187500.02235174447,-187500.02235174447
não,4965.6411964465615,-10413.387169049642,8794.0256350071,10724.277582678507,-187500.02235174447,-187500.02235174447,-187500.02235174447,-187500.02235174447
não,4890.315817632177,-10402.166593333077,8687.050186044,10778.234693793618,-187500.02235174447,-187500.02235174447,-187500.02235174447,-187500.02235174447
não,4778.937075011382,-10448.300593888831,8155.168074985514,10852.62129934088,-187500.02235174447,-187500.02235174447,-187500.02235174447,-187500.02235174447
não,4825.495758711786,-10471.769925566903,8151.2118162169245,10788.963531132165,-187500.02235174447,-187500.02235174447,-187500.02235174447,-187500.02235174447
não,4963.495428978852,-10422.461977298497,8742.102532637422,10748.372763201329,-187500.02235174447,-187500.02235174447,-187500.02235174447,-187500.02235174447
não,4926.2127192274,-10401.0043026214,8780.189905189265,10780.93925487271,-187500.02235174447,-187500.02235174447,-187500.02235174447,-187500.02235174447
não,4755.870074733505,-10454.380268380675,8214.601363492175,10812.09758664341,-187500.02235174447,-187500.02235174447,-187500.02235174447,-187500.02235174447
não,4782.960389013337,-10487.907885063636,8058.720297660863,10816.366769834372,-187500.02235174447,-187500.02235174447,-187500.02235174447,-187500.02235174447
não,4976.191219829467,-10427.893451201136,8688.078366288944,10817.685522757236,-187500.02235174447,-187500.02235174447,-187500.02235174447,-187500.02235174447
não,4959.248597532344,-10402.323055544264,8847.915690888845,10793.858563167878,-187500.02235174447,-187500.02235174447,-187500.02235174447,-187500.02235174447
não,4789.844726305571,-10438.287012372853,8311.607934428208,10822.8040722375,-187500.02235174447,-187500.02235174447,-187500.02235174447,-187500.02235174447
não,4770.9351504963815,-10473.491009889962,8018.218936707847,10859.8632645444,-187500.02235174447,-187500.02235174447,-187500.02235174447,-187500.02235174447
não,4938.059143788712,-10446.043067698845,8572.206923032632,10800.8993626713,-187500.02235174447,-187500.02235174447,-187500.02235174447,-187500.02235174447
não,4960.053260332735,-10414.594163250227,8860.030336383621,10811.002351165098,-187500.02235174447,-187500.02235174447,-187500.02235174447,-187500.02235174447
não,4808.866060837038,-10435.761265249404,8430.496863185987,10875.554189152026,-187500.02235174447,-187500.02235174447,-187500.02235174447,-187500.02235174447
não,4753.634900287974,-10479.324815192796,8008.719445314342,10785.364900274863,-187500.02235174447,-187500.02235174447,-187500.02235174447,-187500.02235174447
não,4904.799748039216,-10456.682498059572,8452.245110541,10764.913054098255,-187500.02235174447,-187500.02235174447,-187500.02235174447,-187500.02235174447
não,4954.107696307623,-10408.782709691848,8861.863179428958,10795.13261260183,-187500.02235174447,-187500.02235174447,-187500.02235174447,-187500.02235174447
não,4841.745476930795,-10424.652448255116,8535.862986548304,10826.536813561537,-187500.02235174447,-187500.02235174447,-187500.02235174447,-187500.02235174447
não,4739.821522214595,-10476.64260585816,8025.68441935592,10866.47938090317,-187500.02235174447,-187500.02235174447,-187500.02235174447,-187500.02235174447
não,4885.8678204855705,-10467.232521442476,8333.110312594214,10786.638949708815,-187500.02235174447,-187500.02235174447,-187500.02235174447,-187500.02235174447
não,4978.135821597079,-10416.225840595465,8839.26556578464,10751.993745803089,-187500.02235174447,-187500.02235174447,-187500.02235174447,-187500.02235174447
não,4871.987387178825,-10424.607744766206,8628.130987659812,10827.676752528758,-187500.02235174447,-187500.02235174447,-187500.02235174447,-187500.02235174447
não,4748.60575778553,-10476.843771558259,8069.896169888517,10880.62803514338,-187500.02235174447,-187500.02235174447,-187500.02235174447,-187500.02235174447
não,4842.773657175739,-10478.02841401439,8220.166947861546,10812.991656421622,-187500.02235174447,-187500.02235174447,-187500.02235174447,-187500.02235174447
não,4971.877333149592,-10416.672875484572,8803.726292100704,10776.312443770463,-187500.02235174447,-187500.02235174447,-187500.02235174447,-187500.02235174447
não,4891.835736255138,-10414.884735928146,8707.971418854167,10818.244316368618,-187500.02235174447,-187500.02235174447,-187500.02235174447,-187500.02235174447
não,4736.804036713128,-10469.065364487811,8118.377103612078,10842.786531780546,-187500.02235174447,-187500.02235174447,-187500.02235174447,-187500.02235174447
não,4811.458863193853,-10484.577475139795,8123.205080414425,10802.240467338619,-187500.02235174447,-187500.02235174447,-187500.02235174447,-187500.02235174447
não,4970.223304059899,-10430.687419258049,8730.569032498483,10777.295920526496,-187500.02235174447,-187500.02235174447,-187500.02235174447,-187500.02235174447
não,4932.6500216305285,-10408.514488758385,8787.051890737044,10819.42895882475,-187500.02235174447,-187500.02235174447,-187500.02235174447,-187500.02235174447
não,4787.654255348952,-10457.35305039323,8235.455541068977,10871.463819916704,-187500.02235174447,-187500.02235174447,-187500.02235174447,-187500.02235174447
não,4778.42298488891,-10494.12167002221,8044.63869865402,10842.965345736187,-187500.02235174447,-187500.02235174447,-187500.02235174447,-187500.02235174447
não,4918.6801813459615,-10444.456093842518,8634.009496451557,10770.925673356733,-187500.02235174447,-187500.02235174447,-187500.02235174447,-187500.02235174447
não,4921.720018591884,-10410.481442270451,8814.32101897252,10779.8440193944,-187500.02235174447,-187500.02235174447,-187500.02235174447,-187500.02235174447
não,4794.873868808016,-10444.947832220536,8318.559326953808,10827.877918228856,-187500.02235174447,-187500.02235174447,-187500.02235174447,-187500.02235174447
não,4756.250054389245,-10486.924408307601,8009.546459859188,10847.301584160517,-187500.02235174447,-187500.02235174447,-187500.02235174447,-187500.02235174447
não,4941.546015923741,-10456.704849804026,8552.380925700776,10814.824499466957,-187500.02235174447,-187500.02235174447,-187500.02235174447,-187500.02235174447
não,4981.756804198838,-10412.694264971527,8858.42101078284,10809.370673819862,-187500.02235174447,-187500.02235174447,-187500.02235174447,-187500.02235174447
não,4817.113854541047,-10438.912861217603,8426.04886603938,10853.515369119094,-187500.02235174447,-187500.02235174447,-187500.02235174447,-187500.02235174447
não,4735.865263446005,-10500.402510214151,7976.4658780653335,10833.018819453577,-187500.02235174447,-187500.02235174447,-187500.02235174447,-187500.02235174447
não,4897.848355513615,-10477.31315819182,8419.343342702789,10792.159830589275,-187500.02235174447,-187500.02235174447,-187500.02235174447,-187500.02235174447
não,4976.9064756520365,-10405.407596279098,8861.907882917867,10798.887705670322,-187500.02235174447,-187500.02235174447,-187500.02235174447,-187500.02235174447
não,4868.209942365878,-10420.785596464348,8541.36151568431,10835.52221483257,-187500.02235174447,-187500.02235174447,-187500.02235174447,-187500.02235174447
não,4718.40855102641,-10488.243161230464,7999.778747532219,10853.604776096914,-187500.02235174447,-187500.02235174447,-187500.02235174447,-187500.02235174447
não,4852.563721247163,-10478.520152392406,8321.93444036656,10852.509540618605,-187500.02235174447,-187500.02235174447,-187500.02235174447,-187500.02235174447
não,4953.6606614185175,-10418.170442363078,8833.901147115368,10806.867278440866,-187500.02235174447,-187500.02235174447,-187500.02235174447,-187500.02235174447
não,4865.527733031241,-10415.130605117156,8632.310763872954,10827.654400784302,-187500.02235174447,-187500.02235174447,-187500.02235174447,-187500.02235174447
não,4779.093537222569,-10468.685384832072,8085.140059607037,10868.379279181872,-187500.02235174447,-187500.02235174447,-187500.02235174447,-187500.02235174447
não,4833.229462293322,-10480.688271604571,8217.372979804633,10850.229662684163,-187500.02235174447,-187500.02235174447,-187500.02235174447,-187500.02235174447
não,4950.59847242814,-10432.475558814474,8780.793402289559,10810.845888953912,-187500.02235174447,-187500.02235174447,-187500.02235174447,-187500.02235174447
não,4875.675425013951,-10422.976067420968,8689.732395378638,10823.0052379376,-187500.02235174447,-187500.02235174447,-187500.02235174447,-187500.02235174447
não,4764.743717282262,-10475.480315146484,8117.505385578322,10868.647500115336,-187500.02235174447,-187500.02235174447,-187500.02235174447,-187500.02235174447
não,4808.486081181298,-10485.06921351781,8126.51313859381,10888.540552680559,-187500.02235174447,-187500.02235174447,-187500.02235174447,-187500.02235174447
não,4909.717131819383,-10429.34631459073,8720.086064348945,10815.740920989623,-187500.02235174447,-187500.02235174447,-187500.02235174447,-187500.02235174447
não,4891.746329277316,-10406.033445123845,8770.533951584572,10820.881822214345,-187500.02235174447,-187500.02235174447,-187500.02235174447,-187500.02235174447
não,4752.159685153924,-10451.429838112574,8235.3437823467,10889.926360836787,-187500.02235174447,-187500.02235174447,-187500.02235174447,-187500.02235174447
não,4736.804036713128,-10490.210114742531,8042.917614330961,10872.559055395015,-187500.02235174447,-187500.02235174447,-187500.02235174447,-187500.02235174447
não,4905.40324513951,-10440.276317629376,8623.861804468848,10816.769101234568,-187500.02235174447,-187500.02235174447,-187500.02235174447,-187500.02235174447
não,4925.519815149286,-10410.973180648469,8811.482347426694,10822.8040722375,-187500.02235174447,-187500.02235174447,-187500.02235174447,-187500.02235174447
não,4767.761202783729,-10443.986707208956,8321.174481055079,10882.416174699805,-187500.02235174447,-187500.02235174447,-187500.02235174447,-187500.02235174447
não,4747.756391496228,-10474.608597112727,8006.372512146535,10919.363608284428,-187500.02235174447,-187500.02235174447,-187500.02235174447,-187500.02235174447
não,4859.693927728406,-10462.538655106862,8500.34606460882,10822.111168159387,-187500.02235174447,-187500.02235174447,-187500.02235174447,-187500.02235174447
não,4905.291486417233,-10417.052855140311,8825.563946433538,10811.136461631831,-187500.02235174447,-187500.02235174447,-187500.02235174447,-187500.02235174447
não,4818.924345841926,-10438.64464028414,8436.241261511,10882.48322993317,-187500.02235174447,-187500.02235174447,-187500.02235174447,-187500.02235174447
não,4744.5824437835745,-10487.237332729976,8006.372512146535,10899.291741763562,-187500.02235174447,-187500.02235174447,-187500.02235174447,-187500.02235174447
não,4893.020378711269,-10462.315137662308,8414.314200200344,10852.956575507711,-187500.02235174447,-187500.02235174447,-187500.02235174447,-187500.02235174447
não,4916.3332481781545,-10429.68159075756,8805.447376423763,10793.813859678969,-187500.02235174447,-187500.02235174447,-187500.02235174447,-187500.02235174447
não,4793.912743796438,-10418.39395980763,8514.762939782493,10851.302546418017,-187500.02235174447,-187500.02235174447,-187500.02235174447,-187500.02235174447
não,4692.54758269162,-10485.337434451276,7987.932322970906,10849.201482439219,-187500.02235174447,-187500.02235174447,-187500.02235174447,-187500.02235174447
não,4814.632810906507,-10471.568759866806,8301.840222101238,10805.056787139987,-187500.02235174447,-187500.02235174447,-187500.02235174447,-187500.02235174447
não,4929.274908217777,-10409.162689347588,8859.963281150256,10838.42794161176,-187500.02235174447,-187500.02235174447,-187500.02235174447,-187500.02235174447
não,4820.131340042512,-10439.315192617798,8610.316647328931,10832.415322353283,-187500.02235174447,-187500.02235174447,-187500.02235174447,-187500.02235174447
não,4629.515663327654,-10505.521059694418,7992.939113728895,10801.502859771594,-187500.02235174447,-187500.02235174447,-187500.02235174447,-187500.02235174447
não,4702.717626418785,-10496.759175867937,8132.3692956411005,10824.23458388264,-187500.02235174447,-187500.02235174447,-187500.02235174447,-187500.02235174447
não,4846.215825821856,-10435.604803038217,8731.887785421346,10824.14517690482,-187500.02235174447,-187500.02235174447,-187500.02235174447,-187500.02235174447
não,4756.361813111522,-10437.191776894544,8662.217397954155,10831.677714786258,-187500.02235174447,-187500.02235174447,-187500.02235174447,-187500.02235174447
não,4603.207660103758,-10489.248989730953,8098.729920235864,10889.859305603422,-187500.02235174447,-187500.02235174447,-187500.02235174447,-187500.02235174447
não,4610.673142751831,-10510.863126619235,8042.872910842051,10852.017802240587,-187500.02235174447,-187500.02235174447,-187500.02235174447,-187500.02235174447
não,4745.476513561787,-10459.543521349851,8627.549842303973,10775.50778097007,-187500.02235174447,-187500.02235174447,-187500.02235174447,-187500.02235174447
não,4713.602925968519,-10434.82249198228,8716.15215732481,10827.453235084206,-187500.02235174447,-187500.02235174447,-187500.02235174447,-187500.02235174447
não,4539.840464572962,-10477.737841336471,8156.2633104638235,10829.710761274191,-187500.02235174447,-187500.02235174447,-187500.02235174447,-187500.02235174447
não,4515.432359627767,-10506.973923084011,7966.407593060446,10839.277307901062,-187500.02235174447,-187500.02235174447,-187500.02235174447,-187500.02235174447
não,4676.968416806271,-10460.817570783804,8551.978594300579,10784.671996196746,-187500.02235174447,-187500.02235174447,-187500.02235174447,-187500.02235174447
não,4677.840134840028,-10427.647582012127,8761.146218913344,10778.189990304709,-187500.02235174447,-187500.02235174447,-187500.02235174447,-187500.02235174447
não,4535.1465982373475,-10469.534751121373,8288.250361472412,10827.833214739945,-187500.02235174447,-187500.02235174447,-187500.02235174447,-187500.02235174447
não,4496.701597774219,-10512.94183885358,7948.034459118183,10841.91481374679,-187500.02235174447,-187500.02235174447,-187500.02235174447,-187500.02235174447
não,4657.96943401926,-10471.613463355716,8463.331575790831,10785.90134214179,-187500.02235174447,-187500.02235174447,-187500.02235174447,-187500.02235174447
não,4689.418338467877,-10421.769073220381,8791.79046056157,10775.08309782542,-187500.02235174447,-187500.02235174447,-187500.02235174447,-187500.02235174447
não,4550.792819356063,-10450.714582290004,8379.311368383333,10804.296827828506,-187500.02235174447,-187500.02235174447,-187500.02235174447,-187500.02235174447
não,4479.781327221552,-10518.574478456316,7940.47956949229,10832.728246775658,-187500.02235174447,-187500.02235174447,-187500.02235174447,-187500.02235174447
não,4639.417486121355,-10478.855428559236,8376.98678695998,10825.307467616496,-187500.02235174447,-187500.02235174447,-187500.02235174447,-187500.02235174447
não,4698.202574038813,-10425.211241866498,8794.897353040857,10792.919789900756,-187500.02235174447,-187500.02235174447,-187500.02235174447,-187500.02235174447
não,4570.171781798814,-10450.915747990102,8480.542419021418,10790.639911966315,-187500.02235174447,-187500.02235174447,-187500.02235174447,-187500.02235174447
não,4463.732774702642,-10516.629876688705,7951.878959164496,10831.342438619427,-187500.02235174447,-187500.02235174447,-187500.02235174447,-187500.02235174447
não,4582.24172380468,-10486.343262951763,8244.642108040109,10824.748674005114,-187500.02235174447,-187500.02235174447,-187500.02235174447,-187500.02235174447
não,4706.74094042074,-10437.191776894544,8792.326902428496,10793.724452701146,-187500.02235174447,-187500.02235174447,-187500.02235174447,-187500.02235174447
não,4606.895697938883,-10420.293858086332,8601.822984435914,10843.568842836481,-187500.02235174447,-187500.02235174447,-187500.02235174447,-187500.02235174447
não,4466.191466592725,-10469.557102865829,8039.430742195934,10851.794284796035,-187500.02235174447,-187500.02235174447,-187500.02235174447,-187500.02235174447
não,4538.164083738814,-10480.777678582392,8137.621955588098,10842.630069569359,-187500.02235174447,-187500.02235174447,-187500.02235174447,-187500.02235174447
não,4681.1258412749585,-10434.666029771093,8703.925753107756,10792.383348033829,-187500.02235174447,-187500.02235174447,-187500.02235174447,-187500.02235174447
não,4643.574910590042,-10403.86532591168,8671.091040502912,10821.306505358996,-187500.02235174447,-187500.02235174447,-187500.02235174447,-187500.02235174447
não,4466.124411359359,-10452.145093935143,8070.544370477721,10846.38516263785,-187500.02235174447,-187500.02235174447,-187500.02235174447,-187500.02235174447
não,4510.157347936314,-10466.651376086638,8021.012904764761,10830.314258374485,-187500.02235174447,-187500.02235174447,-187500.02235174447,-187500.02235174447
não,4679.516515674176,-10432.87789021467,8663.290281688009,10789.298807298996,-187500.02235174447,-187500.02235174447,-187500.02235174447,-187500.02235174447
não,4659.422297408855,-10420.047988897322,8750.171512385788,10796.317255057962,-187500.02235174447,-187500.02235174447,-187500.02235174447,-187500.02235174447
não,4503.295362388535,-10444.389038609152,8182.4372032209885,10861.539645378549,-187500.02235174447,-187500.02235174447,-187500.02235174447,-187500.02235174447
não,4494.488775073144,-10463.097448718245,7963.054831392149,10872.58140713947,-187500.02235174447,-187500.02235174447,-187500.02235174447,-187500.02235174447
não,4651.7780008051395,-10420.360913319697,8541.629736617773,10820.814766980979,-187500.02235174447,-187500.02235174447,-187500.02235174447,-187500.02235174447
não,4658.438820652821,-10390.320168771765,8763.291986381053,10820.23362162514,-187500.02235174447,-187500.02235174447,-187500.02235174447,-187500.02235174447
não,4506.2010891677255,-10435.940079205046,8280.136678235136,10849.067371972487,-187500.02235174447,-187500.02235174447,-187500.02235174447,-187500.02235174447
não,4461.095268856915,-10483.102260005744,7930.242470531759,10865.25003495813,-187500.02235174447,-187500.02235174447,-187500.02235174447,-187500.02235174447
não,4632.309631384567,-10433.928422204068,8431.525043430931,10828.995505451621,-187500.02235174447,-187500.02235174447,-187500.02235174447,-187500.02235174447
não,4674.822649338562,-10382.608816934684,8767.225893405186,10807.09079588542,-187500.02235174447,-187500.02235174447,-187500.02235174447,-187500.02235174447
não,4550.010508300127,-10404.088843356234,8384.94400798607,10851.682526073757,-187500.02235174447,-187500.02235174447,-187500.02235174447,-187500.02235174447
não,4463.553960746999,-10450.982803223467,7932.879976377485,10884.87486658989,-187500.02235174447,-187500.02235174447,-187500.02235174447,-187500.02235174447
não,4600.614857746942,-10441.528015318872,8325.30955377931,10832.66119154229,-187500.02235174447,-187500.02235174447,-187500.02235174447,-187500.02235174447
não,4674.8450010830165,-10389.448450738008,8779.005262733133,10795.870220168856,-187500.02235174447,-187500.02235174447,-187500.02235174447,-187500.02235174447
não,4566.215523030224,-10388.621436193162,8490.310131348388,10834.80695901,-187500.02235174447,-187500.02235174447,-187500.02235174447,-187500.02235174447
não,4462.078745612949,-10438.219957139489,7964.127715126004,10875.420078685294,-187500.02235174447,-187500.02235174447,-187500.02235174447,-187500.02235174447
não,4562.326319495001,-10436.051837927324,8217.976476904927,10838.09266544493,-187500.02235174447,-187500.02235174447,-187500.02235174447,-187500.02235174447
não,4670.195838236313,-10378.026709321346,8755.468875821696,10803.782737706035,-187500.02235174447,-187500.02235174447,-187500.02235174447,-187500.02235174447
não,4590.757738442152,-10373.936340086024,8578.21954229111,10830.962458963688,-187500.02235174447,-187500.02235174447,-187500.02235174447,-187500.02235174447
não,4455.172056576259,-10431.514433802895,8001.969218488839,10866.211159969707,-187500.02235174447,-187500.02235174447,-187500.02235174447,-187500.02235174447
não,4538.052325016538,-10442.198567652533,8103.513193549299,10842.33949689144,-187500.02235174447,-187500.02235174447,-187500.02235174447,-187500.02235174447
não,4680.432937196843,-10377.982005832435,8699.991846083623,10809.102452886398,-187500.02235174447,-187500.02235174447,-187500.02235174447,-187500.02235174447
não,4611.611916018953,-10364.548607414796,8655.355412406376,10831.275383386062,-187500.02235174447,-187500.02235174447,-187500.02235174447,-187500.02235174447
não,4460.290606056525,-10407.799232935815,8092.449080043922,10890.462802703716,-187500.02235174447,-187500.02235174447,-187500.02235174447,-187500.02235174447
não,4490.55486804901,-10438.465826328496,8020.4317594089225,10858.164531965796,-187500.02235174447,-187500.02235174447,-187500.02235174447,-187500.02235174447
não,4648.224073436746,-10388.442622237519,8612.41771130773,10779.709908927669,-187500.02235174447,-187500.02235174447,-187500.02235174447,-187500.02235174447
não,4615.277602109623,-10364.52625567034,8697.779023382547,10786.795411920002,-187500.02235174447,-187500.02235174447,-187500.02235174447,-187500.02235174447
não,4461.654062468298,-10399.573790976261,8162.253577977846,10817.864336712879,-187500.02235174447,-187500.02235174447,-187500.02235174447,-187500.02235174447
não,4480.898914444318,-10423.91484068809,7965.066488393127,10849.894386517333,-187500.02235174447,-187500.02235174447,-187500.02235174447,-187500.02235174447
não,4656.427163651844,-10380.261883766876,8544.31194595241,10810.130633131343,-187500.02235174447,-187500.02235174447,-187500.02235174447,-187500.02235174447
não,4661.769230576662,-10344.1414647271,8761.97323345819,10805.079138884443,-187500.02235174447,-187500.02235174447,-187500.02235174447,-187500.02235174447
não,4502.490699588144,-10383.301721012798,8284.74113759293,10850.296717917528,-187500.02235174447,-187500.02235174447,-187500.02235174447,-187500.02235174447
não,4449.472361740156,-10430.150977391122,7923.8722233619965,10855.549377864525,-187500.02235174447,-187500.02235174447,-187500.02235174447,-187500.02235174447
não,4608.348561328478,-10400.467860754474,8413.464833911043,10806.800223207501,-187500.02235174447,-187500.02235174447,-187500.02235174447,-187500.02235174447
não,4652.135628716424,-10346.644860106095,8763.02376544759,10800.429976037738,-187500.02235174447,-187500.02235174447,-187500.02235174447,-187500.02235174447
não,4536.778275582585,-10355.76437184386,8395.739900557983,10849.201482439219,-187500.02235174447,-187500.02235174447,-187500.02235174447,-187500.02235174447
não,4455.887312398829,-10399.640846209628,7931.5612234546215,10869.608625126913,-187500.02235174447,-187500.02235174447,-187500.02235174447,-187500.02235174447
$SILENCE,4585.14745058387,-10386.63213093664,8304.16480352459,10814.131595388842,-187500.02235174447,-187500.02235174447,-187500.02235174447,-187500.02235174447
$SILENCE,4667.558332390587,-10336.787740801305,8765.325995126486,10787.957702631677,-187500.02235174447,-187500.02235174447,-187500.02235174447,-187500.02235174447
$SILENCE,4556.023127558605,-10348.164778729055,8492.321788349365,10830.582479307948,-187500.02235174447,-187500.02235174447,-187500.02235174447,-187500.02235174447
$SILENCE,4436.731867400631,-10403.48534625594,7958.495075523267,10876.20238974123,-187500.02235174447,-187500.02235174447,-187500.02235174447,-187500.02235174447
$SILENCE,4545.249586731146,-10397.740947930926,8190.57323820272,10828.637877540335,-187500.02235174447,-187500.02235174447,-187500.02235174447,-187500.02235174447
$SILENCE,4664.831419567039,-10336.1395402121,8729.272631320075,10784.8955136413,-187500.02235174447,-187500.02235174447,-187500.02235174447,-187500.02235174447
$SILENCE,4580.565342970532,-10341.705124581471,8573.883303866782,10816.411473323284,-187500.02235174447,-187500.02235174447,-187500.02235174447,-187500.02235174447
$SILENCE,4440.464608724667,-10394.142317073622,8011.625172093532,10863.439543657249,-187500.02235174447,-187500.02235174447,-187500.02235174447,-187500.02235174447
$SILENCE,4506.17873742327,-10398.903238642602,8085.341225307135,10841.28896490204,-187500.02235174447,-187500.02235174447,-187500.02235174447,-187500.02235174447
$SILENCE,4661.657471854386,-10338.598232102184,8689.1512500228,10796.920752158256,-187500.02235174447,-187500.02235174447,-187500.02235174447,-187500.02235174447
$SILENCE,4612.48363405271,-10326.863566263148,8662.552674120983,10823.116996659875,-187500.02235174447,-187500.02235174447,-187500.02235174447,-187500.02235174447
$SILENCE,4459.97768163415,-10373.981043574935,8092.963170166394,10858.745677321635,-187500.02235174447,-187500.02235174447,-187500.02235174447,-187500.02235174447
$SILENCE,4489.1243564038705,-10395.528125229852,8010.306419170669,10848.374467894373,-187500.02235174447,-187500.02235174447,-187500.02235174447,-187500.02235174447
$SILENCE,4643.418448378855,-10345.661383350061,8601.822984435914,10795.624350979848,-187500.02235174447,-187500.02235174447,-187500.02235174447,-187500.02235174447
$SILENCE,4623.145416157891,-10320.694484793483,8707.457328731696,10802.128708616341,-187500.02235174447,-187500.02235174447,-187500.02235174447,-187500.02235174447
$SILENCE,4484.050510412516,-10359.251243978888,8193.613075448642,10857.605738354414,-187500.02235174447,-187500.02235174447,-187500.02235174447,-187500.02235174447
$SILENCE,4468.761917205085,-10394.879924640647,7957.265729578225,10862.523122134582,-187500.02235174447,-187500.02235174447,-187500.02235174447,-187500.02235174447
$SILENCE,4628.621593549442,-10352.299851453286,8523.010733486502,10806.867278440866,-187500.02235174447,-187500.02235174447,-187500.02235174447,-187500.02235174447
$SILENCE,4637.361125631467,-10317.676999292016,8757.122904911388,10805.593229006914,-187500.02235174447,-187500.02235174447,-187500.02235174447,-187500.02235174447
$SILENCE,4495.561658806999,-10346.95778452847,8292.139565007636,10848.9109097613,-187500.02235174447,-187500.02235174447,-187500.02235174447,-187500.02235174447
$SILENCE,4449.673527440254,-10385.648654180606,7918.798377370642,10857.538683121049,-187500.02235174447,-187500.02235174447,-187500.02235174447,-187500.02235174447
$SILENCE,4607.074511894526,-10357.217235233455,8400.456118638054,10800.452327782194,-187500.02235174447,-187500.02235174447,-187500.02235174447,-187500.02235174447
$SILENCE,4659.690518342319,-10321.275630149321,8764.990718959656,10796.697234713702,-187500.02235174447,-187500.02235174447,-187500.02235174447,-187500.02235174447
$SILENCE,4529.3351446789675,-10335.536043111808,8400.769043060427,10851.302546418017,-187500.02235174447,-187500.02235174447,-187500.02235174447,-187500.02235174447
$SILENCE,4441.984527347628,-10376.193866276011,7930.287174020669,10869.943901293744,-187500.02235174447,-187500.02235174447,-187500.02235174447,-187500.02235174447
$SILENCE,4573.077508578004,-10365.085049281723,8294.799422597816,10800.049996381998,-187500.02235174447,-187500.02235174447,-187500.02235174447,-187500.02235174447
$SILENCE,4660.338718931523,-10313.050188189769,8786.381338403386,10761.806161618968,-187500.02235174447,-187500.02235174447,-187500.02235174447,-187500.02235174447
$SILENCE,4557.878322348395,-10321.409740616053,8501.44130008713,10814.645685511314,-187500.02235174447,-187500.02235174447,-187500.02235174447,-187500.02235174447
$SILENCE,4462.481077013144,-10371.455296451486,7989.921628227428,10863.260729701607,-187500.02235174447,-187500.02235174447,-187500.02235174447,-187500.02235174447
$SILENCE,4556.4254589588,-10364.81682834826,8197.010540605848,10840.126674190364,-187500.02235174447,-187500.02235174447,-187500.02235174447,-187500.02235174447
$SILENCE,4665.25610271169,-10314.838327746193,8722.790625428037,10808.253086597097,-187500.02235174447,-187500.02235174447,-187500.02235174447,-187500.02235174447
$SILENCE,4583.113441838436,-10312.983132956402,8582.64518769326,10827.117958917375,-187500.02235174447,-187500.02235174447,-187500.02235174447,-187500.02235174447
$SILENCE,4452.422792008257,-10365.66619463756,8021.258773953769,10861.450238400726,-187500.02235174447,-187500.02235174447,-187500.02235174447,-187500.02235174447
$SILENCE,4526.362362666412,-10373.24343600791,8084.581265995654,10830.738941519136,-187500.02235174447,-187500.02235174447,-187500.02235174447,-187500.02235174447
$SILENCE,4674.800297594106,-10315.978266713413,8678.020081284056,10783.33089152943,-187500.02235174447,-187500.02235174447,-187500.02235174447,-187500.02235174447
$SILENCE,4627.571061560043,-10304.556525296752,8671.180447480732,10822.558203048493,-187500.02235174447,-187500.02235174447,-187500.02235174447,-187500.02235174447
$SILENCE,4474.640425996831,-10353.23862472041,8109.3022953632235,10872.492000161648,-187500.02235174447,-187500.02235174447,-187500.02235174447,-187500.02235174447
$SILENCE,4500.769615265085,-10373.131677285633,8004.137337701004,10832.996467709121,-187500.02235174447,-187500.02235174447,-187500.02235174447,-187500.02235174447
$SILENCE,4663.6914805998185,-10321.745016782883,8604.259324581542,10786.817763664456,-187500.02235174447,-187500.02235174447,-187500.02235174447,-187500.02235174447
$SILENCE,4638.29989889859,-10296.353435081654,8719.594325970927,10803.290999328017,-187500.02235174447,-187500.02235174447,-187500.02235174447,-187500.02235174447
$SILENCE,4499.048530942026,-10332.742075054894,8212.3885407911,10857.650441843325,-187500.02235174447,-187500.02235174447,-187500.02235174447,-187500.02235174447
$SILENCE,4492.946504705728,-10375.255093008887,7964.708860481842,10849.223834183675,-187500.02235174447,-187500.02235174447,-187500.02235174447,-187500.02235174447
$SILENCE,4648.425239136844,-10334.127883211122,8507.900954234714,10785.096679341397,-187500.02235174447,-187500.02235174447,-187500.02235174447,-187500.02235174447
$SILENCE,4671.603998136998,-10293.917094936025,8762.532027069572,10793.456231767683,-187500.02235174447,-187500.02235174447,-187500.02235174447,-187500.02235174447
$SILENCE,4534.476045903689,-10324.986019728902,8313.351370495722,10847.994488238632,-187500.02235174447,-187500.02235174447,-187500.02235174447,-187500.02235174447
$SILENCE,4472.204085851203,-10377.423212221052,7931.494168221256,10861.137313978352,-187500.02235174447,-187500.02235174447,-187500.02235174447,-187500.02235174447
$SILENCE,4626.989916204205,-10349.639993863106,8409.486223397997,10810.890592442822,-187500.02235174447,-187500.02235174447,-187500.02235174447,-187500.02235174447
$SILENCE,4674.062690027081,-10293.961798424936,8772.903236496835,10786.080156097432,-187500.02235174447,-187500.02235174447,-187500.02235174447,-187500.02235174447
$SILENCE,4547.752982110141,-10306.814051486737,8409.910906542647,10832.370618864372,-187500.02235174447,-187500.02235174447,-187500.02235174447,-187500.02235174447
$SILENCE,4471.712347473186,-10358.938319556513,7943.161778826926,10868.96042453771,-187500.02235174447,-187500.02235174447,-187500.02235174447,-187500.02235174447
$SILENCE,4612.729503241719,-10348.388296173609,8301.54964942332,10823.295810615518,-187500.02235174447,-187500.02235174447,-187500.02235174447,-187500.02235174447
$SILENCE,4700.88478337345,-10295.70523449245,8776.92655049879,10796.585475991425,-187500.02235174447,-187500.02235174447,-187500.02235174447,-187500.02235174447
$SILENCE,4589.237819819191,-10306.098795664167,8514.226497915566,10823.027589682055,-187500.02235174447,-187500.02235174447,-187500.02235174447,-187500.02235174447
$SILENCE,4469.6336352388425,-10356.85960732217,7972.442564063378,10863.752468079623,-187500.02235174447,-187500.02235174447,-187500.02235174447,-187500.02235174447
$SILENCE,4575.603255701453,-10354.132694498623,8184.828839877706,10828.86139498489,-187500.02235174447,-187500.02235174447,-187500.02235174447,-187500.02235174447
$SILENCE,4695.810937382095,-10296.733414737393,8738.079218635467,10785.096679341397,-187500.02235174447,-187500.02235174447,-187500.02235174447,-187500.02235174447
$SILENCE,4616.6187067769415,-10295.74993798136,8605.756891460049,10819.89834545831,-187500.02235174447,-187500.02235174447,-187500.02235174447,-187500.02235174447
$SILENCE,4482.93292318975,-10347.918909540047,8036.122684016548,10863.238377957152,-187500.02235174447,-187500.02235174447,-187500.02235174447,-187500.02235174447
$SILENCE,4544.914310564317,-10361.017031790858,8083.262513072791,10841.177206179764,-187500.02235174447,-187500.02235174447,-187500.02235174447,-187500.02235174447
$SILENCE,4692.704044902807,-10304.46711831893,8683.250389486599,10801.435804538227,-187500.02235174447,-187500.02235174447,-187500.02235174447,-187500.02235174447
$SILENCE,4645.452457124288,-10288.195048355466,8682.356319708386,10830.336610118939,-187500.02235174447,-187500.02235174447,-187500.02235174447,-187500.02235174447
$SILENCE,4497.506260574611,-10333.211461688456,8125.037923459759,10879.599854898437,-187500.02235174447,-187500.02235174447,-187500.02235174447,-187500.02235174447
$SILENCE,4516.460539872711,-10362.358136458175,8005.254924923769,10854.476494130671,-187500.02235174447,-187500.02235174447,-187500.02235174447,-187500.02235174447
$SILENCE,4670.3523004475,-10310.345627110675,8597.46439426713,10803.358054561384,-187500.02235174447,-187500.02235174447,-187500.02235174447,-187500.02235174447
$SILENCE,4656.561274118576,-10284.305844820243,8728.49032026414,10811.941124432222,-187500.02235174447,-187500.02235174447,-187500.02235174447,-187500.02235174447
$SILENCE,4509.442092113744,-10326.729455796416,8216.523613515332,10851.123732462374,-187500.02235174447,-187500.02235174447,-187500.02235174447,-187500.02235174447
$SILENCE,4487.827955225463,-10358.0442497783,7947.09568585106,10851.593119095936,-187500.02235174447,-187500.02235174447,-187500.02235174447,-187500.02235174447
$SILENCE,4656.583625863031,-10316.09002543569,8504.056454188401,10802.66515048327,-187500.02235174447,-187500.02235174447,-187500.02235174447,-187500.02235174447
$SILENCE,4679.628274396453,-10276.907417405537,8770.31043414002,10809.66124649778,-187500.02235174447,-187500.02235174447,-187500.02235174447,-187500.02235174447
$SILENCE,4540.6004238844425,-10307.305789864755,8330.495158492942,10863.461895401704,-187500.02235174447,-187500.02235174447,-187500.02235174447,-187500.02235174447
$SILENCE,4478.730795232153,-10357.396049189098,7934.33283976708,10862.299604690028,-187500.02235174447,-187500.02235174447,-187500.02235174447,-187500.02235174447
$SILENCE,4638.724582043241,-10330.261031420354,8399.204420948556,10800.51938301556,-187500.02235174447,-187500.02235174447,-187500.02235174447,-187500.02235174447
$SILENCE,4698.761367650195,-10283.389423297576,8791.298722183552,10795.311426557473,-187500.02235174447,-187500.02235174447,-187500.02235174447,-187500.02235174447
$SILENCE,4564.4944387071655,-10306.098795664167,8430.474511441531,10836.639802055335,-187500.02235174447,-187500.02235174447,-187500.02235174447,-187500.02235174447
$SILENCE,4458.681280455742,-10356.926662555536,7929.750732153742,10850.654345828814,-187500.02235174447,-187500.02235174447,-187500.02235174447,-187500.02235174447
$SILENCE,4592.478822765211,-10328.897575008581,8277.879152045149,10800.27351382655,-187500.02235174447,-187500.02235174447,-187500.02235174447,-187500.02235174447
$SILENCE,4703.164661307891,-10274.001690626346,8780.614588333916,10789.321159043451,-187500.02235174447,-187500.02235174447,-187500.02235174447,-187500.02235174447
$SILENCE,4605.420482804833,-10288.552676266752,8540.333335439365,10836.349229377418,-187500.02235174447,-187500.02235174447,-187500.02235174447,-187500.02235174447
$SILENCE,4481.591818522432,-10343.38150541562,7987.015901448239,10852.263671429595,-187500.02235174447,-187500.02235174447,-187500.02235174447,-187500.02235174447
$SILENCE,4582.845220904973,-10344.499092638385,8181.453726464954,10815.875031456355,-187500.02235174447,-187500.02235174447,-187500.02235174447,-187500.02235174447
$SILENCE,4703.83521364155,-10286.965702410425,8747.086971650955,10791.645740466804,-187500.02235174447,-187500.02235174447,-187500.02235174447,-187500.02235174447
$SILENCE,4620.217337634246,-10284.395251798065,8618.251516610566,10809.862412197877,-187500.02235174447,-187500.02235174447,-187500.02235174447,-187500.02235174447
$SILENCE,4480.764803977586,-10333.859662277659,8051.12070454606,10843.367677136384,-187500.02235174447,-187500.02235174447,-187500.02235174447,-187500.02235174447
$SILENCE,4546.143656509359,-10345.504921138874,8093.432556799956,10826.737979261636,-187500.02235174447,-187500.02235174447,-187500.02235174447,-187500.02235174447
$SILENCE,4692.614637924986,-10289.08911813368,8687.251351744098,10789.544676488003,-187500.02235174447,-187500.02235174447,-187500.02235174447,-187500.02235174447
$SILENCE,4655.3542799179895,-10275.02987087129,8695.901476848303,10802.441633038716,-187500.02235174447,-187500.02235174447,-187500.02235174447,-187500.02235174447
$SILENCE,4508.190394424248,-10324.091949950689,8139.23128118888,10844.261746914595,-187500.02235174447,-187500.02235174447,-187500.02235174447,-187500.02235174447
$SILENCE,4524.238946943158,-10346.488397894907,8009.993494748294,10838.137368933842,-187500.02235174447,-187500.02235174447,-187500.02235174447,-187500.02235174447
$SILENCE,4680.298826730112,-10295.258199603344,8605.198097848666,10789.097641598897,-187500.02235174447,-187500.02235174447,-187500.02235174447,-187500.02235174447
$SILENCE,4666.999538779204,-10269.732507435383,8754.440695576752,10799.982941148632,-187500.02235174447,-187500.02235174447,-187500.02235174447,-187500.02235174447
$SILENCE,4522.540214364554,-10308.758653254348,8241.222291138445,10839.500825345616,-187500.02235174447,-187500.02235174447,-187500.02235174447,-187500.02235174447
$SILENCE,4495.069920428982,-10352.679831109028,7959.903235423951,10835.410456110294,-187500.02235174447,-187500.02235174447,-187500.02235174447,-187500.02235174447
$SILENCE,4656.49421888521,-10310.055054432756,8505.017579199979,10787.555371231481,-187500.02235174447,-187500.02235174447,-187500.02235174447,-187500.02235174447
$SILENCE,4682.221076753268,-10262.289376531766,8779.0723179665,10790.304635799484,-187500.02235174447,-187500.02235174447,-187500.02235174447,-187500.02235174447
$SILENCE,4541.449790173744,-10289.871429189614,8343.906205166126,10835.611621810393,-187500.02235174447,-187500.02235174447,-187500.02235174447,-187500.02235174447
$SILENCE,4471.354719561901,-10339.626412347128,7942.155950326437,10846.474569615671,-187500.02235174447,-187500.02235174447,-187500.02235174447,-187500.02235174447
$SILENCE,4625.358238858967,-10306.523478808818,8392.52124935642,10795.020853879554,-187500.02235174447,-187500.02235174447,-187500.02235174447,-187500.02235174447
$SILENCE,4682.5340011756425,-10258.243710785355,8783.185038946276,10779.464039738661,-187500.02235174447,-187500.02235174447,-187500.02235174447,-187500.02235174447
$SILENCE,4561.365194483423,-10275.901588905048,8441.382162735721,10821.686485014736,-187500.02235174447,-187500.02235174447,-187500.02235174447,-187500.02235174447
$SILENCE,4473.254617840603,-10328.607002330662,7946.738057939775,10853.470665630182,-187500.02235174447,-187500.02235174447,-187500.02235174447,-187500.02235174447
$SILENCE,4598.62555249042,-10316.291191135788,8281.008396268893,10809.61654300887,-187500.02235174447,-187500.02235174447,-187500.02235174447,-187500.02235174447
$SILENCE,4687.227867511257,-10259.763629408317,8779.184076688776,10782.258007795574,-187500.02235174447,-187500.02235174447,-187500.02235174447,-187500.02235174447
$SILENCE,4585.728595939708,-10265.418620755509,8537.673477849183,10817.216136123674,-187500.02235174447,-187500.02235174447,-187500.02235174447,-187500.02235174447
$SILENCE,4458.010728122083,-10317.47583359192,7980.533895556199,10853.24714818563,-187500.02235174447,-187500.02235174447,-187500.02235174447,-187500.02235174447
$SILENCE,4553.251511246146,-10317.587592314196,8164.198179745457,10820.993580936622,-187500.02235174447,-187500.02235174447,-187500.02235174447,-187500.02235174447
$SILENCE,4684.344492476523,-10258.243710785355,8728.691485964238,10787.287150298018,-187500.02235174447,-187500.02235174447,-187500.02235174447,-187500.02235174447
$SILENCE,4606.806290961063,-10254.063934572212,8614.1834991197,10810.37650232035,-187500.02235174447,-187500.02235174447,-187500.02235174447,-187500.02235174447
$SILENCE,4458.971853133661,-10304.288304363288,8048.349088233601,10852.777761552068,-187500.02235174447,-187500.02235174447,-187500.02235174447,-187500.02235174447
$SILENCE,4517.13109220637,-10318.61577255914,8075.841733913629,10829.889575229834,-187500.02235174447,-187500.02235174447,-187500.02235174447,-187500.02235174447
$SILENCE,4672.4980679152095,-10262.311728276221,8671.023985269545,10785.65547295278,-187500.02235174447,-187500.02235174447,-187500.02235174447,-187500.02235174447
$SILENCE,4629.135683671914,-10246.732562390873,8681.372842952353,10803.290999328017,-187500.02235174447,-187500.02235174447,-187500.02235174447,-187500.02235174447
$SILENCE,4477.769670220575,-10290.31846407872,8127.451911860933,10848.597985338925,-187500.02235174447,-187500.02235174447,-187500.02235174447,-187500.02235174447
$SILENCE,4496.746301263131,-10321.856775505159,7987.909971226451,10839.344363134429,-187500.02235174447,-187500.02235174447,-187500.02235174447,-187500.02235174447
$SILENCE,4659.1764282198465,-10269.598396968651,8581.84052489287,10791.288112555518,-187500.02235174447,-187500.02235174447,-187500.02235174447,-187500.02235174447
$SILENCE,4643.373744889945,-10235.73550411886,8733.452407533217,10795.42318527975,-187500.02235174447,-187500.02235174447,-187500.02235174447,-187500.02235174447
$SILENCE,4489.481984315155,-10273.286434803777,8230.33699158871,10838.830273011956,-187500.02235174447,-187500.02235174447,-187500.02235174447,-187500.02235174447
$SILENCE,4459.865922911874,-10314.57010681273,7947.81094167363,10846.00518298211,-187500.02235174447,-187500.02235174447,-187500.02235174447,-187500.02235174447
$SILENCE,4623.771265002641,-10273.778173181794,8487.180887124645,10796.205496335686,-187500.02235174447,-187500.02235174447,-187500.02235174447,-187500.02235174447
$SILENCE,4656.1812944628355,-10232.44979768393,8769.818695762002,10789.589379976915,-187500.02235174447,-187500.02235174447,-187500.02235174447,-187500.02235174447
$SILENCE,4522.964897509205,-10262.55759746523,8331.813911415806,10829.934278718743,-187500.02235174447,-187500.02235174447,-187500.02235174447,-187500.02235174447
$SILENCE,4459.3071293004905,-10313.296057378777,7918.28428724817,10848.888558016844,-187500.02235174447,-187500.02235174447,-187500.02235174447,-187500.02235174447
$SILENCE,4602.537107770098,-10287.680958232995,8366.079135665792,10800.653493482292,-187500.02235174447,-187500.02235174447,-187500.02235174447,-187500.02235174447
$SILENCE,4657.835323552528,-10233.433274439963,8771.137448684865,10780.089888583409,-187500.02235174447,-187500.02235174447,-187500.02235174447,-187500.02235174447
$SILENCE,4542.723839607696,-10247.69368740245,8442.455046469575,10817.372598334861,-187500.02235174447,-187500.02235174447,-187500.02235174447,-187500.02235174447
$SILENCE,4448.35477451739,-10304.243600874377,7939.987831114273,10843.077104458465,-187500.02235174447,-187500.02235174447,-187500.02235174447,-187500.02235174447
$SILENCE,4580.274770292613,-10295.526420536808,8265.697451317006,10798.306560314484,-187500.02235174447,-187500.02235174447,-187500.02235174447,-187500.02235174447
$SILENCE,4681.170544763869,-10238.976507064881,8769.528123084083,10776.290092026007,-187500.02235174447,-187500.02235174447,-187500.02235174447,-187500.02235174447
$SILENCE,4580.990026115182,-10242.93276583347,8531.191471957145,10808.029569152543,-187500.02235174447,-187500.02235174447,-187500.02235174447,-187500.02235174447
$SILENCE,4458.837742666929,-10294.744109480871,7977.270540865725,10844.99935448162,-187500.02235174447,-187500.02235174447,-187500.02235174447,-187500.02235174447
$SILENCE,4546.5906913984645,-10296.576952526208,8153.156417984536,10816.255011112096,-187500.02235174447,-187500.02235174447,-187500.02235174447,-187500.02235174447
$SILENCE,4672.051033026103,-10238.64123089805,8716.196860813721,10774.479600725128,-187500.02235174447,-187500.02235174447,-187500.02235174447,-187500.02235174447
$SILENCE,4609.846128206984,-10234.84143434065,8613.378836319309,10795.80316493549,-187500.02235174447,-187500.02235174447,-187500.02235174447,-187500.02235174447
$SILENCE,4468.203123593703,-10285.714004720927,8045.041030054216,10833.085874686942,-187500.02235174447,-187500.02235174447,-187500.02235174447,-187500.02235174447
$SILENCE,4520.662667830309,-10300.823783972715,8054.696983658909,10811.270572098563,-187500.02235174447,-187500.02235174447,-187500.02235174447,-187500.02235174447
$SILENCE,4670.888742314428,-10244.117408289601,8660.541017120006,10768.042298321998,-187500.02235174447,-187500.02235174447,-187500.02235174447,-187500.02235174447
$SILENCE,4639.529244843632,-10230.50519591632,8694.493316947617,10785.007272363577,-187500.02235174447,-187500.02235174447,-187500.02235174447,-187500.02235174447
$SILENCE,4493.259429128102,-10273.845228415159,8143.165188213014,10826.156833905798,-187500.02235174447,-187500.02235174447,-187500.02235174447,-187500.02235174447
$SILENCE,4498.445033841734,-10302.56722004023,7986.188886903392,10816.925563445755,-187500.02235174447,-187500.02235174447,-187500.02235174447,-187500.02235174447
$SILENCE,4653.521436872654,-10250.331193248176,8574.55385620044,10767.662318666258,-187500.02235174447,-187500.02235174447,-187500.02235174447,-187500.02235174447
$SILENCE,4648.559349603575,-10219.709303344405,8740.716724481194,10774.680766425225,-187500.02235174447,-187500.02235174447,-187500.02235174447,-187500.02235174447
$SILENCE,4501.484871087655,-10255.248577028344,8247.100799930191,10817.66317101278,-187500.02235174447,-187500.02235174447,-187500.02235174447,-187500.02235174447
$SILENCE,4472.740527718131,-10298.029815915801,7946.33572653958,10819.697179758214,-187500.02235174447,-187500.02235174447,-187500.02235174447,-187500.02235174447
$SILENCE,4637.495236098199,-10261.104734075634,8473.479267773542,10768.22111227764,-187500.02235174447,-187500.02235174447,-187500.02235174447,-187500.02235174447
$SILENCE,4671.805163837095,-10220.849242311626,8763.82842824798,10763.281376753019,-187500.02235174447,-187500.02235174447,-187500.02235174447,-187500.02235174447
$SILENCE,4535.236005215169,-10248.297184502744,8344.152074355135,10806.017912151565,-187500.02235174447,-187500.02235174447,-187500.02235174447,-187500.02235174447
$SILENCE,4461.810524679485,-10296.264028103833,7923.939278595362,10824.547508305015,-187500.02235174447,-187500.02235174447,-187500.02235174447,-187500.02235174447
$SILENCE,4611.72367474123,-10267.631443456585,8366.839094977271,10775.776001903534,-187500.02235174447,-187500.02235174447,-187500.02235174447,-187500.02235174447
$SILENCE,4675.940236561327,-10214.903678286515,8782.603893590438,10759.861559851357,-187500.02235174447,-187500.02235174447,-187500.02235174447,-187500.02235174447
$SILENCE,4550.1669705113145,-10230.259326727311,8451.373392507243,10799.75942370408,-187500.02235174447,-187500.02235174447,-187500.02235174447,-187500.02235174447
$SILENCE,4451.484018741134,-10284.238789586878,7944.994621872262,10824.927487960755,-187500.02235174447,-187500.02235174447,-187500.02235174447,-187500.02235174447
$SILENCE,4579.626569703409,-10273.353490037143,8245.402067351588,10779.8440193944,-187500.02235174447,-187500.02235174447,-187500.02235174447,-187500.02235174447
$SILENCE,4674.979111549748,-10216.334189931655,8750.462085063707,10749.356239957362,-187500.02235174447,-187500.02235174447,-187500.02235174447,-187500.02235174447
$SILENCE,4580.185363314791,-10222.279753956765,8537.338201682354,10784.22496130764,-187500.02235174447,-187500.02235174447,-187500.02235174447,-187500.02235174447
$SILENCE,4455.440277509722,-10275.007519126835,7988.446413093378,10825.530985061048,-187500.02235174447,-187500.02235174447,-187500.02235174447,-187500.02235174447
$SILENCE,4549.049383288549,-10279.634330229084,8157.626766875597,10796.361958546873,-187500.02235174447,-187500.02235174447,-187500.02235174447,-187500.02235174447
$SILENCE,4675.113222016481,-10219.374027177577,8722.67886670576,10757.112295283354,-187500.02235174447,-187500.02235174447,-187500.02235174447,-187500.02235174447
$SILENCE,4596.725654211718,-10210.433329395453,8629.85207198287,10778.9946531051,-187500.02235174447,-187500.02235174447,-187500.02235174447,-187500.02235174447
$SILENCE,4459.351832789402,-10259.897739875049,8079.708585704397,10824.52515656056,-187500.02235174447,-187500.02235174447,-187500.02235174447,-187500.02235174447
$SILENCE,4508.03393221306,-10279.053184873246,8050.07017255666,10796.876048669345,-187500.02235174447,-187500.02235174447,-187500.02235174447,-187500.02235174447
$SILENCE,4663.624425366453,-10222.995009779335,8642.57021457794,10754.005402804065,-187500.02235174447,-187500.02235174447,-187500.02235174447,-187500.02235174447
$SILENCE,4624.933555714316,-10201.380872891054,8696.14734603731,10774.948987358688,-187500.02235174447,-187500.02235174447,-187500.02235174447,-187500.02235174447
$SILENCE,4469.544228261021,-10245.279699001278,8149.669545849508,10819.607772780391,-187500.02235174447,-187500.02235174447,-187500.02235174447,-187500.02235174447
$SILENCE,4469.320710816469,-10275.32044354921,7972.621378019021,10810.37650232035,-187500.02235174447,-187500.02235174447,-187500.02235174447,-187500.02235174447
$SILENCE,4639.842169266006,-10228.806463337716,8553.654975134728,10759.213359262152,-187500.02235174447,-187500.02235174447,-187500.02235174447,-187500.02235174447
$SILENCE,4634.455398852277,-10195.904695499505,8738.570957013484,10765.874179109835,-187500.02235174447,-187500.02235174447,-187500.02235174447,-187500.02235174447
$SILENCE,4483.894048201329,-10228.851166826626,8251.39233486561,10816.322066345461,-187500.02235174447,-187500.02235174447,-187500.02235174447,-187500.02235174447
$SILENCE,4456.200236821203,-10273.55465573724,7931.0918368210605,10826.357999605894,-187500.02235174447,-187500.02235174447,-187500.02235174447,-187500.02235174447
$SILENCE,4611.969543930238,-10233.545033162241,8457.207197810078,10776.088926325909,-187500.02235174447,-187500.02235174447,-187500.02235174447,-187500.02235174447
$SILENCE,4643.038468723115,-10190.2050006634,8762.30850962502,10769.919844856244,-187500.02235174447,-187500.02235174447,-187500.02235174447,-187500.02235174447
$SILENCE,4501.0378361985495,-10215.775396320272,8345.828455189283,10812.298752343506,-187500.02235174447,-187500.02235174447,-187500.02235174447,-187500.02235174447
$SILENCE,4428.171149274248,-10265.016289355313,7916.47379594729,10831.901232230812,-187500.02235174447,-187500.02235174447,-187500.02235174447,-187500.02235174447
$SILENCE,4582.867572649428,-10240.78699836576,8349.471789535499,10785.61076946387,-187500.02235174447,-187500.02235174447,-187500.02235174447,-187500.02235174447
$SILENCE,4655.734259573729,-10189.199172162911,8775.83131502048,10768.891664611301,-187500.02235174447,-187500.02235174447,-187500.02235174447,-187500.02235174447
$SILENCE,4537.091200004959,-10205.135965959546,8452.133351818724,10811.494089543115,-187500.02235174447,-187500.02235174447,-187500.02235174447,-187500.02235174447
$SILENCE,4419.968059059151,-10256.120295062101,7932.924679866395,10839.05379045651,-187500.02235174447,-187500.02235174447,-187500.02235174447,-187500.02235174447
$SILENCE,4536.80062732704,-10245.056181556723,8229.711142743963,10794.931446901734,-187500.02235174447,-187500.02235174447,-187500.02235174447,-187500.02235174447
$SILENCE,4645.072477468548,-10189.132116929546,8736.022858145578,10772.22207453514,-187500.02235174447,-187500.02235174447,-187500.02235174447,-187500.02235174447
$SILENCE,4554.749078124652,-10192.104898942101,8534.924213281181,10804.587400506425,-187500.02235174447,-187500.02235174447,-187500.02235174447,-187500.02235174447
$SILENCE,4428.841701607907,-10246.039658312757,7985.026596191717,10843.300621903018,-187500.02235174447,-187500.02235174447,-187500.02235174447,-187500.02235174447
$SILENCE,4516.661705572808,-10253.013402582814,8126.356676382623,10807.336665074428,-187500.02235174447,-187500.02235174447,-187500.02235174447,-187500.02235174447
$SILENCE,4640.646832066397,-10193.982445476347,8690.224133756654,10748.909205068256,-187500.02235174447,-187500.02235174447,-187500.02235174447,-187500.02235174447
$SILENCE,4581.951151126761,-10190.696739041417,8615.390493320287,10776.401850748283,-187500.02235174447,-187500.02235174447,-187500.02235174447,-187500.02235174447
$SILENCE,4443.2809285260355,-10242.396323966543,8051.344221990612,10822.647610026313,-187500.02235174447,-187500.02235174447,-187500.02235174447,-187500.02235174447
$SILENCE,4488.140879647837,-10261.819989898204,8023.516300143755,10795.42318527975,-187500.02235174447,-187500.02235174447,-187500.02235174447,-187500.02235174447
$SILENCE,4647.240596680713,-10208.511079372296,8629.583851049407,10745.847016077878,-187500.02235174447,-187500.02235174447,-187500.02235174447,-187500.02235174447
$SILENCE,4615.3893608319,-10186.226390150356,8698.38252048284,10760.040373806998,-187500.02235174447,-187500.02235174447,-187500.02235174447,-187500.02235174447
$SILENCE,4472.874638184862,-10228.98527729336,8161.538322155277,10809.169508119763,-187500.02235174447,-187500.02235174447,-187500.02235174447,-187500.02235174447
$SILENCE,4479.60251326591,-10262.244673042855,7959.679717979398,10800.206458593186,-187500.02235174447,-187500.02235174447,-187500.02235174447,-187500.02235174447
$SILENCE,4638.389305876411,-10214.121367230578,8538.344030182843,10748.864501579345,-187500.02235174447,-187500.02235174447,-187500.02235174447,-187500.02235174447
$SILENCE,4635.72944828623,-10181.621930792562,8734.502939522617,10751.725524869624,-187500.02235174447,-187500.02235174447,-187500.02235174447,-187500.02235174447
$SILENCE,4484.0728621569715,-10215.820099809182,8246.698468529996,10801.815784193968,-187500.02235174447,-187500.02235174447,-187500.02235174447,-187500.02235174447
$SILENCE,4440.9339953582285,-10256.880254373582,7923.961630339817,10812.030531410042,-187500.02235174447,-187500.02235174447,-187500.02235174447,-187500.02235174447
$SILENCE,4594.356369299456,-10216.669466098485,8443.639688925707,10757.782847617013,-187500.02235174447,-187500.02235174447,-187500.02235174447,-187500.02235174447
$SILENCE,4630.052105194582,-10170.960148687382,8759.872169479391,10747.903376567767,-187500.02235174447,-187500.02235174447,-187500.02235174447,-187500.02235174447
$SILENCE,4492.901801216817,-10195.010625721292,8349.002402901937,10794.283246312529,-187500.02235174447,-187500.02235174447,-187500.02235174447,-187500.02235174447
não,4408.166337986749,-10247.403114724531,7909.18712725486,10809.549487775505,-187500.02235174447,-187500.02235174447,-187500.02235174447,-187500.02235174447
não,4567.668386419819,-10231.35456220562,8339.614670230707,10762.677879652725,-187500.02235174447,-187500.02235174447,-187500.02235174447,-187500.02235174447
não,4647.8440937810055,-10178.872666224559,8776.25599816513,10746.428161433716,-187500.02235174447,-187500.02235174447,-187500.02235174447,-187500.02235174447
não,4524.775388810085,-10189.288579140733,8460.023517611447,10774.032565836022,-187500.02235174447,-187500.02235174447,-187500.02235174447,-187500.02235174447
não,4408.903945553773,-10242.97746932238,7930.935374609873,10800.966417904667,-187500.02235174447,-187500.02235174447,-187500.02235174447,-187500.02235174447
não,4527.971688267194,-10235.891966330048,8216.925944915527,10763.996632575589,-187500.02235174447,-187500.02235174447,-187500.02235174447,-187500.02235174447
não,4636.109427941969,-10176.481029567842,8735.061733134,10734.961716528143,-187500.02235174447,-187500.02235174447,-187500.02235174447,-187500.02235174447
não,4539.035801772571,-10179.677329024951,8543.104951751822,10765.9412343432,-187500.02235174447,-187500.02235174447,-187500.02235174447,-187500.02235174447
não,4418.895175325296,-10234.886137829559,7992.0226922062275,10809.773005220057,-187500.02235174447,-187500.02235174447,-187500.02235174447,-187500.02235174447
não,4479.803678966007,-10233.58973665115,8098.998141169327,10766.32121399894,-187500.02235174447,-187500.02235174447,-187500.02235174447,-187500.02235174447
não,4626.520529570643,-10180.437288336432,8687.251351744098,10729.820815303423,-187500.02235174447,-187500.02235174447,-187500.02235174447,-187500.02235174447
não,4565.679081163297,-10171.988328932326,8623.861804468848,10758.296937739486,-187500.02235174447,-187500.02235174447,-187500.02235174447,-187500.02235174447
não,4410.803843832475,-10214.099015486123,8050.360745234579,10801.301694071495,-187500.02235174447,-187500.02235174447,-187500.02235174447,-187500.02235174447
não,4451.59577746341,-10238.417713453498,8013.167442460948,10792.673920711746,-187500.02235174447,-187500.02235174447,-187500.02235174447,-187500.02235174447
não,4610.6284392629195,-10185.06409943868,8616.977467176614,10750.853806835867,-187500.02235174447,-187500.02235174447,-187500.02235174447,-187500.02235174447
não,4587.963770385239,-10162.533541027731,8687.988959311124,10763.639004664303,-187500.02235174447,-187500.02235174447,-187500.02235174447,-187500.02235174447
não,4448.175960561748,-10204.912448514993,8147.233205703879,10815.450348311704,-187500.02235174447,-187500.02235174447,-187500.02235174447,-187500.02235174447
não,4428.595832418899,-10233.1650535065,7935.293964778658,10806.464947040671,-187500.02235174447,-187500.02235174447,-187500.02235174447,-187500.02235174447
não,4581.481764493199,-10184.192381404922,8513.06420720389,10751.725524869624,-187500.02235174447,-187500.02235174447,-187500.02235174447,-187500.02235174447
não,4597.843241434484,-10152.765828700762,8716.24156430263,10761.292071496497,-187500.02235174447,-187500.02235174447,-187500.02235174447,-187500.02235174447
não,4460.5364752455325,-10189.713262285384,8237.4448463255,10817.99844717961,-187500.02235174447,-187500.02235174447,-187500.02235174447,-187500.02235174447
não,4430.898062097795,-10238.238899497856,7916.6526099029315,10844.99935448162,-187500.02235174447,-187500.02235174447,-187500.02235174447,-187500.02235174447
não,4589.9083721528505,-10200.330340901655,8430.809787608361,10789.455269510183,-187500.02235174447,-187500.02235174447,-187500.02235174447,-187500.02235174447
não,4629.58271856102,-10152.542311256208,8755.155951399322,10777.541789715504,-187500.02235174447,-187500.02235174447,-187500.02235174447,-187500.02235174447
não,4494.220554139681,-10177.330395857143,8347.281318578878,10818.847813468912,-187500.02235174447,-187500.02235174447,-187500.02235174447,-187500.02235174447
não,4417.956402058173,-10229.052332526724,7900.425243428379,10840.841930012934,-187500.02235174447,-187500.02235174447,-187500.02235174447,-187500.02235174447
não,4563.71212765123,-10202.789032791738,8303.136623279646,10795.04320562401,-187500.02235174447,-187500.02235174447,-187500.02235174447,-187500.02235174447
não,4636.824683764539,-10150.843578677604,8742.527215782073,10780.8945513838,-187500.02235174447,-187500.02235174447,-187500.02235174447,-187500.02235174447
não,4540.153388995336,-10164.612253262074,8450.322860517843,10828.414360095783,-187500.02235174447,-187500.02235174447,-187500.02235174447,-187500.02235174447
não,4435.614280177865,-10218.792881821739,7930.980078098783,10862.299604690028,-187500.02235174447,-187500.02235174447,-187500.02235174447,-187500.02235174447
não,4552.178627512291,-10211.327399173666,8201.704406941462,10819.026627424553,-187500.02235174447,-187500.02235174447,-187500.02235174447,-187500.02235174447
não,4671.693405114818,-10152.922290911949,8729.943183653735,10789.723490443646,-187500.02235174447,-187500.02235174447,-187500.02235174447,-187500.02235174447
não,4585.0356918615935,-10155.425686290942,8539.059286005413,10829.040208940532,-187500.02235174447,-187500.02235174447,-187500.02235174447,-187500.02235174447
não,4445.672565182754,-10205.135965959546,7970.162686128937,10873.162552495307,-187500.02235174447,-187500.02235174447,-187500.02235174447,-187500.02235174447
não,4521.914365519806,-10211.707378829406,8082.949588650416,10846.206348682208,-187500.02235174447,-187500.02235174447,-187500.02235174447,-187500.02235174447
não,4657.857675296984,-10153.034049634225,8664.407868910774,10799.75942370408,-187500.02235174447,-187500.02235174447,-187500.02235174447,-187500.02235174447
não,4593.864630921439,-10138.751284927284,8611.255420596055,10826.961496706188,-187500.02235174447,-187500.02235174447,-187500.02235174447,-187500.02235174447
não,4460.625882223354,-10186.561666317186,8052.238291768825,10875.91181706331,-187500.02235174447,-187500.02235174447,-187500.02235174447,-187500.02235174447
não,4496.478080329666,-10211.975599762869,8000.985741732806,10859.460933144204,-187500.02235174447,-187500.02235174447,-187500.02235174447,-187500.02235174447
não,4660.673995098352,-10155.984479902325,8600.973618146612,10813.282229099541,-187500.02235174447,-187500.02235174447,-187500.02235174447,-187500.02235174447
não,4637.003497720182,-10135.912613381459,8679.696462118205,10824.838080982934,-187500.02235174447,-187500.02235174447,-187500.02235174447,-187500.02235174447
não,4481.323597588968,-10180.794916247716,8137.80076954374,10869.541569893549,-187500.02235174447,-187500.02235174447,-187500.02235174447,-187500.02235174447
não,4475.735661475142,-10217.228259709867,7924.565127440111,10865.473552402682,-187500.02235174447,-187500.02235174447,-187500.02235174447,-187500.02235174447
não,4646.838265280517,-10169.104953897591,8505.174041411166,10816.813804723479,-187500.02235174447,-187500.02235174447,-187500.02235174447,-187500.02235174447
não,4659.958739275782,-10133.453921491377,8723.01414287259,10820.390083836328,-187500.02235174447,-187500.02235174447,-187500.02235174447,-187500.02235174447
não,4514.493586360644,-10168.054421908191,8250.274747642845,10865.71942159169,-187500.02235174447,-187500.02235174447,-187500.02235174447,-187500.02235174447
não,4465.185638092236,-10212.199117207423,7904.761481852709,10869.161590237807,-187500.02235174447,-187500.02235174447,-187500.02235174447,-187500.02235174447
não,4634.723619785741,-10179.163238902478,8409.977961776014,10816.85850821239,-187500.02235174447,-187500.02235174447,-187500.02235174447,-187500.02235174447
não,4680.12001277447,-10135.711447681362,8744.315355338496,10804.408586550784,-187500.02235174447,-187500.02235174447,-187500.02235174447,-187500.02235174447
não,4548.669403632808,-10159.96309041537,8346.409600545121,10844.217043425686,-187500.02235174447,-187500.02235174447,-187500.02235174447,-187500.02235174447
não,4464.738603203131,-10209.427500894964,7893.853830558519,10868.803962326523,-187500.02235174447,-187500.02235174447,-187500.02235174447,-187500.02235174447
não,4605.487538038199,-10187.701605284406,8294.26298073089,10820.725360003158,-187500.02235174447,-187500.02235174447,-187500.02235174447,-187500.02235174447
não,4688.703082645307,-10138.036029104715,8747.243433862142,10794.730281201635,-187500.02235174447,-187500.02235174447,-187500.02235174447,-187500.02235174447
não,4581.86174414894,-10151.20120658889,8460.247035056,10831.633011297346,-187500.02235174447,-187500.02235174447,-187500.02235174447,-187500.02235174447
não,4472.137030617837,-10204.241896181333,7928.566089697611,10864.110095990909,-187500.02235174447,-187500.02235174447,-187500.02235174447,-187500.02235174447
não,4581.638226704386,-10199.279808912255,8183.823011377217,10824.368694349372,-187500.02235174447,-187500.02235174447,-187500.02235174447,-187500.02235174447
não,4692.704044902807,-10141.701715195384,8719.370808526375,10789.410566021272,-187500.02235174447,-187500.02235174447,-187500.02235174447,-187500.02235174447
não,4611.120177640936,-10145.210939074866,8550.413972188708,10819.540717547026,-187500.02235174447,-187500.02235174447,-187500.02235174447,-187500.02235174447
não,4475.60155100841,-10197.73753854484,7989.184020660404,10860.936148278255,-187500.02235174447,-187500.02235174447,-187500.02235174447,-187500.02235174447
não,4550.211674000225,-10206.901753771515,8084.067175873181,10830.157796163297,-187500.02235174447,-187500.02235174447,-187500.02235174447,-187500.02235174447
não,4690.938257090838,-10148.966032143358,8669.660528857772,10786.929522386734,-187500.02235174447,-187500.02235174447,-187500.02235174447,-187500.02235174447
não,4640.736239044219,-10137.276069793234,8631.148473161278,10810.778833720546,-187500.02235174447,-187500.02235174447,-187500.02235174447,-187500.02235174447
não,4508.883298502362,-10187.276922139756,8076.825210669663,10858.611566854903,-187500.02235174447,-187500.02235174447,-187500.02235174447,-187500.02235174447
não,4541.829769829485,-10211.617971851585,8009.34529415909,10843.211214925197,-187500.02235174447,-187500.02235174447,-187500.02235174447,-187500.02235174447
não,4694.559239692598,-10159.560759015174,8604.505193770552,10793.724452701146,-187500.02235174447,-187500.02235174447,-187500.02235174447,-187500.02235174447
não,4661.97039627676,-10133.431569746921,8696.124994292855,10802.061653382976,-187500.02235174447,-187500.02235174447,-187500.02235174447,-187500.02235174447
não,4518.092217217948,-10180.660805780984,8169.540246670276,10844.19469168123,-187500.02235174447,-187500.02235174447,-187500.02235174447,-187500.02235174447
não,4513.733627049163,-10215.39541666453,7942.155950326437,10837.936203233743,-187500.02235174447,-187500.02235174447,-187500.02235174447,-187500.02235174447
não,4674.889704571928,-10168.479105052842,8511.387826369742,10786.482487497628,-187500.02235174447,-187500.02235174447,-187500.02235174447,-187500.02235174447
não,4691.765271635684,-10129.877642378528,8738.190977357743,10790.639911966315,-187500.02235174447,-187500.02235174447,-187500.02235174447,-187500.02235174447
não,4555.799610114052,-10159.404296803987,8273.654672343097,10839.165549178786,-187500.02235174447,-187500.02235174447,-187500.02235174447,-187500.02235174447
não,4505.016446711594,-10203.101957214112,7926.353266996535,10854.096514474932,-187500.02235174447,-187500.02235174447,-187500.02235174447,-187500.02235174447
não,4669.346471947011,-10168.501456797298,8434.117845787745,10806.911981929778,-187500.02235174447,-187500.02235174447,-187500.02235174447,-187500.02235174447
não,4711.680675945363,-10125.787273143205,8781.910989512324,10792.249237567095,-187500.02235174447,-187500.02235174447,-187500.02235174447,-187500.02235174447
não,4581.14648832637,-10147.602575731586,8389.123784199213,10832.95176422021,-187500.02235174447,-187500.02235174447,-187500.02235174447,-187500.02235174447
não,4488.2973418590245,-10203.124308958568,7903.37567369648,10848.150950449819,-187500.02235174447,-187500.02235174447,-187500.02235174447,-187500.02235174447
não,4637.852864009484,-10173.932930699937,8300.54382092283,10805.973208662655,-187500.02235174447,-187500.02235174447,-187500.02235174447,-187500.02235174447
não,4734.680620989874,-10115.52782243822,8763.649614292337,10784.56023747447,-187500.02235174447,-187500.02235174447,-187500.02235174447,-187500.02235174447
não,4601.665389736341,-10135.040895347704,8460.917587389658,10813.170470377263,-187500.02235174447,-187500.02235174447,-187500.02235174447,-187500.02235174447
não,4485.83864996894,-10201.045596724225,7930.175415298393,10841.467778857683,-187500.02235174447,-187500.02235174447,-187500.02235174447,-187500.02235174447
não,4600.3019333245675,-10203.325474658666,8192.3837295036,10801.726377216146,-187500.02235174447,-187500.02235174447,-187500.02235174447,-187500.02235174447
não,4722.118940605991,-10127.418950488443,8751.73613449766,10782.436821751216,-187500.02235174447,-187500.02235174447,-187500.02235174447,-187500.02235174447
não,4644.714849557263,-10113.896145092982,8592.278789553498,10818.75840649109,-187500.02235174447,-187500.02235174447,-187500.02235174447,-187500.02235174447
não,4507.162214179303,-10179.185590646934,8005.031407479216,10844.462912614694,-187500.02235174447,-187500.02235174447,-187500.02235174447,-187500.02235174447
não,4571.892866121872,-10214.635457353052,8073.2042280679025,10798.485374270127,-187500.02235174447,-187500.02235174447,-187500.02235174447,-187500.02235174447
não,4729.6067749985195,-10157.794971203206,8672.789773081515,10762.499065697082,-187500.02235174447,-187500.02235174447,-187500.02235174447,-187500.02235174447
não,4668.340643446522,-10115.304304993666,8643.888967500803,10801.189935349219,-187500.02235174447,-187500.02235174447,-187500.02235174447,-187500.02235174447
não,4474.439260296734,-10199.793899034727,8069.918521632972,10800.832307437935,-187500.02235174447,-187500.02235174447,-187500.02235174447,-187500.02235174447
não,4521.824958541984,-10226.347771447632,8029.663029868964,10797.345435302906,-187500.02235174447,-187500.02235174447,-187500.02235174447,-187500.02235174447
não,4704.349303764022,-10167.361517830077,8600.079548368401,10779.262874038563,-187500.02235174447,-187500.02235174447,-187500.02235174447,-187500.02235174447
não,4675.113222016481,-10136.739627926307,8707.658494431793,10788.047109609499,-187500.02235174447,-187500.02235174447,-187500.02235174447,-187500.02235174447
não,4511.744321792641,-10175.2516836228,8160.465438421422,10823.631086782347,-187500.02235174447,-187500.02235174447,-187500.02235174447,-187500.02235174447
não,4550.390487955867,-10174.938759200426,7992.2015061618695,10826.223889139163,-187500.02235174447,-187500.02235174447,-187500.02235174447,-187500.02235174447
não,4697.666132171886,-10166.981538174336,8502.91651522118,10758.766324373046,-187500.02235174447,-187500.02235174447,-187500.02235174447,-187500.02235174447
não,4694.4474809703215,-10154.308099068177,8711.748863667115,10747.255175978564,-187500.02235174447,-187500.02235174447,-187500.02235174447,-187500.02235174447
não,4563.689775906775,-10184.125326171557,8264.06577397177,10815.830327967446,-187500.02235174447,-187500.02235174447,-187500.02235174447,-187500.02235174447
não,4512.6607433153085,-10232.673315128484,7905.3202754640915,10883.489058433659,-187500.02235174447,-187500.02235174447,-187500.02235174447,-187500.02235174447
não,4697.6214286829745,-10186.561666317186,8409.128595486713,10770.9927285901,-187500.02235174447,-187500.02235174447,-187500.02235174447,-187500.02235174447
não,4742.324917593589,-10124.982610342815,8770.690413795759,10729.50789088105,-187500.02235174447,-187500.02235174447,-187500.02235174447,-187500.02235174447
não,4617.780997488618,-10164.165218372968,8397.908019770148,10770.165714045253,-187500.02235174447,-187500.02235174447,-187500.02235174447,-187500.02235174447
não,4530.542138879555,-10216.602410865118,7927.292040263658,10806.75551971859,-187500.02235174447,-187500.02235174447,-187500.02235174447,-187500.02235174447
não,4651.174503704847,-10200.196230434924,8290.016149284382,10771.998557090588,-187500.02235174447,-187500.02235174447,-187500.02235174447,-187500.02235174447
não,4742.660193760418,-10139.377133772032,8759.49218982365,10743.589489887892,-187500.02235174447,-187500.02235174447,-187500.02235174447,-187500.02235174447
não,4632.913128484861,-10162.354727072088,8488.521991791964,10774.881932125323,-187500.02235174447,-187500.02235174447,-187500.02235174447,-187500.02235174447
não,4520.305039919024,-10212.690855585439,7972.040232663183,10822.893479215321,-187500.02235174447,-187500.02235174447,-187500.02235174447,-187500.02235174447
não,4626.833453993017,-10217.518832387786,8182.817182876728,10764.331908742417,-187500.02235174447,-187500.02235174447,-187500.02235174447,-187500.02235174447
não,4732.154873866424,-10155.984479902325,8713.91698287928,10728.502062380561,-187500.02235174447,-187500.02235174447,-187500.02235174447,-187500.02235174447
não,4678.3542249625,-10148.653107720984,8591.429423264197,10808.655417997292,-187500.02235174447,-187500.02235174447,-187500.02235174447,-187500.02235174447
não,4547.484761176677,-10205.605352593107,8033.574585148644,10871.53087515007,-187500.02235174447,-187500.02235174447,-187500.02235174447,-187500.02235174447
não,4589.997779130671,-10220.133986489056,8072.153696078503,10789.879952654834,-187500.02235174447,-187500.02235174447,-187500.02235174447,-187500.02235174447
não,4737.407533813422,-10165.193398617912,8660.026926997534,10761.448533707684,-187500.02235174447,-187500.02235174447,-187500.02235174447,-187500.02235174447
não,4671.358128947989,-10133.342162769099,8654.66250832826,10805.861449940377,-187500.02235174447,-187500.02235174447,-187500.02235174447,-187500.02235174447
não,4523.143711464848,-10184.572361060664,8089.900981176017,10847.994488238632,-187500.02235174447,-187500.02235174447,-187500.02235174447,-187500.02235174447
não,4544.333165208479,-10220.044579511235,7994.459032351856,10843.14415969183,-187500.02235174447,-187500.02235174447,-187500.02235174447,-187500.02235174447
não,4719.257917315712,-10162.354727072088,8599.990141390579,10812.790490721523,-187500.02235174447,-187500.02235174447,-187500.02235174447,-187500.02235174447
não,4692.324065247067,-10130.414084245454,8700.327122250454,10807.917810430266,-187500.02235174447,-187500.02235174447,-187500.02235174447,-187500.02235174447
não,4555.75490662514,-10173.77646848875,8171.61895890462,10841.691296302235,-187500.02235174447,-187500.02235174447,-187500.02235174447,-187500.02235174447
não,4536.465351160211,-10222.659733612507,7918.32899073708,10826.08977867243,-187500.02235174447,-187500.02235174447,-187500.02235174447,-187500.02235174447
não,4671.224018481257,-10172.815343477172,8482.576427766851,10796.071385868954,-187500.02235174447,-187500.02235174447,-187500.02235174447,-187500.02235174447
não,4702.538812463143,-10129.028276089224,8755.535931055061,10849.492055117138,-187500.02235174447,-187500.02235174447,-187500.02235174447,-187500.02235174447
não,4545.607214642431,-10163.807590461684,8283.534143392342,10854.789418553046,-187500.02235174447,-187500.02235174447,-187500.02235174447,-187500.02235174447
não,4475.690957986231,-10205.53829735974,7898.346531194035,10867.932244292766,-187500.02235174447,-187500.02235174447,-187500.02235174447,-187500.02235174447
não,4612.617744519442,-10170.87074170956,8364.715679254017,10821.977057692655,-187500.02235174447,-187500.02235174447,-187500.02235174447,-187500.02235174447
não,4669.346471947011,-10125.340238254099,8729.943183653735,10808.253086597097,-187500.02235174447,-187500.02235174447,-187500.02235174447,-187500.02235174447
não,4540.019278528604,-10146.216767575355,8365.542693798863,10847.748619049624,-187500.02235174447,-187500.02235174447,-187500.02235174447,-187500.02235174447
não,4410.1779949877255,-10198.788070534238,7878.833458284553,10835.701028788213,-187500.02235174447,-187500.02235174447,-187500.02235174447,-187500.02235174447
não,4537.649993616342,-10183.208904648889,8236.371962591644,10794.529115501538,-187500.02235174447,-187500.02235174447,-187500.02235174447,-187500.02235174447
não,4639.372782632445,-10135.95731687037,8725.808110929504,10815.360941333884,-187500.02235174447,-187500.02235174447,-187500.02235174447,-187500.02235174447
não,4499.115586175392,-10145.479160008332,8446.679526171629,10821.887650714832,-187500.02235174447,-187500.02235174447,-187500.02235174447,-187500.02235174447
não,4356.690270506176,-10186.87459073956,7900.916981806396,10854.789418553046,-187500.02235174447,-187500.02235174447,-187500.02235174447,-187500.02235174447
não,4457.898969399806,-10191.814326264182,8127.340153138656,10826.805034495,-187500.02235174447,-187500.02235174447,-187500.02235174447,-187500.02235174447
não,4589.886020408395,-10132.626906946529,8676.969549294658,10773.27260652454,-187500.02235174447,-187500.02235174447,-187500.02235174447,-187500.02235174447
não,4502.356589121412,-10131.844595890594,8530.275050434477,10791.064595110965,-187500.02235174447,-187500.02235174447,-187500.02235174447,-187500.02235174447
não,4369.631930545799,-10187.455736095399,7980.600950789565,10869.496866404637,-187500.02235174447,-187500.02235174447,-187500.02235174447,-187500.02235174447
não,4420.25863173707,-10194.496535598819,8030.333582202624,10829.867223485378,-187500.02235174447,-187500.02235174447,-187500.02235174447,-187500.02235174447
não,4570.149430054358,-10141.858177406571,8628.019228937535,10781.118068828353,-187500.02235174447,-187500.02235174447,-187500.02235174447,-187500.02235174447
não,4521.668496330797,-10110.275162491222,8622.744217246081,10815.942086689722,-187500.02235174447,-187500.02235174447,-187500.02235174447,-187500.02235174447
não,4376.873895749319,-10162.175913116445,8069.069155343671,10859.460933144204,-187500.02235174447,-187500.02235174447,-187500.02235174447,-187500.02235174447
não,4408.568669386944,-10196.3070268997,7970.408555317946,10852.934223763255,-187500.02235174447,-187500.02235174447,-187500.02235174447,-187500.02235174447
não,4571.848162632962,-10141.142921584002,8567.624815419294,10793.836211423422,-187500.02235174447,-187500.02235174447,-187500.02235174447,-187500.02235174447
não,4545.227234986691,-10112.197412514379,8689.307712233987,10805.570877262458,-187500.02235174447,-187500.02235174447,-187500.02235174447,-187500.02235174447
não,4381.590113829388,-10150.888282166516,8166.254540235346,10860.019726755587,-187500.02235174447,-187500.02235174447,-187500.02235174447,-187500.02235174447
não,4375.063404448439,-10188.841544251627,7910.058845288617,10859.90796803331,-187500.02235174447,-187500.02235174447,-187500.02235174447,-187500.02235174447
não,4541.89682506285,-10146.261471064267,8465.924378147647,10813.908077944288,-187500.02235174447,-187500.02235174447,-187500.02235174447,-187500.02235174447
não,4567.467220719722,-10111.348046225077,8723.639991717338,10811.18116512074,-187500.02235174447,-187500.02235174447,-187500.02235174447,-187500.02235174447
não,4426.561823673466,-10142.729895440329,8275.420460155066,10855.750543564624,-187500.02235174447,-187500.02235174447,-187500.02235174447,-187500.02235174447
não,4364.692195021176,-10190.2050006634,7888.221190955782,10876.604721141424,-187500.02235174447,-187500.02235174447,-187500.02235174447,-187500.02235174447
não,4520.573260852488,-10154.263395579266,8350.187045358069,10818.199612879707,-187500.02235174447,-187500.02235174447,-187500.02235174447,-187500.02235174447
não,4572.0046248441495,-10100.887429819993,8724.802282429015,10803.223944094652,-187500.02235174447,-187500.02235174447,-187500.02235174447,-187500.02235174447
não,4432.328573742935,-10124.133244053513,8364.961548443025,10856.421095898282,-187500.02235174447,-187500.02235174447,-187500.02235174447,-187500.02235174447
não,4332.304517305436,-10177.643320279518,7888.310597933602,10884.15961076732,-187500.02235174447,-187500.02235174447,-187500.02235174447,-187500.02235174447
não,4477.07676614246,-10163.069982894658,8247.704297030485,10837.444464855727,-187500.02235174447,-187500.02235174447,-187500.02235174447,-187500.02235174447
não,4578.508982480644,-10112.95737182586,8719.72843643766,10812.969304677166,-187500.02235174447,-187500.02235174447,-187500.02235174447,-187500.02235174447
não,4478.350815576412,-10112.532688681209,8474.842724185315,10855.996412753631,-187500.02235174447,-187500.02235174447,-187500.02235174447,-187500.02235174447
não,4347.369593068313,-10164.656956750985,7922.151139038938,10892.67562540479,-187500.02235174447,-187500.02235174447,-187500.02235174447,-187500.02235174447
não,4441.179864547237,-10171.027203920747,8112.945629709438,10859.662098844303,-187500.02235174447,-187500.02235174447,-187500.02235174447,-187500.02235174447
não,4557.543046181565,-10114.387883471,8662.95500552118,10817.909040201788,-187500.02235174447,-187500.02235174447,-187500.02235174447,-187500.02235174447
não,4484.899876701817,-10107.57060141213,8552.269166978498,10845.20052018172,-187500.02235174447,-187500.02235174447,-187500.02235174447,-187500.02235174447
não,4344.486218033579,-10159.136075870523,7981.942055456884,10887.95940732472,-187500.02235174447,-187500.02235174447,-187500.02235174447,-187500.02235174447
não,4416.794111346497,-10171.96597718787,8021.72816058733,10877.431735686272,-187500.02235174447,-187500.02235174447,-187500.02235174447,-187500.02235174447
não,4577.324340024512,-10112.555040425665,8620.71020850065,10832.86235724239,-187500.02235174447,-187500.02235174447,-187500.02235174447,-187500.02235174447
não,4517.153443950826,-10099.345159452578,8615.636362509294,10838.09266544493,-187500.02235174447,-187500.02235174447,-187500.02235174447,-187500.02235174447
não,4358.858389718341,-10146.932023397925,8063.414163996478,10885.29954973454,-187500.02235174447,-187500.02235174447,-187500.02235174447,-187500.02235174447
não,4367.217942144625,-10174.2011516334,7947.498017251256,10882.527933422081,-187500.02235174447,-187500.02235174447,-187500.02235174447,-187500.02235174447
não,4537.0241447715935,-10122.09923530808,8537.40525691572,10832.840005497934,-187500.02235174447,-187500.02235174447,-187500.02235174447,-187500.02235174447
não,4542.410915185323,-10090.829144815105,8669.772287580048,10843.032400969554,-187500.02235174447,-187500.02235174447,-187500.02235174447,-187500.02235174447
não,4384.384081886302,-10133.543328469197,8156.218606974913,10884.092555533953,-187500.02235174447,-187500.02235174447,-187500.02235174447,-187500.02235174447
não,4356.645567017265,-10180.213770891878,7887.1259554774715,10884.986625312165,-187500.02235174447,-187500.02235174447,-187500.02235174447,-187500.02235174447
não,4547.037726287571,-10129.564717956153,8442.544453447397,10853.872997030378,-187500.02235174447,-187500.02235174447,-187500.02235174447,-187500.02235174447
não,4577.704319680252,-10086.470554646321,8702.048206573512,10845.066409714987,-187500.02235174447,-187500.02235174447,-187500.02235174447,-187500.02235174447
não,4409.73096009862,-10112.62209565903,8259.72953554744,10882.259712488618,-187500.02235174447,-187500.02235174447,-187500.02235174447,-187500.02235174447
não,4342.586319754877,-10162.801761961195,7866.718812789776,10895.78251788408,-187500.02235174447,-187500.02235174447,-187500.02235174447,-187500.02235174447
não,4505.1505571783255,-10143.333392540622,8321.688571177552,10837.153892177808,-187500.02235174447,-187500.02235174447,-187500.02235174447,-187500.02235174447
não,4558.817095615518,-10081.463763888332,8711.078311333456,10834.38227586535,-187500.02235174447,-187500.02235174447,-187500.02235174447,-187500.02235174447
não,4412.904907811273,-10090.739737837284,8373.61167354723,10889.00993931412,-187500.02235174447,-187500.02235174447,-187500.02235174447,-187500.02235174447
não,4330.024639370995,-10155.895072924504,7877.112373961494,10904.164422054819,-187500.02235174447,-187500.02235174447,-187500.02235174447,-187500.02235174447
não,4485.4586703132,-10148.451942020887,8208.700502955973,10842.965345736187,-187500.02235174447,-187500.02235174447,-187500.02235174447,-187500.02235174447
não,4560.716993894219,-10089.532743636697,8699.120128049866,10821.306505358996,-187500.02235174447,-187500.02235174447,-187500.02235174447,-187500.02235174447
não,4449.472361740156,-10089.37628142551,8456.558997220875,10860.9137965338,-187500.02235174447,-187500.02235174447,-187500.02235174447,-187500.02235174447
não,4339.188854597671,-10148.541348998708,7910.0811970330715,10901.325750508995,-187500.02235174447,-187500.02235174447,-187500.02235174447,-187500.02235174447
não,4446.521931472055,-10149.72599145484,8105.457795316911,10877.275273475085,-187500.02235174447,-187500.02235174447,-187500.02235174447,-187500.02235174447
não,4550.032860044582,-10086.80583081315,8665.1454764778,10838.047961956021,-187500.02235174447,-187500.02235174447,-187500.02235174447,-187500.02235174447
não,4468.493696271622,-10077.99924349776,8543.887262807759,10860.176188966774,-187500.02235174447,-187500.02235174447,-187500.02235174447,-187500.02235174447
não,4339.702944720143,-10124.490871964797,7990.72629102782,10911.58520121398,-187500.02235174447,-187500.02235174447,-187500.02235174447,-187500.02235174447
não,4384.495840608578,-10148.876625165538,8014.128567472526,10877.096459519442,-187500.02235174447,-187500.02235174447,-187500.02235174447,-187500.02235174447
não,4523.814263798507,-10095.746528595273,8596.346807044365,10831.029514197055,-187500.02235174447,-187500.02235174447,-187500.02235174447,-187500.02235174447
não,4494.108795417404,-10076.747545808263,8603.029978636501,10853.738886563646,-187500.02235174447,-187500.02235174447,-187500.02235174447,-187500.02235174447
não,4361.071212419416,-10124.803796387172,8056.64158542652,10899.850535374944,-187500.02235174447,-187500.02235174447,-187500.02235174447,-187500.02235174447
não,4377.72326203862,-10151.447075777898,7928.834310631074,10877.67760487528,-187500.02235174447,-187500.02235174447,-187500.02235174447,-187500.02235174447
não,4540.287499462068,-10095.590066384086,8523.681285820161,10831.007162452599,-187500.02235174447,-187500.02235174447,-187500.02235174447,-187500.02235174447
não,4526.898804533339,-10068.499752104253,8670.733412591626,10837.422113111272,-187500.02235174447,-187500.02235174447,-187500.02235174447,-187500.02235174447
não,4382.707701052153,-10105.76011011125,8162.208874488935,10884.696052634246,-187500.02235174447,-187500.02235174447,-187500.02235174447,-187500.02235174447
não,4355.773848983508,-10144.495683252297,7882.4320891418565,10894.128488794386,-187500.02235174447,-187500.02235174447,-187500.02235174447,-187500.02235174447
não,4517.801644540029,-10103.167307754435,8425.71358987255,10847.346287649429,-187500.02235174447,-187500.02235174447,-187500.02235174447,-187500.02235174447
não,4536.599461626943,-10061.213083411823,8697.466098960174,10843.971174236676,-187500.02235174447,-187500.02235174447,-187500.02235174447,-187500.02235174447
não,4395.984637258606,-10095.098328006068,8262.456448370987,10887.177096268786,-187500.02235174447,-187500.02235174447,-187500.02235174447,-187500.02235174447
não,4334.830264428886,-10142.86400590706,7869.89276050243,10912.546326225558,-187500.02235174447,-187500.02235174447,-187500.02235174447,-187500.02235174447
não,4490.800737238019,-10112.175060769923,8316.212393786001,10860.10913373341,-187500.02235174447,-187500.02235174447,-187500.02235174447,-187500.02235174447
não,4549.027031544093,-10062.062449701125,8703.076386818455,10833.57761306496,-187500.02235174447,-187500.02235174447,-187500.02235174447,-187500.02235174447
não,4425.913623084262,-10081.396708654966,8363.799257731349,10871.82144782799,-187500.02235174447,-187500.02235174447,-187500.02235174447,-187500.02235174447
não,4324.1237788347935,-10131.174043556935,7879.459307129301,10909.707654679734,-187500.02235174447,-187500.02235174447,-187500.02235174447,-187500.02235174447
não,4455.350870531902,-10114.745511382283,8207.024122121826,10866.725250092179,-187500.02235174447,-187500.02235174447,-187500.02235174447,-187500.02235174447
não,4552.804476357041,-10059.491999088765,8688.72656687815,10829.688409529736,-187500.02235174447,-187500.02235174447,-187500.02235174447,-187500.02235174447
não,4453.473323997656,-10066.398688125455,8456.134314076224,10857.941014521244,-187500.02235174447,-187500.02235174447,-187500.02235174447,-187500.02235174447
não,4336.0372586294725,-10119.349970740077,7913.858641846019,10899.045872574554,-187500.02235174447,-187500.02235174447,-187500.02235174447,-187500.02235174447
não,4440.68812616922,-10124.312058009154,8097.6793882464635,10863.350136679428,-187500.02235174447,-187500.02235174447,-187500.02235174447,-187500.02235174447
não,4571.110555065937,-10067.002185225749,8662.865598543358,10828.280249629051,-187500.02235174447,-187500.02235174447,-187500.02235174447,-187500.02235174447
não,4490.59957153792,-10056.385106609478,8551.084524522368,10857.896311032333,-187500.02235174447,-187500.02235174447,-187500.02235174447,-187500.02235174447
$SILENCE,4342.340450565869,-10104.374301955022,7989.854572994062,10914.87090764891,-187500.02235174447,-187500.02235174447,-187500.02235174447,-187500.02235174447
$SILENCE,4394.86705003584,-10124.24500277579,8012.698055827386,10888.048814302543,-187500.02235174447,-187500.02235174447,-187500.02235174447,-187500.02235174447
$SILENCE,4547.194188498758,-10071.003147483249,8609.266115339531,10828.660229284791,-187500.02235174447,-187500.02235174447,-187500.02235174447,-187500.02235174447
$SILENCE,4504.703522289219,-10048.137312905468,8629.874423727326,10831.901232230812,-187500.02235174447,-187500.02235174447,-187500.02235174447,-187500.02235174447
$SILENCE,4351.2364448590815,-10090.583275626097,8076.556989736198,10877.565846153004,-187500.02235174447,-187500.02235174447,-187500.02235174447,-187500.02235174447
$SILENCE,4373.677596292209,-10122.72508415283,7932.2094240438255,10861.584348867458,-187500.02235174447,-187500.02235174447,-187500.02235174447,-187500.02235174447
$SILENCE,4543.170874496803,-10075.093516718569,8513.444186859631,10814.600982022403,-187500.02235174447,-187500.02235174447,-187500.02235174447,-187500.02235174447
$SILENCE,4536.152426737836,-10041.141216890957,8670.442839913707,10821.015932681077,-187500.02235174447,-187500.02235174447,-187500.02235174447,-187500.02235174447
$SILENCE,4395.403491902768,-10077.37339465301,8178.458592707943,10856.28698543155,-187500.02235174447,-187500.02235174447,-187500.02235174447,-187500.02235174447
$SILENCE,4372.9623404696395,-10126.413121987955,7891.015159012695,10872.24613097264,-187500.02235174447,-187500.02235174447,-187500.02235174447,-187500.02235174447
$SILENCE,4545.696621620253,-10087.811659313638,8432.419113209142,10824.882784471845,-187500.02235174447,-187500.02235174447,-187500.02235174447,-187500.02235174447
$SILENCE,4576.1173458239255,-10045.142179148457,8722.231831816654,10824.167528649275,-187500.02235174447,-187500.02235174447,-187500.02235174447,-187500.02235174447
$SILENCE,4426.204195762181,-10070.1761329384,8290.284370217845,10858.946843021733,-187500.02235174447,-187500.02235174447,-187500.02235174447,-187500.02235174447
$SILENCE,4371.688291035687,-10113.091482292592,7891.41749041289,10883.936093322765,-187500.02235174447,-187500.02235174447,-187500.02235174447,-187500.02235174447
$SILENCE,4534.699563348242,-10087.923418035916,8336.4183707736,10819.406607080295,-187500.02235174447,-187500.02235174447,-187500.02235174447,-187500.02235174447
$SILENCE,4586.063872106537,-10047.444408827354,8724.690523706737,10792.80803117848,-187500.02235174447,-187500.02235174447,-187500.02235174447,-187500.02235174447
$SILENCE,4461.251731068102,-10062.88946424597,8390.04020572188,10845.155816692808,-187500.02235174447,-187500.02235174447,-187500.02235174447,-187500.02235174447
$SILENCE,4364.826305487908,-10105.67070313343,7889.070557245083,10884.941921823254,-187500.02235174447,-187500.02235174447,-187500.02235174447,-187500.02235174447
$SILENCE,4498.445033841734,-10097.288798962689,8204.073691853726,10850.184959195252,-187500.02235174447,-187500.02235174447,-187500.02235174447,-187500.02235174447
$SILENCE,4603.878212437417,-10039.37542907899,8709.781910155049,10818.266668113074,-187500.02235174447,-187500.02235174447,-187500.02235174447,-187500.02235174447
$SILENCE,4512.772502037586,-10045.70097275984,8496.769785495972,10847.458046371705,-187500.02235174447,-187500.02235174447,-187500.02235174447,-187500.02235174447
$SILENCE,4394.732939569109,-10108.643485145985,7953.1083051095375,10878.169343253296,-187500.02235174447,-187500.02235174447,-187500.02235174447,-187500.02235174447
$SILENCE,4481.748280733619,-10115.080787549114,8110.956324452916,10842.518310847081,-187500.02235174447,-187500.02235174447,-187500.02235174447,-187500.02235174447
$SILENCE,4603.72175022623,-10041.878824457983,8673.057994014978,10803.782737706035,-187500.02235174447,-187500.02235174447,-187500.02235174447,-187500.02235174447
$SILENCE,4530.005697012627,-10028.378370806977,8580.007681847535,10842.495959102627,-187500.02235174447,-187500.02235174447,-187500.02235174447,-187500.02235174447
$SILENCE,4384.674654564221,-10082.961330766837,8013.413311649956,10888.652311402835,-187500.02235174447,-187500.02235174447,-187500.02235174447,-187500.02235174447
$SILENCE,4438.855283123885,-10108.576429912619,8014.3297331726235,10866.501732647626,-187500.02235174447,-187500.02235174447,-187500.02235174447,-187500.02235174447
$SILENCE,4605.554593271565,-10057.03330719868,8623.079493412912,10821.507671059093,-187500.02235174447,-187500.02235174447,-187500.02235174447,-187500.02235174447
$SILENCE,4571.870514377417,-10037.27436510019,8645.811217523958,10833.443502598227,-187500.02235174447,-187500.02235174447,-187500.02235174447,-187500.02235174447
$SILENCE,4418.470492180645,-10073.28302541769,8096.5618010236985,10889.568732925503,-187500.02235174447,-187500.02235174447,-187500.02235174447,-187500.02235174447
$SILENCE,4427.053562051483,-10101.736796109295,7933.103493822038,10878.77284035359,-187500.02235174447,-187500.02235174447,-187500.02235174447,-187500.02235174447
$SILENCE,4585.125098839414,-10057.882673487982,8524.441245131642,10831.901232230812,-187500.02235174447,-187500.02235174447,-187500.02235174447,-187500.02235174447
$SILENCE,4569.411822487334,-10030.054751641126,8699.81303212798,10835.81278751049,-187500.02235174447,-187500.02235174447,-187500.02235174447,-187500.02235174447
$SILENCE,4435.16724528876,-10060.006089211236,8216.903593171071,10870.48034316067,-187500.02235174447,-187500.02235174447,-187500.02235174447,-187500.02235174447
$SILENCE,4419.141044514304,-10096.238266973289,7922.531118694677,10895.223724272695,-187500.02235174447,-187500.02235174447,-187500.02235174447,-187500.02235174447
$SILENCE,4575.71501442373,-10063.068278201614,8429.267517240944,10841.646592813326,-187500.02235174447,-187500.02235174447,-187500.02235174447,-187500.02235174447
$SILENCE,4594.557534999554,-10025.293830072145,8708.329046765453,10819.764234991579,-187500.02235174447,-187500.02235174447,-187500.02235174447,-187500.02235174447
$SILENCE,4464.313920058479,-10052.920586218905,8284.785841081839,10864.378316924372,-187500.02235174447,-187500.02235174447,-187500.02235174447,-187500.02235174447
$SILENCE,4390.150831955771,-10095.94769429537,7863.634272054944,10888.67466314729,-187500.02235174447,-187500.02235174447,-187500.02235174447,-187500.02235174447
$SILENCE,4541.628604129387,-10070.89138876097,8317.106463564214,10836.48333984415,-187500.02235174447,-187500.02235174447,-187500.02235174447,-187500.02235174447
$SILENCE,4609.57790727352,-10024.4668155273,8735.620526745382,10808.878935441844,-187500.02235174447,-187500.02235174447,-187500.02235174447,-187500.02235174447
$SILENCE,4488.677321514764,-10041.789417480162,8408.770967575427,10844.9099475038,-187500.02235174447,-187500.02235174447,-187500.02235174447,-187500.02235174447
$SILENCE,4388.519154610533,-10096.528839651208,7902.414548684901,10882.527933422081,-187500.02235174447,-187500.02235174447,-187500.02235174447,-187500.02235174447
$SILENCE,4512.012542726105,-10082.00020575526,8192.227267292414,10835.209290410196,-187500.02235174447,-187500.02235174447,-187500.02235174447,-187500.02235174447
$SILENCE,4616.059913165559,-10028.847757440539,8699.656569916793,10816.590287278925,-187500.02235174447,-187500.02235174447,-187500.02235174447,-187500.02235174447
$SILENCE,4523.70250507623,-10036.737923233262,8494.624018028262,10845.37933413736,-187500.02235174447,-187500.02235174447,-187500.02235174447,-187500.02235174447
$SILENCE,4396.945762270184,-10081.821391799616,7949.4649707633225,10876.604721141424,-187500.02235174447,-187500.02235174447,-187500.02235174447,-187500.02235174447
$SILENCE,4480.340120832935,-10085.822354057116,8087.777565452763,10831.43184559725,-187500.02235174447,-187500.02235174447,-187500.02235174447,-187500.02235174447
$SILENCE,4610.494328796188,-10030.926469674881,8663.111467732366,10796.496069013605,-187500.02235174447,-187500.02235174447,-187500.02235174447,-187500.02235174447
$SILENCE,4550.189322255769,-10023.952725404826,8591.071795352913,10825.7545025056,-187500.02235174447,-187500.02235174447,-187500.02235174447,-187500.02235174447
$SILENCE,4414.380122945324,-10074.825295785105,8035.228614238336,10864.355965179917,-187500.02235174447,-187500.02235174447,-187500.02235174447,-187500.02235174447
$SILENCE,4463.822181680463,-10097.869944318527,8017.593087863099,10843.188863180741,-187500.02235174447,-187500.02235174447,-187500.02235174447,-187500.02235174447
$SILENCE,4621.111407412459,-10043.264632614211,8613.155318874755,10796.8984004138,-187500.02235174447,-187500.02235174447,-187500.02235174447,-187500.02235174447
$SILENCE,4567.690738164275,-10019.325914302579,8644.51481634555,10810.600019764903,-187500.02235174447,-187500.02235174447,-187500.02235174447,-187500.02235174447
$SILENCE,4411.653210121776,-10061.503656089742,8089.722167220375,10854.76706680859,-187500.02235174447,-187500.02235174447,-187500.02235174447,-187500.02235174447
$SILENCE,4430.272213253047,-10096.774708840217,7927.627316430488,10850.967270251187,-187500.02235174447,-187500.02235174447,-187500.02235174447,-187500.02235174447
$SILENCE,4604.302895582067,-10046.46093207132,8529.224518445077,10794.193839334708,-187500.02235174447,-187500.02235174447,-187500.02235174447,-187500.02235174447
$SILENCE,4596.6585989783525,-10011.681617698863,8710.251296788609,10796.47371726915,-187500.02235174447,-187500.02235174447,-187500.02235174447,-187500.02235174447
$SILENCE,4453.361565275379,-10053.099400174548,8211.24860182388,10846.675735315768,-187500.02235174447,-187500.02235174447,-187500.02235174447,-187500.02235174447
$SILENCE,4417.308201468969,-10100.596857142074,7903.778005096675,10856.130523220363,-187500.02235174447,-187500.02235174447,-187500.02235174447,-187500.02235174447
$SILENCE,4579.626569703409,-10062.733002034784,8428.798130607383,10800.161755104275,-187500.02235174447,-187500.02235174447,-187500.02235174447,-187500.02235174447
$SILENCE,4610.002590418171,-10018.498899757731,8723.975267884167,10785.968397375154,-187500.02235174447,-187500.02235174447,-187500.02235174447,-187500.02235174447
$SILENCE,4460.804696178996,-10036.201481366335,8296.431099943055,10824.279287371552,-187500.02235174447,-187500.02235174447,-187500.02235174447,-187500.02235174447
$SILENCE,4370.034261945994,-10088.683377347395,7883.996711253729,10849.559110350503,-187500.02235174447,-187500.02235174447,-187500.02235174447,-187500.02235174447
$SILENCE,4535.615984870909,-10071.047850972158,8342.78861794336,10800.049996381998,-187500.02235174447,-187500.02235174447,-187500.02235174447,-187500.02235174447
$SILENCE,4606.873346194428,-10018.610658480007,8748.718648996193,10774.814876891956,-187500.02235174447,-187500.02235174447,-187500.02235174447,-187500.02235174447
$SILENCE,4485.861001713396,-10033.474568542788,8401.75251981646,10813.282229099541,-187500.02235174447,-187500.02235174447,-187500.02235174447,-187500.02235174447
$SILENCE,4395.939933769695,-10085.464726145832,7902.481603918267,10851.123732462374,-187500.02235174447,-187500.02235174447,-187500.02235174447,-187500.02235174447
$SILENCE,4491.359530849401,-10068.052717215147,8211.159194846057,10806.241429596119,-187500.02235174447,-187500.02235174447,-187500.02235174447,-187500.02235174447
$SILENCE,4576.273808035113,-10014.117957844492,8733.340648810941,10768.534036700015,-187500.02235174447,-187500.02235174447,-187500.02235174447,-187500.02235174447
$SILENCE,4524.4624643877105,-10021.65049572593,8572.899827110747,10815.539755289527,-187500.02235174447,-187500.02235174447,-187500.02235174447,-187500.02235174447
$SILENCE,4416.3917799463015,-10077.440449886377,8023.605707121576,10848.95561325021,-187500.02235174447,-187500.02235174447,-187500.02235174447,-187500.02235174447
$SILENCE,4484.788117979541,-10081.79904005516,8139.007763744326,10804.81091795098,-187500.02235174447,-187500.02235174447,-187500.02235174447,-187500.02235174447
$SILENCE,4585.326264539512,-10020.354094547522,8717.783834670048,10765.181275031719,-187500.02235174447,-187500.02235174447,-187500.02235174447,-187500.02235174447
$SILENCE,4546.255415231635,-10014.721454944785,8616.396321820775,10781.296882783996,-187500.02235174447,-187500.02235174447,-187500.02235174447,-187500.02235174447
$SILENCE,4412.793149088997,-10055.759257764728,8071.952530378406,10827.09560717292,-187500.02235174447,-187500.02235174447,-187500.02235174447,-187500.02235174447
$SILENCE,4454.635614709332,-10079.630920842996,8096.047710901226,10830.627182796858,-187500.02235174447,-187500.02235174447,-187500.02235174447,-187500.02235174447
$SILENCE,4601.128947869414,-10028.579536507075,8662.507970632074,10781.22982755063,-187500.02235174447,-187500.02235174447,-187500.02235174447,-187500.02235174447
$SILENCE,4563.823886373507,-10011.726321187774,8672.789773081515,10759.526283684527,-187500.02235174447,-187500.02235174447,-187500.02235174447,-187500.02235174447
$SILENCE,4417.688181124709,-10048.830216983582,8130.804673529229,10820.546546047515,-187500.02235174447,-187500.02235174447,-187500.02235174447,-187500.02235174447
$SILENCE,4419.945707314695,-10075.272330674212,7947.833293418085,10828.704932773702,-187500.02235174447,-187500.02235174447,-187500.02235174447,-187500.02235174447
$SILENCE,4587.3826250294005,-10035.173301121391,8509.934962980147,10774.837228636412,-187500.02235174447,-187500.02235174447,-187500.02235174447,-187500.02235174447
$SILENCE,4597.440910034288,-10011.547507232131,8707.43497698724,10784.694347941202,-187500.02235174447,-187500.02235174447,-187500.02235174447,-187500.02235174447
$SILENCE,4453.160399575281,-10038.83898721206,8258.969576235959,10840.506653846103,-187500.02235174447,-187500.02235174447,-187500.02235174447,-187500.02235174447
$SILENCE,4381.8806865073075,-10082.290778433178,7882.812068797597,10835.008124710099,-187500.02235174447,-187500.02235174447,-187500.02235174447,-187500.02235174447
$SILENCE,4530.162159223814,-10041.454141313332,8410.961438532047,10791.779850933535,-187500.02235174447,-187500.02235174447,-187500.02235174447,-187500.02235174447
$SILENCE,4573.52454346711,-9991.565047689086,8750.327974596974,10792.673920711746,-187500.02235174447,-187500.02235174447,-187500.02235174447,-187500.02235174447
$SILENCE,4469.410117794289,-10019.147100346936,8345.090847622258,10835.879842743856,-187500.02235174447,-187500.02235174447,-187500.02235174447,-187500.02235174447
$SILENCE,4360.691232763676,-10065.28110090269,7890.232847956759,10861.00320351162,-187500.02235174447,-187500.02235174447,-187500.02235174447,-187500.02235174447
$SILENCE,4492.8794494723625,-10043.398743080943,8299.046254044326,10814.422168066762,-187500.02235174447,-187500.02235174447,-187500.02235174447,-187500.02235174447
$SILENCE,4592.322360554023,-9990.447460466321,8726.702180707714,10784.292016541007,-187500.02235174447,-187500.02235174447,-187500.02235174447,-187500.02235174447
$SILENCE,4480.429527810756,-10003.88085888396,8422.025552037425,10817.439653568228,-187500.02235174447,-187500.02235174447,-187500.02235174447,-187500.02235174447
$SILENCE,4346.341412823369,-10047.667926271908,7919.692447148854,10853.157741207808,-187500.02235174447,-187500.02235174447,-187500.02235174447,-187500.02235174447
$SILENCE,4465.207989836692,-10045.008068681725,8191.266142280834,10808.878935441844,-187500.02235174447,-187500.02235174447,-187500.02235174447,-187500.02235174447
$SILENCE,4577.257284791146,-9995.007216335203,8717.739131181137,10778.257045538074,-187500.02235174447,-187500.02235174447,-187500.02235174447,-187500.02235174447
$SILENCE,4503.854155999918,-9997.845887881027,8561.567492671908,10836.528043333059,-187500.02235174447,-187500.02235174447,-187500.02235174447,-187500.02235174447
$SILENCE,4356.779677483997,-10043.286984358667,7980.91387521194,10873.229607728674,-187500.02235174447,-187500.02235174447,-187500.02235174447,-187500.02235174447
$SILENCE,4418.068160780449,-10042.929356447383,8083.374271795067,10830.135444418842,-187500.02235174447,-187500.02235174447,-187500.02235174447,-187500.02235174447
$SILENCE,4549.563473411021,-9984.434841207843,8671.135743991821,10788.47179275415,-187500.02235174447,-187500.02235174447,-187500.02235174447,-187500.02235174447
$SILENCE,4497.953295463717,-9976.388213203933,8595.922123899714,10824.703970516202,-187500.02235174447,-187500.02235174447,-187500.02235174447,-187500.02235174447
$SILENCE,4360.445363574668,-10030.278269085678,8018.710675085864,10864.154799479818,-187500.02235174447,-187500.02235174447,-187500.02235174447,-187500.02235174447
$SILENCE,4391.134308711804,-10052.853530985538,7990.815698005641,10834.471682843172,-187500.02235174447,-187500.02235174447,-187500.02235174447,-187500.02235174447
$SILENCE,4536.890034304862,-9994.224905279269,8604.974580404112,10794.193839334708,-187500.02235174447,-187500.02235174447,-187500.02235174447,-187500.02235174447
$SILENCE,4500.188469909247,-9978.511628927186,8670.554598635985,10804.699159228703,-187500.02235174447,-187500.02235174447,-187500.02235174447,-187500.02235174447
$SILENCE,4374.079927692405,-10014.855565411517,8142.047600990249,10862.67958434577,-187500.02235174447,-187500.02235174447,-187500.02235174447,-187500.02235174447
$SILENCE,4378.393814372279,-10043.421094825399,7948.012107373728,10865.115924491398,-187500.02235174447,-187500.02235174447,-187500.02235174447,-187500.02235174447
$SILENCE,4509.553850836021,-9996.907114613905,8514.360608382298,10814.869202955866,-187500.02235174447,-187500.02235174447,-187500.02235174447,-187500.02235174447
$SILENCE,4492.097138416426,-9958.797390317606,8706.272686275564,10815.696217500714,-187500.02235174447,-187500.02235174447,-187500.02235174447,-187500.02235174447
$SILENCE,4360.802991485953,-10010.139347331447,8201.592648219186,10831.364790363883,-187500.02235174447,-187500.02235174447,-187500.02235174447,-187500.02235174447
$SILENCE,4341.356973809836,-10047.220891382802,7884.533153120656,10850.76610455109,-187500.02235174447,-187500.02235174447,-187500.02235174447,-187500.02235174447
$SILENCE,4498.445033841734,-10001.891553627438,8418.538679902396,10812.745787232612,-187500.02235174447,-187500.02235174447,-187500.02235174447,-187500.02235174447
$SILENCE,4522.003772497627,-9964.519436898165,8732.424227288273,10794.015025379065,-187500.02235174447,-187500.02235174447,-187500.02235174447,-187500.02235174447
$SILENCE,4398.510384382055,-9994.493126212732,8338.720600452496,10838.897328245323,-187500.02235174447,-187500.02235174447,-187500.02235174447,-187500.02235174447
$SILENCE,4301.839089612852,-10052.026516440692,7889.294074689637,10849.983793495154,-187500.02235174447,-187500.02235174447,-187500.02235174447,-187500.02235174447
$SILENCE,4451.327556529946,-10016.286077056657,8296.92283832107,10820.546546047515,-187500.02235174447,-187500.02235174447,-187500.02235174447,-187500.02235174447
$SILENCE,4525.736513821664,-9968.006309033193,8722.924735894769,10794.32794980144,-187500.02235174447,-187500.02235174447,-187500.02235174447,-187500.02235174447
$SILENCE,4430.585137675422,-10001.869201882982,8416.169394990135,10801.212287093675,-187500.02235174447,-187500.02235174447,-187500.02235174447,-187500.02235174447
$SILENCE,4340.172331353704,-10035.441522054854,7927.202633285837,10856.689316831746,-187500.02235174447,-187500.02235174447,-187500.02235174447,-187500.02235174447
$SILENCE,4364.96041595464,-10013.067425855092,8179.039738063781,10833.130578175853,-187500.02235174447,-187500.02235174447,-187500.02235174447,-187500.02235174447
$SILENCE,4518.136920706859,-9976.678785881852,8688.19012501122,10762.230844763619,-187500.02235174447,-187500.02235174447,-187500.02235174447,-187500.02235174447
$SILENCE,4449.78528616253,-9980.79150686163,8522.049608474923,10807.023740652054,-187500.02235174447,-187500.02235174447,-187500.02235174447,-187500.02235174447
$SILENCE,4269.853743297308,-10036.067370899604,7947.252148062247,10848.620337083381,-187500.02235174447,-187500.02235174447,-187500.02235174447,-187500.02235174447
$SILENCE,4334.539691750967,-10025.450292283333,8071.952530378406,10857.024592998576,-187500.02235174447,-187500.02235174447,-187500.02235174447,-187500.02235174447
$SILENCE,4482.061205155994,-9956.629271105441,8660.719831075648,10816.210307623185,-187500.02235174447,-187500.02235174447,-187500.02235174447,-187500.02235174447
$SILENCE,4438.005916834583,-9968.565102644576,8603.633475736795,10818.266668113074,-187500.02235174447,-187500.02235174447,-187500.02235174447,-187500.02235174447
$SILENCE,4281.767223091987,-10043.644612269953,8000.24813416578,10819.540717547026,-187500.02235174447,-187500.02235174447,-187500.02235174447,-187500.02235174447
$SILENCE,4307.896412360241,-10047.489112316265,7969.805058217652,10829.397836851816,-187500.02235174447,-187500.02235174447,-187500.02235174447,-187500.02235174447
$SILENCE,4477.9708359206725,-9979.718623127774,8584.03099584949,10802.866316183367,-187500.02235174447,-187500.02235174447,-187500.02235174447,-187500.02235174447
$SILENCE,4359.171314140715,-9955.712849582775,8639.038638954002,10811.002351165098,-187500.02235174447,-187500.02235174447,-187500.02235174447,-187500.02235174447
$SILENCE,4226.893690454208,-10006.69717868533,8117.103054178126,10846.988659738143,-187500.02235174447,-187500.02235174447,-187500.02235174447,-187500.02235174447
$SILENCE,4284.628246382266,-10042.75054249174,7919.670095404398,10852.53189236306,-187500.02235174447,-187500.02235174447,-187500.02235174447,-187500.02235174447
$SILENCE,4403.271305951036,-9972.946044557815,8475.557980007885,10839.187900923242,-187500.02235174447,-187500.02235174447,-187500.02235174447,-187500.02235174447
$SILENCE,4374.392852114779,-9932.757608027174,8668.43118291273,10845.71461030419,-187500.02235174447,-187500.02235174447,-187500.02235174447,-187500.02235174447
$SILENCE,4251.748830288509,-9982.333777229045,8198.150479573069,10859.10330523292,-187500.02235174447,-187500.02235174447,-187500.02235174447,-187500.02235174447
$SILENCE,4275.329920688859,-10042.929356447383,7888.444708400334,10851.369601651384,-187500.02235174447,-187500.02235174447,-187500.02235174447,-187500.02235174447
$SILENCE,4379.734919039598,-9989.173411032369,8385.94983648656,10825.151005405309,-187500.02235174447,-187500.02235174447,-187500.02235174447,-187500.02235174447
$SILENCE,4382.8194597744305,-9934.389285372412,8701.735282151138,10837.66798230028,-187500.02235174447,-187500.02235174447,-187500.02235174447,-187500.02235174447
$SILENCE,4254.74396404552,-9951.041334991614,8312.479652461965,10896.765994640113,-187500.02235174447,-187500.02235174447,-187500.02235174447,-187500.02235174447
$SILENCE,4216.097797882295,-10003.634989694952,7886.544810121633,10898.330616751984,-187500.02235174447,-187500.02235174447,-187500.02235174447,-187500.02235174447
$SILENCE,4332.23746207207,-9984.390137718932,8261.070640214759,10861.360831422906,-187500.02235174447,-187500.02235174447,-187500.02235174447,-187500.02235174447
$SILENCE,4384.317026652936,-9930.343619626,8734.860567433901,10836.103360188408,-187500.02235174447,-187500.02235174447,-187500.02235174447,-187500.02235174447
$SILENCE,4259.191961192127,-9946.43687563382,8408.212173964044,10871.039136772053,-187500.02235174447,-187500.02235174447,-187500.02235174447,-187500.02235174447
$SILENCE,4145.332174936792,-9997.577666947564,7875.078365216061,10903.940904610266,-187500.02235174447,-187500.02235174447,-187500.02235174447,-187500.02235174447
$SILENCE,4296.072339543383,-9983.630178407453,8134.55976659772,10884.539590423059,-187500.02235174447,-187500.02235174447,-187500.02235174447,-187500.02235174447
$SILENCE,4349.694174491665,-9929.807177759074,8665.681918344728,10858.611566854903,-187500.02235174447,-187500.02235174447,-187500.02235174447,-187500.02235174447
$SILENCE,4300.341522734347,-9944.089942466015,8504.570544310875,10858.902139532822,-187500.02235174447,-187500.02235174447,-187500.02235174447,-187500.02235174447
$SILENCE,4177.339872996792,-9975.896474825917,7952.594214987066,10918.670704206314,-187500.02235174447,-187500.02235174447,-187500.02235174447,-187500.02235174447
$SILENCE,4249.9830424765405,-9971.180256745847,8046.985631821827,10908.411253501326,-187500.02235174447,-187500.02235174447,-187500.02235174447,-187500.02235174447
