WORD,Channel_1,Channel_2,Channel_3,Channel_4,Channel_5,Channel_6,Channel_7,Channel_8
$SILENCE,3728.941527478877,-6856.330556432075,7064.134724633065,10569.268234880952,-187500.02235174447,-187500.02235174447,-187500.02235174447,-187500.02235174447
$SILENCE,3680.8629251555117,-6901.79400465417,6707.736159293194,10576.912531484668,-187500.02235174447,-187500.02235174447,-187500.02235174447,-187500.02235174447
$SILENCE,3866.1812384344626,-6873.250826984743,7212.416197349572,10521.144929068676,-187500.02235174447,-187500.02235174447,-187500.02235174447,-187500.02235174447
$SILENCE,3914.550413435747,-6828.659096796406,7558.443553262181,10512.114824308734,-187500.02235174447,-187500.02235174447,-187500.02235174447,-187500.02235174447
$SILENCE,3761.150391238975,-6849.2227016952875,7165.209313059964,10557.354755086275,-187500.02235174447,-187500.02235174447,-187500.02235174447,-187500.02235174447
$SILENCE,3664.412041236406,-6899.469423230818,6704.696322047273,10578.946540230101,-187500.02235174447,-187500.02235174447,-187500.02235174447,-187500.02235174447
$SILENCE,3829.859653694589,-6884.829030612592,7101.015102984322,10529.213908817042,-187500.02235174447,-187500.02235174447,-187500.02235174447,-187500.02235174447
$SILENCE,3925.815692641222,-6833.39766662093,7552.520340981525,10507.845641117769,-187500.02235174447,-187500.02235174447,-187500.02235174447,-187500.02235174447
$SILENCE,3798.924839368444,-6842.740695803249,7264.29459623034,10549.0399061489,-187500.02235174447,-187500.02235174447,-187500.02235174447,-187500.02235174447
$SILENCE,3663.2944540136405,-6894.730853406293,6732.747761338683,10582.232246665031,-187500.02235174447,-187500.02235174447,-187500.02235174447,-187500.02235174447
$SILENCE,3792.8451648766,-6897.7036354188485,6985.47893589484,10537.171129843133,-187500.02235174447,-187500.02235174447,-187500.02235174447,-187500.02235174447
$SILENCE,3926.843872886166,-6843.500655114729,7527.017000558019,10501.65420790365,-187500.02235174447,-187500.02235174447,-187500.02235174447,-187500.02235174447
$SILENCE,3826.4845402818373,-6837.666849811894,7358.55190259837,10537.774626943425,-187500.02235174447,-187500.02235174447,-187500.02235174447,-187500.02235174447
$SILENCE,3671.2293232952743,-6885.700748646349,6790.571724244563,10579.61709256376,-187500.02235174447,-187500.02235174447,-187500.02235174447,-187500.02235174447
$SILENCE,3761.9327022949105,-6901.056397087145,6879.531667176684,10548.034077648412,-187500.02235174447,-187500.02235174447,-187500.02235174447,-187500.02235174447
$SILENCE,3921.30064026125,-6847.412210394408,7474.915084232698,10506.79510912837,-187500.02235174447,-187500.02235174447,-187500.02235174447,-187500.02235174447
$SILENCE,3853.038412694742,-6831.944803231336,7440.403990793704,10531.180862329109,-187500.02235174447,-187500.02235174447,-187500.02235174447,-187500.02235174447
$SILENCE,3686.562619991615,-6875.441297941363,6877.810582853625,10578.365394874263,-187500.02235174447,-187500.02235174447,-187500.02235174447,-187500.02235174447
$SILENCE,3726.9075187334442,-6904.31975177762,6797.724282470261,10559.656984765172,-187500.02235174447,-187500.02235174447,-187500.02235174447,-187500.02235174447
$SILENCE,3911.935259334476,-6857.604605866028,7399.187374018118,10509.991408585478,-187500.02235174447,-187500.02235174447,-187500.02235174447,-187500.02235174447
$SILENCE,3883.0791572426747,-6831.296602642132,7495.165764709207,10523.245993047476,-187500.02235174447,-187500.02235174447,-187500.02235174447,-187500.02235174447
$SILENCE,3712.3788848374948,-6867.439373426363,6963.417764117452,10570.229359892532,-187500.02235174447,-187500.02235174447,-187500.02235174447,-187500.02235174447
$SILENCE,3702.2535445992407,-6905.839670400581,6736.94988929628,10568.105944169278,-187500.02235174447,-187500.02235174447,-187500.02235174447,-187500.02235174447
$SILENCE,3893.9197533034985,-6869.74160310526,7307.25464907344,10513.008894086945,-187500.02235174447,-187500.02235174447,-187500.02235174447,-187500.02235174447
$SILENCE,3905.4979569313477,-6831.54247183114,7535.085980306385,10513.098301064767,-187500.02235174447,-187500.02235174447,-187500.02235174447,-187500.02235174447
$SILENCE,3742.3525741520616,-6856.777591321182,7068.180390379476,10559.969909187545,-187500.02235174447,-187500.02235174447,-187500.02235174447,-187500.02235174447
$SILENCE,3687.948428147844,-6905.660856444938,6702.37174062392,10570.877560481735,-187500.02235174447,-187500.02235174447,-187500.02235174447,-187500.02235174447
$SILENCE,3870.517476858792,-6884.247885256754,7196.501755297394,10517.412187744641,-187500.02235174447,-187500.02235174447,-187500.02235174447,-187500.02235174447
$SILENCE,3923.8040356402444,-6835.521082344185,7557.191855572683,10507.733882395492,-187500.02235174447,-187500.02235174447,-187500.02235174447,-187500.02235174447
$SILENCE,3774.829658845623,-6848.663908083905,7181.235513834419,10554.001993417978,-187500.02235174447,-187500.02235174447,-187500.02235174447,-187500.02235174447
$SILENCE,3673.598608207537,-6899.804699397648,6709.636057571895,10576.621958806749,-187500.02235174447,-187500.02235174447,-187500.02235174447,-187500.02235174447
$SILENCE,3838.018040420776,-6892.160402793933,7083.1337074200765,10526.621106460227,-187500.02235174447,-187500.02235174447,-187500.02235174447,-187500.02235174447
$SILENCE,3937.2150823134284,-6839.857320768514,7555.560178227446,10504.850507360758,-187500.02235174447,-187500.02235174447,-187500.02235174447,-187500.02235174447
$SILENCE,3806.792653416712,-6842.2936609141425,7283.9194278621,10546.84943519228,-187500.02235174447,-187500.02235174447,-187500.02235174447,-187500.02235174447
$SILENCE,3673.4421459963496,-6893.657969672438,6741.219072487244,10581.584046075826,-187500.02235174447,-187500.02235174447,-187500.02235174447,-187500.02235174447
$SILENCE,3798.27663877924,-6900.743472664771,6968.156333941977,10538.378124043718,-187500.02235174447,-187500.02235174447,-187500.02235174447,-187500.02235174447
$SILENCE,3929.839006643177,-6847.188692949855,7522.546651666958,10505.677521905603,-187500.02235174447,-187500.02235174447,-187500.02235174447,-187500.02235174447
$SILENCE,3833.7041537409013,-6839.365582390497,7374.421641161638,10537.931089154612,-187500.02235174447,-187500.02235174447,-187500.02235174447,-187500.02235174447
$SILENCE,3681.1311460889756,-6886.751280635748,6802.664017994884,10576.75606927348,-187500.02235174447,-187500.02235174447,-187500.02235174447,-187500.02235174447
$SILENCE,3763.452620917871,-6907.337237279086,6870.658024627927,10548.078781137321,-187500.02235174447,-187500.02235174447,-187500.02235174447,-187500.02235174447
$SILENCE,3929.235509542884,-6856.934053532369,7473.216351654095,10505.74457713897,-187500.02235174447,-187500.02235174447,-187500.02235174447,-187500.02235174447
$SILENCE,3868.2823024132613,-6836.213986422299,7449.232929853551,10526.554051226862,-187500.02235174447,-187500.02235174447,-187500.02235174447,-187500.02235174447
$SILENCE,3705.628658011992,-6877.587065409072,6883.018539311713,10572.777458760436,-187500.02235174447,-187500.02235174447,-187500.02235174447,-187500.02235174447
$SILENCE,3745.16889395343,-6912.567545481628,6785.430823019841,10556.147760885688,-187500.02235174447,-187500.02235174447,-187500.02235174447,-187500.02235174447
$SILENCE,3921.010067583331,-6866.746469348249,7387.8326878348225,10505.945742839069,-187500.02235174447,-187500.02235174447,-187500.02235174447,-187500.02235174447
$SILENCE,3894.523250403792,-6835.0740474550785,7502.206564212628,10518.216850545032,-187500.02235174447,-187500.02235174447,-187500.02235174447,-187500.02235174447
$SILENCE,3727.8686437450224,-6868.132277504477,6977.521714868751,10563.121505155743,-187500.02235174447,-187500.02235174447,-187500.02235174447,-187500.02235174447
$SILENCE,3714.59170753857,-6909.639466957983,6727.85272930297,10560.685165010114,-187500.02235174447,-187500.02235174447,-187500.02235174447,-187500.02235174447
$SILENCE,3903.195727252451,-6875.530704919184,7295.028244856388,10510.84077487478,-187500.02235174447,-187500.02235174447,-187500.02235174447,-187500.02235174447
$SILENCE,3920.1159978051187,-6834.582309077062,7544.071381577419,10511.108995808245,-187500.02235174447,-187500.02235174447,-187500.02235174447,-187500.02235174447
$SILENCE,3762.3797371840164,-6860.331518689575,7081.345567863652,10555.141932385199,-187500.02235174447,-187500.02235174447,-187500.02235174447,-187500.02235174447
$SILENCE,3696.375035807495,-6907.136071578989,6696.649694043362,10567.70361276908,-187500.02235174447,-187500.02235174447,-187500.02235174447,-187500.02235174447
$SILENCE,3874.3172734161944,-6884.873734101503,7177.391013788107,10512.450100475562,-187500.02235174447,-187500.02235174447,-187500.02235174447,-187500.02235174447
$SILENCE,3932.7000299334563,-6837.488035856251,7557.169503828229,10507.80093762886,-187500.02235174447,-187500.02235174447,-187500.02235174447,-187500.02235174447
$SILENCE,3790.2970660086953,-6850.78732380716,7188.969217415955,10550.13514162721,-187500.02235174447,-187500.02235174447,-187500.02235174447,-187500.02235174447
$SILENCE,3688.7083874593245,-6902.866888388025,6703.712845291239,10574.27502563894,-187500.02235174447,-187500.02235174447,-187500.02235174447,-187500.02235174447
$SILENCE,3842.980127689854,-6896.228420284799,7061.720736231892,10524.184766314598,-187500.02235174447,-187500.02235174447,-187500.02235174447,-187500.02235174447
$SILENCE,3943.2724050608167,-6840.661983568905,7542.663221676734,10495.507478178439,-187500.02235174447,-187500.02235174447,-187500.02235174447,-187500.02235174447
$SILENCE,3825.925746670455,-6843.008916736712,7287.138079063664,10532.432560018608,-187500.02235174447,-187500.02235174447,-187500.02235174447,-187500.02235174447
$SILENCE,3697.336160819073,-6892.942713849869,6740.615575386951,10570.341118614808,-187500.02235174447,-187500.02235174447,-187500.02235174447,-187500.02235174447
$SILENCE,3816.3592000435833,-6901.972818609813,6950.2972901221865,10532.901946652168,-187500.02235174447,-187500.02235174447,-187500.02235174447,-187500.02235174447
$SILENCE,3950.4696667754256,-6851.480227885274,7510.521413150002,10498.010873557434,-187500.02235174447,-187500.02235174447,-187500.02235174447,-187500.02235174447
$SILENCE,3854.625386551069,-6838.0691812120895,7374.399289417182,10529.28096405041,-187500.02235174447,-187500.02235174447,-187500.02235174447,-187500.02235174447
$SILENCE,3697.8949544304555,-6883.93496083438,6805.614448262983,10572.553941315884,-187500.02235174447,-187500.02235174447,-187500.02235174447,-187500.02235174447
$SILENCE,3774.852010590078,-6908.164251823932,6848.820370295092,10545.485978780507,-187500.02235174447,-187500.02235174447,-187500.02235174447,-187500.02235174447
$SILENCE,3940.903120148554,-6859.415097166908,7450.037592653942,10499.843716602769,-187500.02235174447,-187500.02235174447,-187500.02235174447,-187500.02235174447
$SILENCE,3880.8439827971442,-6834.962288732802,7451.043421154431,10526.285830293398,-187500.02235174447,-187500.02235174447,-187500.02235174447,-187500.02235174447
$SILENCE,3718.235041884785,-6875.441297941363,6894.082652817089,10573.0456796939,-187500.02235174447,-187500.02235174447,-187500.02235174447,-187500.02235174447
$SILENCE,3747.918158521433,-6909.885336146991,6775.3725380149535,10558.382935331218,-187500.02235174447,-187500.02235174447,-187500.02235174447,-187500.02235174447
$SILENCE,3927.648535686557,-6866.165323992411,7375.762745828956,10502.861202104235,-187500.02235174447,-187500.02235174447,-187500.02235174447,-187500.02235174447
$SILENCE,3906.816709854211,-6833.35296313202,7510.364950938815,10512.561859197838,-187500.02235174447,-187500.02235174447,-187500.02235174447,-187500.02235174447
$SILENCE,3740.698545062369,-6866.210027481321,6996.72186335586,10560.796923732392,-187500.02235174447,-187500.02235174447,-187500.02235174447,-187500.02235174447
$SILENCE,3720.9619547083325,-6909.550059980162,6721.728351322216,10563.18856038911,-187500.02235174447,-187500.02235174447,-187500.02235174447,-187500.02235174447
$SILENCE,3903.8215760972,-6877.609417153528,7275.381061480172,10511.019588830422,-187500.02235174447,-187500.02235174447,-187500.02235174447,-187500.02235174447
$SILENCE,3928.0955705756633,-6834.694067799338,7548.564082212935,10511.444271975073,-187500.02235174447,-187500.02235174447,-187500.02235174447,-187500.02235174447
$SILENCE,3769.0852605206087,-6856.777591321182,7102.177393695998,10556.594795774794,-187500.02235174447,-187500.02235174447,-187500.02235174447,-187500.02235174447
$SILENCE,3701.82886145459,-6907.627809957005,6700.561249323041,10567.569502302349,-187500.02235174447,-187500.02235174447,-187500.02235174447,-187500.02235174447
$SILENCE,3879.9946165078422,-6888.338254492075,7168.383260772617,10516.428710988606,-187500.02235174447,-187500.02235174447,-187500.02235174447,-187500.02235174447
$SILENCE,3943.205349827451,-6836.504559100218,7562.332756797405,10505.252838760953,-187500.02235174447,-187500.02235174447,-187500.02235174447,-187500.02235174447
$SILENCE,3799.304819024184,-6844.864111526503,7207.878793225145,10546.804731703369,-187500.02235174447,-187500.02235174447,-187500.02235174447,-187500.02235174447
$SILENCE,3693.2681433282073,-6896.608399940539,6714.084054718502,10573.448011094095,-187500.02235174447,-187500.02235174447,-187500.02235174447,-187500.02235174447
$SILENCE,3849.5068370708036,-6895.446109228863,7053.338832061152,10524.385932014697,-187500.02235174447,-187500.02235174447,-187500.02235174447,-187500.02235174447
$SILENCE,3956.102306378163,-6841.444294624841,7547.982936857097,10501.542449181372,-187500.02235174447,-187500.02235174447,-187500.02235174447,-187500.02235174447
$SILENCE,3827.0880373821306,-6838.672678312383,7306.584096739781,10544.748371213482,-187500.02235174447,-187500.02235174447,-187500.02235174447,-187500.02235174447
$SILENCE,3687.590800236559,-6889.277027759198,6750.316232480554,10576.890179740212,-187500.02235174447,-187500.02235174447,-187500.02235174447,-187500.02235174447
$SILENCE,3808.111406339575,-6902.151632565455,6935.343973081586,10529.325667539319,-187500.02235174447,-187500.02235174447,-187500.02235174447,-187500.02235174447
$SILENCE,3943.1159428496294,-6849.937957517857,7507.928610793187,10492.445289188063,-187500.02235174447,-187500.02235174447,-187500.02235174447,-187500.02235174447
$SILENCE,3851.1608661604964,-6836.862187011503,7394.985246060521,10523.782434914403,-187500.02235174447,-187500.02235174447,-187500.02235174447,-187500.02235174447
$SILENCE,3701.1359573764753,-6882.526800933695,6821.998276948724,10563.814409233859,-187500.02235174447,-187500.02235174447,-187500.02235174447,-187500.02235174447
$SILENCE,3775.231990245818,-6907.538402979184,6843.455951625819,10539.808635688858,-187500.02235174447,-187500.02235174447,-187500.02235174447,-187500.02235174447
$SILENCE,3944.479399261403,-6854.743582575748,7452.742153733034,10498.592018913272,-187500.02235174447,-187500.02235174447,-187500.02235174447,-187500.02235174447
$SILENCE,3887.549506133736,-6830.715457286294,7471.808191753411,10518.865051134235,-187500.02235174447,-187500.02235174447,-187500.02235174447,-187500.02235174447
$SILENCE,3719.486739574282,-6872.043832784157,6913.2604495597425,10566.608377290771,-187500.02235174447,-187500.02235174447,-187500.02235174447,-187500.02235174447
$SILENCE,3740.296213662173,-6908.4995279907625,6769.851657134493,10553.84553120679,-187500.02235174447,-187500.02235174447,-187500.02235174447,-187500.02235174447
$SILENCE,3921.077122816697,-6865.78534433667,7369.481905637015,10499.039053802378,-187500.02235174447,-187500.02235174447,-187500.02235174447,-187500.02235174447
$SILENCE,3906.682599387479,-6831.274250897676,7527.039352302475,10509.767891140926,-187500.02235174447,-187500.02235174447,-187500.02235174447,-187500.02235174447
$SILENCE,3736.854045016056,-6861.002071023235,7017.084302554644,10556.348926585786,-187500.02235174447,-187500.02235174447,-187500.02235174447,-187500.02235174447
$SILENCE,3711.015428425721,-6907.627809957005,6721.258964688655,10554.918414940646,-187500.02235174447,-187500.02235174447,-187500.02235174447,-187500.02235174447
$SILENCE,3900.2452969843507,-6878.436431698375,7268.094392787742,10500.804841614348,-187500.02235174447,-187500.02235174447,-187500.02235174447,-187500.02235174447
$SILENCE,3926.486244974881,-6835.230509666266,7557.281262550505,10499.329626480298,-187500.02235174447,-187500.02235174447,-187500.02235174447,-187500.02235174447
$SILENCE,3770.2251994878293,-6856.755239576726,7123.858585817646,10545.687144480604,-187500.02235174447,-187500.02235174447,-187500.02235174447,-187500.02235174447
$SILENCE,3699.4372247978717,-6908.276010546209,6708.965505238236,10560.528702798927,-187500.02235174447,-187500.02235174447,-187500.02235174447,-187500.02235174447
$SILENCE,3869.578703591669,-6889.567600437117,7157.162685056053,10508.538545195883,-187500.02235174447,-187500.02235174447,-187500.02235174447,-187500.02235174447
$SILENCE,3939.316146292227,-6837.73390504526,7564.523227754024,10493.495821177463,-187500.02235174447,-187500.02235174447,-187500.02235174447,-187500.02235174447
$SILENCE,3797.650789934491,-6846.428733638374,7226.900127756611,10537.528757754417,-187500.02235174447,-187500.02235174447,-187500.02235174447,-187500.02235174447
$SILENCE,3687.7249107032912,-6898.575353452606,6721.147205966378,10563.926167956135,-187500.02235174447,-187500.02235174447,-187500.02235174447,-187500.02235174447
$SILENCE,3839.359145088094,-6897.904801118947,7042.721753444881,10516.808690644348,-187500.02235174447,-187500.02235174447,-187500.02235174447,-187500.02235174447
$SILENCE,3950.7602394533446,-6844.797056293137,7551.961547370142,10487.952588552545,-187500.02235174447,-187500.02235174447,-187500.02235174447,-187500.02235174447
$SILENCE,3832.1842351179407,-6843.500655114729,7329.472283062016,10526.911679138146,-187500.02235174447,-187500.02235174447,-187500.02235174447,-187500.02235174447
$SILENCE,3689.2224775817967,-6894.149708050455,6769.538732712118,10561.959214444067,-187500.02235174447,-187500.02235174447,-187500.02235174447,-187500.02235174447
$SILENCE,3797.8072521456784,-6906.376112267508,6932.594708513583,10526.911679138146,-187500.02235174447,-187500.02235174447,-187500.02235174447,-187500.02235174447
$SILENCE,3946.8263324292107,-6851.8602075410145,7511.728407350589,10492.98173105499,-187500.02235174447,-187500.02235174447,-187500.02235174447,-187500.02235174447
$SILENCE,3864.6389680670463,-6838.583271334562,7416.957010860087,10519.468548234528,-187500.02235174447,-187500.02235174447,-187500.02235174447,-187500.02235174447
$SILENCE,3711.4401115703718,-6883.130298033989,6866.880579814981,10557.980603931022,-187500.02235174447,-187500.02235174447,-187500.02235174447,-187500.02235174447
$SILENCE,3771.521600666237,-6906.264353545232,6865.427716425385,10536.142949598188,-187500.02235174447,-187500.02235174447,-187500.02235174447,-187500.02235174447
$SILENCE,3939.897291648065,-6861.963196034813,7446.014278651986,10491.864143832225,-187500.02235174447,-187500.02235174447,-187500.02235174447,-187500.02235174447
$SILENCE,3896.1772794934845,-6832.2577276537095,7502.7206543351,10511.377216741708,-187500.02235174447,-187500.02235174447,-187500.02235174447,-187500.02235174447
$SILENCE,3722.459521586838,-6873.697861873849,6917.1943565838765,10560.260481865464,-187500.02235174447,-187500.02235174447,-187500.02235174447,-187500.02235174447
$SILENCE,3736.205844426852,-6911.360551281042,6758.76519188466,10548.928147426623,-187500.02235174447,-187500.02235174447,-187500.02235174447,-187500.02235174447
$SILENCE,3920.138349549574,-6871.328576961587,7344.5150070804375,10498.234391001986,-187500.02235174447,-187500.02235174447,-187500.02235174447,-187500.02235174447
$SILENCE,3914.9303930914875,-6834.336439888053,7527.7769598694995,10506.79510912837,-187500.02235174447,-187500.02235174447,-187500.02235174447,-187500.02235174447
$SILENCE,3752.5449696236815,-6863.0137280242125,7032.976392862367,10555.477208552029,-187500.02235174447,-187500.02235174447,-187500.02235174447,-187500.02235174447
$SILENCE,3719.8667192300227,-6911.4946617477735,6723.203566456266,10559.589929531805,-187500.02235174447,-187500.02235174447,-187500.02235174447,-187500.02235174447
$SILENCE,3904.425073197493,-6883.107946289533,7259.24310198344,10504.828155616302,-187500.02235174447,-187500.02235174447,-187500.02235174447,-187500.02235174447
$SILENCE,3935.650460201557,-6837.398628878431,7563.025660875519,10499.419033458118,-187500.02235174447,-187500.02235174447,-187500.02235174447,-187500.02235174447
$SILENCE,3783.949170583388,-6856.889350043458,7140.488283692394,10545.485978780507,-187500.02235174447,-187500.02235174447,-187500.02235174447,-187500.02235174447
$SILENCE,3706.746245234757,-6907.896030890469,6711.245383172677,10562.495656310995,-187500.02235174447,-187500.02235174447,-187500.02235174447,-187500.02235174447
$SILENCE,3873.177334448974,-6892.138051049477,7144.8245221167235,10511.26545801943,-187500.02235174447,-187500.02235174447,-187500.02235174447,-187500.02235174447
$SILENCE,3947.519236507325,-6840.5278731021735,7573.4415737916925,10496.803879356847,-187500.02235174447,-187500.02235174447,-187500.02235174447,-187500.02235174447
$SILENCE,3814.7722261872564,-6850.049716240134,7255.175084492575,10538.713400210549,-187500.02235174447,-187500.02235174447,-187500.02235174447,-187500.02235174447
$SILENCE,3694.698654973347,-6900.564658709128,6736.793427085094,10565.75901100147,-187500.02235174447,-187500.02235174447,-187500.02235174447,-187500.02235174447
$SILENCE,3834.128836885552,-6899.245905786265,7037.692610942437,10520.250859290465,-187500.02235174447,-187500.02235174447,-187500.02235174447,-187500.02235174447
$SILENCE,3949.2403208303836,-6845.087628971056,7560.969300385631,10494.702815378048,-187500.02235174447,-187500.02235174447,-187500.02235174447,-187500.02235174447
$SILENCE,3838.755647987801,-6842.137198702955,7348.806542015856,10527.649286705171,-187500.02235174447,-187500.02235174447,-187500.02235174447,-187500.02235174447
$SILENCE,3695.145689862453,-6891.959237093835,6782.77096542966,10563.90381621168,-187500.02235174447,-187500.02235174447,-187500.02235174447,-187500.02235174447
$SILENCE,3803.104615581586,-6908.343065779575,6927.677324733416,10531.31497279584,-187500.02235174447,-187500.02235174447,-187500.02235174447,-187500.02235174447
$SILENCE,3952.906006921054,-6854.184788964366,7513.762416096022,10492.914675821625,-187500.02235174447,-187500.02235174447,-187500.02235174447,-187500.02235174447
$SILENCE,3871.880933270566,-6838.247995167732,7432.111493600785,10518.976809856513,-187500.02235174447,-187500.02235174447,-187500.02235174447,-187500.02235174447
$SILENCE,3710.1213586475087,-6882.347986978053,6856.799943065637,10563.032098177922,-187500.02235174447,-187500.02235174447,-187500.02235174447,-187500.02235174447
$SILENCE,3766.559513397159,-6909.013618113234,6831.833044509059,10541.105036867266,-187500.02235174447,-187500.02235174447,-187500.02235174447,-187500.02235174447
$SILENCE,3937.7291724359006,-6860.733850089771,7443.8908629287325,10493.048786288356,-187500.02235174447,-187500.02235174447,-187500.02235174447,-187500.02235174447
$SILENCE,3892.5786486361803,-6832.972983476279,7501.088976989863,10509.544373696372,-187500.02235174447,-187500.02235174447,-187500.02235174447,-187500.02235174447
$SILENCE,3727.5780710671033,-6870.814486839115,6952.778333756725,10558.204121375577,-187500.02235174447,-187500.02235174447,-187500.02235174447,-187500.02235174447
$SILENCE,3733.367172881028,-6910.354722780553,6763.392002986909,10551.27508059443,-187500.02235174447,-187500.02235174447,-187500.02235174447,-187500.02235174447
$SILENCE,3925.547471707758,-6871.283873472676,7358.618957831736,10502.03418755939,-187500.02235174447,-187500.02235174447,-187500.02235174447,-187500.02235174447
$SILENCE,3921.747675150356,-6834.202329421321,7550.262814791538,10505.275190505408,-187500.02235174447,-187500.02235174447,-187500.02235174447,-187500.02235174447
$SILENCE,3753.8413708020894,-6862.969024535302,7054.098791372632,10553.532606784416,-187500.02235174447,-187500.02235174447,-187500.02235174447,-187500.02235174447
$SILENCE,3714.3458383495617,-6910.645295458472,6725.930479279814,10559.656984765172,-187500.02235174447,-187500.02235174447,-187500.02235174447,-187500.02235174447
$SILENCE,3898.233639983373,-6883.666739900916,7250.10123850122,10502.83885035978,-187500.02235174447,-187500.02235174447,-187500.02235174447,-187500.02235174447
$SILENCE,3936.231605557395,-6836.25868991121,7572.279283080016,10496.513306678928,-187500.02235174447,-187500.02235174447,-187500.02235174447,-187500.02235174447
$SILENCE,3784.7985368726895,-6854.430658153375,7163.108249081165,10541.999106645479,-187500.02235174447,-187500.02235174447,-187500.02235174447,-187500.02235174447
$SILENCE,3700.0407218981654,-6905.616152956028,6720.275487932621,10565.311976112363,-187500.02235174447,-187500.02235174447,-187500.02235174447,-187500.02235174447
$SILENCE,3864.1248779445746,-6891.087519060078,7137.448446446472,10513.724149909514,-187500.02235174447,-187500.02235174447,-187500.02235174447,-187500.02235174447
$SILENCE,3941.9983556268644,-6839.097361457034,7578.35895757186,10494.725167122504,-187500.02235174447,-187500.02235174447,-187500.02235174447,-187500.02235174447
$SILENCE,3810.391284274016,-6846.473437127285,7270.82130561129,10536.411170531652,-187500.02235174447,-187500.02235174447,-187500.02235174447,-187500.02235174447
$SILENCE,3692.9775706502883,-6898.307132519142,6745.152979511378,10568.642386036205,-187500.02235174447,-187500.02235174447,-187500.02235174447,-187500.02235174447
$SILENCE,3832.8994909405105,-6900.654065686949,7023.767474146781,10525.011780859444,-187500.02235174447,-187500.02235174447,-187500.02235174447,-187500.02235174447
$SILENCE,3950.8496464311656,-6845.02057373769,7555.694288694178,10495.775699111904,-187500.02235174447,-187500.02235174447,-187500.02235174447,-187500.02235174447
$SILENCE,3840.633194522047,-6839.92437600188,7362.910492767155,10530.867937906736,-187500.02235174447,-187500.02235174447,-187500.02235174447,-187500.02235174447
$SILENCE,3696.39738755195,-6889.388786481475,6793.835078935037,10568.530627313929,-187500.02235174447,-187500.02235174447,-187500.02235174447,-187500.02235174447
$SILENCE,3794.298028266195,-6905.862022145036,6913.327504793108,10535.919432153634,-187500.02235174447,-187500.02235174447,-187500.02235174447,-187500.02235174447
$SILENCE,3950.7602394533446,-6853.625995352983,7508.263886960017,10498.12263227971,-187500.02235174447,-187500.02235174447,-187500.02235174447,-187500.02235174447
$SILENCE,3871.880933270566,-6835.141102688444,7446.796589707922,10521.0331703464,-187500.02235174447,-187500.02235174447,-187500.02235174447,-187500.02235174447
$SILENCE,3708.176756879897,-6880.716309632816,6875.642463641461,10564.686127267614,-187500.02235174447,-187500.02235174447,-187500.02235174447,-187500.02235174447
$SILENCE,3759.2951964491845,-6910.958219880846,6828.4355793518525,10546.961193914556,-187500.02235174447,-187500.02235174447,-187500.02235174447,-187500.02235174447
$SILENCE,3934.354059023149,-6862.119658246,7439.308755315395,10499.687254391582,-187500.02235174447,-187500.02235174447,-187500.02235174447,-187500.02235174447
$SILENCE,3896.557259149225,-6833.174149176378,7513.896526562754,10514.79703364337,-187500.02235174447,-187500.02235174447,-187500.02235174447,-187500.02235174447
$SILENCE,3727.30985013364,-6869.428678682885,6973.319586911152,10561.825103977335,-187500.02235174447,-187500.02235174447,-187500.02235174447,-187500.02235174447
$SILENCE,3729.589728068081,-6910.645295458472,6767.594130944506,10558.226473120032,-187500.02235174447,-187500.02235174447,-187500.02235174447,-187500.02235174447
$SILENCE,3917.7020094039453,-6870.702728116838,7350.862902505744,10504.425824216107,-187500.02235174447,-187500.02235174447,-187500.02235174447,-187500.02235174447
$SILENCE,3918.6631344155235,-6831.631878808961,7560.298748051971,10508.203269029054,-187500.02235174447,-187500.02235174447,-187500.02235174447,-187500.02235174447
$SILENCE,3755.651862102969,-6858.588082622062,7075.310596860719,10555.454856807573,-187500.02235174447,-187500.02235174447,-187500.02235174447,-187500.02235174447
$SILENCE,3705.2263266117966,-6905.236173300287,6727.942136280792,10564.820237734348,-187500.02235174447,-187500.02235174447,-187500.02235174447,-187500.02235174447
$SILENCE,3887.5942096226468,-6881.565675922117,7242.032258752854,10511.712492908537,-187500.02235174447,-187500.02235174447,-187500.02235174447,-187500.02235174447
$SILENCE,3933.3035270337496,-6834.224681165777,7581.242332606595,10502.436518959585,-187500.02235174447,-187500.02235174447,-187500.02235174447,-187500.02235174447
$SILENCE,3782.563362427159,-6849.960309262313,7183.247170835397,10550.313955582853,-187500.02235174447,-187500.02235174447,-187500.02235174447,-187500.02235174447
$SILENCE,3693.6704747284025,-6903.872716888513,6724.432912401308,10570.654043037182,-187500.02235174447,-187500.02235174447,-187500.02235174447,-187500.02235174447
$SILENCE,3856.6593952965018,-6891.109870804534,7123.702123606458,10519.870879634724,-187500.02235174447,-187500.02235174447,-187500.02235174447,-187500.02235174447
$SILENCE,3940.97017538192,-6836.772780033682,7574.246236592083,10502.056539303845,-187500.02235174447,-187500.02235174447,-187500.02235174447,-187500.02235174447
$SILENCE,3815.0627988651754,-6842.763047547704,7280.6560731716245,10541.41796128964,-187500.02235174447,-187500.02235174447,-187500.02235174447,-187500.02235174447
$SILENCE,3687.9707798922996,-6893.322693505609,6749.2433487467,10572.03985119341,-187500.02235174447,-187500.02235174447,-187500.02235174447,-187500.02235174447
$SILENCE,3821.2318803348403,-6898.955333108346,7008.456529194896,10529.191557072587,-187500.02235174447,-187500.02235174447,-187500.02235174447,-187500.02235174447
$SILENCE,3949.1732655970177,-6845.042925482146,7551.559215969946,10497.921466579613,-187500.02235174447,-187500.02235174447,-187500.02235174447,-187500.02235174447
$SILENCE,3843.851845723611,-6836.705724800316,7379.070804008342,10530.711475695549,-187500.02235174447,-187500.02235174447,-187500.02235174447,-187500.02235174447
$SILENCE,3691.859983427523,-6885.36547247952,6810.8894599544365,10570.721098270547,-187500.02235174447,-187500.02235174447,-187500.02235174447,-187500.02235174447
$SILENCE,3786.519621195748,-6905.169118066921,6907.337237279086,10540.836815933802,-187500.02235174447,-187500.02235174447,-187500.02235174447,-187500.02235174447
$SILENCE,3947.429829529504,-6853.02249825269,7499.881982789277,10497.541486923872,-187500.02235174447,-187500.02235174447,-187500.02235174447,-187500.02235174447
$SILENCE,3876.083061228164,-6832.727114287271,7457.8607032132995,10521.144929068676,-187500.02235174447,-187500.02235174447,-187500.02235174447,-187500.02235174447
$SILENCE,3710.9036697034444,-6874.614283396517,6892.741548149771,10568.70944126957,-187500.02235174447,-187500.02235174447,-187500.02235174447,-187500.02235174447
$SILENCE,3753.5060946352596,-6906.0408361006785,6818.869032724981,10550.04573464939,-187500.02235174447,-187500.02235174447,-187500.02235174447,-187500.02235174447
$SILENCE,3935.6057567126463,-6861.158533234422,7424.131920830241,10494.993388055967,-187500.02235174447,-187500.02235174447,-187500.02235174447,-187500.02235174447
$SILENCE,3904.6038871531355,-6830.938974730847,7517.539860908969,10509.879649863202,-187500.02235174447,-187500.02235174447,-187500.02235174447,-187500.02235174447
$SILENCE,3734.0600769591424,-6865.561826892117,6987.155316728988,10561.981566188522,-187500.02235174447,-187500.02235174447,-187500.02235174447,-187500.02235174447
$SILENCE,3723.5547570651484,-6906.577277967606,6762.140305297412,10559.925205698635,-187500.02235174447,-187500.02235174447,-187500.02235174447,-187500.02235174447
$SILENCE,3912.874032601599,-6871.574446150595,7336.267213376429,10504.850507360758,-187500.02235174447,-187500.02235174447,-187500.02235174447,-187500.02235174447
$SILENCE,3925.815692641222,-6832.861224754003,7563.629157975813,10507.51036495094,-187500.02235174447,-187500.02235174447,-187500.02235174447,-187500.02235174447
talvez,3765.330167452117,-6858.83395181107,7089.503954589839,10554.583138773816,-187500.02235174447,-187500.02235174447,-187500.02235174447,-187500.02235174447
talvez,3708.02029466871,-6907.225478556809,6723.404732156365,10563.680298767125,-187500.02235174447,-187500.02235174447,-187500.02235174447,-187500.02235174447
talvez,3890.72345384639,-6883.040891056167,7221.535709087338,10510.639609174683,-187500.02235174447,-187500.02235174447,-187500.02235174447,-187500.02235174447
talvez,3942.5347974937918,-6834.314088143598,7578.224847105128,10500.469565447518,-187500.02235174447,-187500.02235174447,-187500.02235174447,-187500.02235174447
talvez,3793.2921997657063,-6848.194521450344,7196.993493675411,10546.178882858621,-187500.02235174447,-187500.02235174447,-187500.02235174447,-187500.02235174447
talvez,3695.950352662844,-6900.810527898137,6727.338639180499,10571.101077926289,-187500.02235174447,-187500.02235174447,-187500.02235174447,-187500.02235174447
talvez,3855.4076976070046,-6891.623960927005,7109.397007155062,10520.94376336858,-187500.02235174447,-187500.02235174447,-187500.02235174447,-187500.02235174447
talvez,3951.4978470203696,-6837.868015511992,7579.141268627795,10501.36363522573,-187500.02235174447,-187500.02235174447,-187500.02235174447,-187500.02235174447
talvez,3822.1930053464184,-6841.3548876470195,7303.454852516038,10541.79794094538,-187500.02235174447,-187500.02235174447,-187500.02235174447,-187500.02235174447
talvez,3690.429471782383,-6892.875658616503,6761.961491341769,10573.872694238746,-187500.02235174447,-187500.02235174447,-187500.02235174447,-187500.02235174447
talvez,3826.1492641150076,-6902.039873843179,6996.81127033368,10532.879594907714,-187500.02235174447,-187500.02235174447,-187500.02235174447,-187500.02235174447
talvez,3961.7349459809,-6846.764009805204,7549.055820590952,10501.989484070478,-187500.02235174447,-187500.02235174447,-187500.02235174447,-187500.02235174447
talvez,3857.2181889078847,-6835.1858061773555,7393.599437904291,10536.835853676303,-187500.02235174447,-187500.02235174447,-187500.02235174447,-187500.02235174447
talvez,3694.1622131064196,-6881.431565455386,6820.590117048039,10578.18658091862,-187500.02235174447,-187500.02235174447,-187500.02235174447,-187500.02235174447
talvez,3776.2825222352176,-6903.068054088123,6892.138051049477,10549.33047882682,-187500.02235174447,-187500.02235174447,-187500.02235174447,-187500.02235174447
talvez,3941.238396315384,-6851.681393585372,7491.544782107447,10506.772757383915,-187500.02235174447,-187500.02235174447,-187500.02235174447,-187500.02235174447
talvez,3877.5582763622137,-6830.290774141643,7467.807229495911,10528.02926636091,-187500.02235174447,-187500.02235174447,-187500.02235174447,-187500.02235174447
talvez,3705.136919633975,-6871.753260106238,6900.832879642592,10573.649176794193,-187500.02235174447,-187500.02235174447,-187500.02235174447,-187500.02235174447
talvez,3741.8831875185,-6905.258525044743,6805.30152384061,10559.813446976357,-187500.02235174447,-187500.02235174447,-187500.02235174447,-187500.02235174447
talvez,3928.9896403538755,-6861.694975101349,7408.575106689347,10508.98558008499,-187500.02235174447,-187500.02235174447,-187500.02235174447,-187500.02235174447
talvez,3901.0276080402864,-6830.179015419366,7522.7254656226005,10520.720245924025,-187500.02235174447,-187500.02235174447,-187500.02235174447,-187500.02235174447
talvez,3729.925004234911,-6862.0749547570895,6999.180555245943,10573.47036283855,-187500.02235174447,-187500.02235174447,-187500.02235174447,-187500.02235174447
talvez,3716.7821784951902,-6902.84453664357,6754.116029037957,10574.409136105674,-187500.02235174447,-187500.02235174447,-187500.02235174447,-187500.02235174447
talvez,3902.39106445206,-6869.5851408940725,7315.480091032993,10518.306257522852,-187500.02235174447,-187500.02235174447,-187500.02235174447,-187500.02235174447
talvez,3919.5572041937357,-6829.486111341252,7562.355108541859,10518.663885434138,-187500.02235174447,-187500.02235174447,-187500.02235174447,-187500.02235174447
talvez,3759.943397038388,-6853.760105819715,7103.78671929678,10563.456781322573,-187500.02235174447,-187500.02235174447,-187500.02235174447,-187500.02235174447
talvez,3697.626733496992,-6902.151632565455,6723.829415301016,10570.654043037182,-187500.02235174447,-187500.02235174447,-187500.02235174447,-187500.02235174447
talvez,3875.680729827968,-6880.783364866182,7205.218935634964,10516.205193544054,-187500.02235174447,-187500.02235174447,-187500.02235174447,-187500.02235174447
talvez,3930.196634554462,-6831.743637531238,7573.30746332496,10504.291713749375,-187500.02235174447,-187500.02235174447,-187500.02235174447,-187500.02235174447
talvez,3786.4525659623823,-6845.177035948877,7203.967237945466,10548.838740448802,-187500.02235174447,-187500.02235174447,-187500.02235174447,-187500.02235174447
talvez,3684.8191839241013,-6895.155536550944,6723.225918200722,10575.012633205966,-187500.02235174447,-187500.02235174447,-187500.02235174447,-187500.02235174447
talvez,3847.495180069826,-6889.142917292466,7086.754690021836,10525.861147148747,-187500.02235174447,-187500.02235174447,-187500.02235174447,-187500.02235174447
talvez,3948.614471985635,-6835.0740474550785,7567.250140577572,10499.150812524655,-187500.02235174447,-187500.02235174447,-187500.02235174447,-187500.02235174447
talvez,3821.343639057117,-6834.984640477257,7310.674465975102,10542.0885136233,-187500.02235174447,-187500.02235174447,-187500.02235174447,-187500.02235174447
talvez,3686.607323480526,-6886.326597491097,6769.359918756476,10581.986377476023,-187500.02235174447,-187500.02235174447,-187500.02235174447,-187500.02235174447
talvez,3813.0511418641977,-6895.870792373514,6983.556685871683,10544.211929346553,-187500.02235174447,-187500.02235174447,-187500.02235174447,-187500.02235174447
talvez,3951.5425505092803,-6841.377239391475,7541.232710031594,10507.242144017477,-187500.02235174447,-187500.02235174447,-187500.02235174447,-187500.02235174447
talvez,3856.6370435520466,-6831.20719566431,7401.9813420750315,10531.94082164059,-187500.02235174447,-187500.02235174447,-187500.02235174447,-187500.02235174447
talvez,3698.1408236194643,-6878.727004376293,6833.218852665288,10572.397479104697,-187500.02235174447,-187500.02235174447,-187500.02235174447,-187500.02235174447
talvez,3773.600312900581,-6902.308094776642,6881.722138133305,10544.726019469026,-187500.02235174447,-187500.02235174447,-187500.02235174447,-187500.02235174447
talvez,3938.3773730251046,-6850.519102873695,7481.642959313746,10500.93895208108,-187500.02235174447,-187500.02235174447,-187500.02235174447,-187500.02235174447
talvez,3881.715700830901,-6828.4355793518525,7474.937435977154,10519.535603467895,-187500.02235174447,-187500.02235174447,-187500.02235174447,-187500.02235174447
talvez,3711.5742220371035,-6870.278044972187,6914.825071671614,10562.629766777727,-187500.02235174447,-187500.02235174447,-187500.02235174447,-187500.02235174447
talvez,3745.079486975609,-6906.2196500563205,6803.446329050819,10552.79499921739,-187500.02235174447,-187500.02235174447,-187500.02235174447,-187500.02235174447
talvez,3933.370582267116,-6863.907797802424,7399.053263551386,10497.072100290312,-187500.02235174447,-187500.02235174447,-187500.02235174447,-187500.02235174447
talvez,3915.779759380789,-6832.615355564994,7527.821663358411,10503.867030604724,-187500.02235174447,-187500.02235174447,-187500.02235174447,-187500.02235174447
talvez,3749.438077144394,-6864.377184435986,7015.4526252094065,10555.924243441135,-187500.02235174447,-187500.02235174447,-187500.02235174447,-187500.02235174447
talvez,3736.8763967605114,-6910.533536736195,6748.52809292413,10551.47624629453,-187500.02235174447,-187500.02235174447,-187500.02235174447,-187500.02235174447
talvez,3935.0246113568082,-6879.241094498765,7303.432500771582,10497.049748545856,-187500.02235174447,-187500.02235174447,-187500.02235174447,-187500.02235174447
talvez,3966.0488326607747,-6838.002125978724,7570.066460378941,10497.966170068523,-187500.02235174447,-187500.02235174447,-187500.02235174447,-187500.02235174447
talvez,3804.825699904645,-6860.376222178486,7125.937298051989,10544.770722957937,-187500.02235174447,-187500.02235174447,-187500.02235174447,-187500.02235174447
talvez,3729.4556176013493,-6907.314885534631,6733.485368905708,10561.534531299416,-187500.02235174447,-187500.02235174447,-187500.02235174447,-187500.02235174447
talvez,3895.1938027374513,-6885.030196312689,7199.653351265592,10511.153699297154,-187500.02235174447,-187500.02235174447,-187500.02235174447,-187500.02235174447
talvez,3956.616396500635,-6832.905928242913,7586.249123364583,10499.754309624948,-187500.02235174447,-187500.02235174447,-187500.02235174447,-187500.02235174447
talvez,3810.32422904065,-6844.148855703933,7234.007982493399,10545.508330524961,-187500.02235174447,-187500.02235174447,-187500.02235174447,-187500.02235174447
talvez,3698.721968975302,-6896.1166615625225,6743.610709143962,10571.056374437378,-187500.02235174447,-187500.02235174447,-187500.02235174447,-187500.02235174447
talvez,3856.167656918485,-6894.037949328179,7082.865486486613,10520.31791452383,-187500.02235174447,-187500.02235174447,-187500.02235174447,-187500.02235174447
talvez,3966.8534954611655,-6840.97490799128,7573.061594135952,10494.278132233398,-187500.02235174447,-187500.02235174447,-187500.02235174447,-187500.02235174447
talvez,3850.33385161565,-6840.326707402076,7332.668582519124,10531.337324540296,-187500.02235174447,-187500.02235174447,-187500.02235174447,-187500.02235174447
talvez,3702.521765532704,-6891.333388249086,6781.519267740163,10564.641423778705,-187500.02235174447,-187500.02235174447,-187500.02235174447,-187500.02235174447
talvez,3822.304764068695,-6900.676417431405,6973.185476444421,10530.219737317531,-187500.02235174447,-187500.02235174447,-187500.02235174447,-187500.02235174447
talvez,3962.2043326144617,-6846.719306316293,7534.415427972726,10491.305350220842,-187500.02235174447,-187500.02235174447,-187500.02235174447,-187500.02235174447
talvez,3875.1219362165853,-6835.252861410721,7418.365170760771,10521.927240124613,-187500.02235174447,-187500.02235174447,-187500.02235174447,-187500.02235174447
talvez,3719.844367485567,-6880.358681721531,6852.217835452299,10566.161342401665,-187500.02235174447,-187500.02235174447,-187500.02235174447,-187500.02235174447
talvez,3787.1901735294073,-6908.074844846112,6877.1623822644215,10536.411170531652,-187500.02235174447,-187500.02235174447,-187500.02235174447,-187500.02235174447
talvez,3953.643614488079,-6860.555036134128,7472.612854553802,10488.734899608482,-187500.02235174447,-187500.02235174447,-187500.02235174447,-187500.02235174447
talvez,3902.3240092186943,-6833.35296313202,7488.057909972419,10512.785376642392,-187500.02235174447,-187500.02235174447,-187500.02235174447,-187500.02235174447
talvez,3743.917196263933,-6871.753260106238,6940.909557450957,10566.541322057405,-187500.02235174447,-187500.02235174447,-187500.02235174447,-187500.02235174447
talvez,3764.0337662737093,-6911.4946617477735,6800.898230182914,10548.190539859599,-187500.02235174447,-187500.02235174447,-187500.02235174447,-187500.02235174447
talvez,3946.200483584462,-6868.132277504477,7392.973589059543,10491.595922898761,-187500.02235174447,-187500.02235174447,-187500.02235174447,-187500.02235174447
talvez,3941.3948585265707,-6834.470550354785,7545.434837989193,10503.017664315423,-187500.02235174447,-187500.02235174447,-187500.02235174447,-187500.02235174447
talvez,3781.266961248751,-6868.1769809933885,7039.480750498861,10551.140970127699,-187500.02235174447,-187500.02235174447,-187500.02235174447,-187500.02235174447
talvez,3753.5060946352596,-6911.964048381335,6756.686479650317,10555.298394596386,-187500.02235174447,-187500.02235174447,-187500.02235174447,-187500.02235174447
talvez,3933.012954355831,-6881.163344521921,7295.877611145689,10499.128460780199,-187500.02235174447,-187500.02235174447,-187500.02235174447,-187500.02235174447
talvez,3953.1071726211517,-6837.4209806228855,7571.675785979723,10493.674635133104,-187500.02235174447,-187500.02235174447,-187500.02235174447,-187500.02235174447
talvez,3801.875269636544,-6854.587120364562,7143.975155827422,10545.307164824864,-187500.02235174447,-187500.02235174447,-187500.02235174447,-187500.02235174447
talvez,3731.9366612358886,-6905.817318656125,6738.961546297258,10564.686127267614,-187500.02235174447,-187500.02235174447,-187500.02235174447,-187500.02235174447
talvez,3911.48822444537,-6891.355739993542,7187.426947048539,10512.025417330911,-187500.02235174447,-187500.02235174447,-187500.02235174447,-187500.02235174447
talvez,3993.0497399627857,-6844.372373148486,7585.153887886273,10495.328664222798,-187500.02235174447,-187500.02235174447,-187500.02235174447,-187500.02235174447
talvez,3857.1511336745184,-6851.010841251713,7250.414162923595,10541.216795589542,-187500.02235174447,-187500.02235174447,-187500.02235174447,-187500.02235174447
talvez,3735.2447194152737,-6902.5763157101055,6749.131590024423,10564.864941223257,-187500.02235174447,-187500.02235174447,-187500.02235174447,-187500.02235174447
talvez,3877.111241473108,-6904.409158755441,7066.392250823052,10510.706664408048,-187500.02235174447,-187500.02235174447,-187500.02235174447,-187500.02235174447
talvez,4005.164385457562,-6848.775666806182,7573.843905191888,10485.024510028901,-187500.02235174447,-187500.02235174447,-187500.02235174447,-187500.02235174447
talvez,3891.841041069155,-6833.509425343207,7362.821085789334,10536.187653087098,-187500.02235174447,-187500.02235174447,-187500.02235174447,-187500.02235174447
talvez,3767.8559145755667,-6879.486963687774,6806.128538385456,10577.247807651498,-187500.02235174447,-187500.02235174447,-187500.02235174447,-187500.02235174447
talvez,3866.583569834658,-6920.0106763852455,6968.156333941977,10522.776606413914,-187500.02235174447,-187500.02235174447,-187500.02235174447,-187500.02235174447
talvez,4002.5939348452016,-6870.076879272089,7552.341527025882,10482.141134994166,-187500.02235174447,-187500.02235174447,-187500.02235174447,-187500.02235174447
talvez,3917.2996780037497,-6833.867053254492,7431.418589522671,10514.104129565256,-187500.02235174447,-187500.02235174447,-187500.02235174447,-187500.02235174447
talvez,3827.8256449491555,-6849.5132743732065,6914.422740271419,10590.591799091317,-187500.02235174447,-187500.02235174447,-187500.02235174447,-187500.02235174447
talvez,3895.7302446043786,-6896.966027851824,6899.961161608835,10555.678374252126,-187500.02235174447,-187500.02235174447,-187500.02235174447,-187500.02235174447
talvez,4054.6958511705225,-6858.45397215533,7539.846901875366,10505.096376549767,-187500.02235174447,-187500.02235174447,-187500.02235174447,-187500.02235174447
talvez,3967.16641988354,-6872.5802746510835,7519.05977953193,10507.756234139948,-187500.02235174447,-187500.02235174447,-187500.02235174447,-187500.02235174447
talvez,3775.9695978128434,-6906.621981456517,6906.420815756419,10562.227435377532,-187500.02235174447,-187500.02235174447,-187500.02235174447,-187500.02235174447
talvez,3854.7371452733455,-6866.098268759045,6872.468515928807,10608.853174311302,-187500.02235174447,-187500.02235174447,-187500.02235174447,-187500.02235174447
talvez,4047.766810389377,-6890.573428937606,7423.32725802985,10501.900077092658,-187500.02235174447,-187500.02235174447,-187500.02235174447,-187500.02235174447
talvez,4007.9136500255645,-6920.971801396823,7501.647770601246,10438.73404726196,-187500.02235174447,-187500.02235174447,-187500.02235174447,-187500.02235174447
talvez,3950.2014458419617,-6842.49482661424,7107.094777476165,10581.494639098006,-187500.02235174447,-187500.02235174447,-187500.02235174447,-187500.02235174447
talvez,3874.9207705164877,-6946.631604031516,6737.128703251923,10561.109848154765,-187500.02235174447,-187500.02235174447,-187500.02235174447,-187500.02235174447
talvez,3979.7951555007885,-6932.929984680412,7284.969959851499,10518.976809856513,-187500.02235174447,-187500.02235174447,-187500.02235174447,-187500.02235174447
talvez,4013.7251035839445,-6868.534608904673,7552.609747959345,10534.734789697504,-187500.02235174447,-187500.02235174447,-187500.02235174447,-187500.02235174447
talvez,3879.0558432407197,-6896.273123773709,7094.3989866255515,10542.22262409003,-187500.02235174447,-187500.02235174447,-187500.02235174447,-187500.02235174447
talvez,3860.5709505761806,-6920.591821741084,6729.394999670387,10602.795851563913,-187500.02235174447,-187500.02235174447,-187500.02235174447,-187500.02235174447
talvez,4016.3626094296706,-6957.002813458778,7149.786609385802,10507.488013206485,-187500.02235174447,-187500.02235174447,-187500.02235174447,-187500.02235174447
talvez,4094.928991190075,-6909.013618113234,7575.207361603661,10496.401547956651,-187500.02235174447,-187500.02235174447,-187500.02235174447,-187500.02235174447
talvez,3973.491963564392,-6900.3411412645755,7253.632814125159,10541.37325780073,-187500.02235174447,-187500.02235174447,-187500.02235174447,-187500.02235174447
talvez,3855.8994359850212,-6934.606365514561,6823.048808938123,10687.30779734943,-187500.02235174447,-187500.02235174447,-187500.02235174447,-187500.02235174447
talvez,4027.002039790397,-6930.873624190524,7122.584536383693,10626.958087320101,-187500.02235174447,-187500.02235174447,-187500.02235174447,-187500.02235174447
talvez,4121.751084536443,-6884.449050956852,7516.578735897391,10525.74938842647,-187500.02235174447,-187500.02235174447,-187500.02235174447,-187500.02235174447
talvez,3975.771841498833,-6868.221684482299,7309.087492118775,10524.698856437071,-187500.02235174447,-187500.02235174447,-187500.02235174447,-187500.02235174447
talvez,3885.493145643848,-6936.573319026628,6784.268532308166,10557.310051597364,-187500.02235174447,-187500.02235174447,-187500.02235174447,-187500.02235174447
talvez,3934.197596811962,-6957.539255325706,6917.9543158953575,10508.516193451429,-187500.02235174447,-187500.02235174447,-187500.02235174447,-187500.02235174447
talvez,4114.598526310745,-6917.261411817242,7508.040369515464,10524.162414570143,-187500.02235174447,-187500.02235174447,-187500.02235174447,-187500.02235174447
talvez,4069.6938717000335,-6890.059338815134,7460.341746847838,10614.932848803146,-187500.02235174447,-187500.02235174447,-187500.02235174447,-187500.02235174447
talvez,3850.6020725491135,-6916.322638550119,6882.683263144882,10657.423515012684,-187500.02235174447,-187500.02235174447,-187500.02235174447,-187500.02235174447
talvez,3948.3462510521713,-6944.776409241726,6877.832934598081,10676.310739077418,-187500.02235174447,-187500.02235174447,-187500.02235174447,-187500.02235174447
talvez,4094.8172324677985,-6905.571449467117,7493.869363530799,10634.937660090645,-187500.02235174447,-187500.02235174447,-187500.02235174447,-187500.02235174447
talvez,4014.46271115097,-6891.98158883829,7522.792520855966,10611.535383645938,-187500.02235174447,-187500.02235174447,-187500.02235174447,-187500.02235174447
talvez,3845.0811916686525,-6924.816301443137,6961.47316234984,10621.0572267839,-187500.02235174447,-187500.02235174447,-187500.02235174447,-187500.02235174447
talvez,3884.4649653989036,-6965.183551929421,6799.288904582132,10661.938567392655,-187500.02235174447,-187500.02235174447,-187500.02235174447,-187500.02235174447
talvez,4084.9824649074635,-6909.6171152135275,7399.388539718216,10615.156366247698,-187500.02235174447,-187500.02235174447,-187500.02235174447,-187500.02235174447
talvez,4051.2089790354944,-6871.976777550791,7577.442536049192,10592.804621792391,-187500.02235174447,-187500.02235174447,-187500.02235174447,-187500.02235174447
talvez,3891.9975032803422,-6922.335257808597,7094.242524414364,10654.383677766762,-187500.02235174447,-187500.02235174447,-187500.02235174447,-187500.02235174447
talvez,3865.8012587787225,-6986.551819628695,6759.301633751587,10656.842369656846,-187500.02235174447,-187500.02235174447,-187500.02235174447,-187500.02235174447
talvez,4060.194380306528,-6941.289537106698,7280.812535382812,10607.936752788633,-187500.02235174447,-187500.02235174447,-187500.02235174447,-187500.02235174447
talvez,4071.258493811905,-6880.783364866182,7595.636856035812,10594.749223560004,-187500.02235174447,-187500.02235174447,-187500.02235174447,-187500.02235174447
talvez,3921.010067583331,-6888.4276614698965,7213.757302016891,10673.427364042684,-187500.02235174447,-187500.02235174447,-187500.02235174447,-187500.02235174447
talvez,3838.1968543764183,-6952.867740734547,6771.751555413193,10674.232026843076,-187500.02235174447,-187500.02235174447,-187500.02235174447,-187500.02235174447
talvez,4003.845632534699,-6947.413915087452,7186.4434702925055,10627.71804663158,-187500.02235174447,-187500.02235174447,-187500.02235174447,-187500.02235174447
talvez,4058.2721302833716,-6884.940789334869,7619.329705158438,10603.91343878668,-187500.02235174447,-187500.02235174447,-187500.02235174447,-187500.02235174447
talvez,3907.6660761435123,-6892.026292327201,7310.361541552728,10633.48479670105,-187500.02235174447,-187500.02235174447,-187500.02235174447,-187500.02235174447
talvez,3794.052159077187,-6973.677214822437,6793.410395790386,10671.259244830519,-187500.02235174447,-187500.02235174447,-187500.02235174447,-187500.02235174447
talvez,3932.431808999993,-6986.95415102889,7062.748916476837,10617.905630815701,-187500.02235174447,-187500.02235174447,-187500.02235174447,-187500.02235174447
talvez,4047.4315342225477,-6902.1069290765445,7594.988655446608,10603.600514364305,-187500.02235174447,-187500.02235174447,-187500.02235174447,-187500.02235174447
talvez,3924.943974607465,-6870.50156241674,7410.340894501316,10634.602383923815,-187500.02235174447,-187500.02235174447,-187500.02235174447,-187500.02235174447
talvez,3779.2553042477734,-6916.903783905957,6863.572521635595,10681.026957157488,-187500.02235174447,-187500.02235174447,-187500.02235174447,-187500.02235174447
talvez,3882.073328742186,-6948.732668010315,6967.061098463667,10646.269994529486,-187500.02235174447,-187500.02235174447,-187500.02235174447,-187500.02235174447
talvez,4007.9136500255645,-6919.004847884757,7527.978125569597,10575.057336694877,-187500.02235174447,-187500.02235174447,-187500.02235174447,-187500.02235174447
talvez,3927.4473699864593,-6903.582144210594,7483.319340147894,10614.91049705869,-187500.02235174447,-187500.02235174447,-187500.02235174447,-187500.02235174447
talvez,3773.4438506893935,-6939.568452783639,6932.170025368932,10676.042518143955,-187500.02235174447,-187500.02235174447,-187500.02235174447,-187500.02235174447
talvez,3819.130816356041,-6941.714220251349,6863.639576868961,10677.383622811274,-187500.02235174447,-187500.02235174447,-187500.02235174447,-187500.02235174447
talvez,3986.880658493121,-6881.051585799645,7463.359232349305,10630.467311199583,-187500.02235174447,-187500.02235174447,-187500.02235174447,-187500.02235174447
talvez,3929.190806053973,-6870.076879272089,7514.790596340967,10605.969799276567,-187500.02235174447,-187500.02235174447,-187500.02235174447,-187500.02235174447
talvez,3780.2611327482623,-6882.906780589436,7010.803462362703,10679.887018190268,-187500.02235174447,-187500.02235174447,-187500.02235174447,-187500.02235174447
talvez,3775.36610071255,-6923.922231664924,6803.848660451014,10672.376832053284,-187500.02235174447,-187500.02235174447,-187500.02235174447,-187500.02235174447
talvez,3977.6270362886235,-6882.929132333891,7380.836591820311,10601.566505618872,-187500.02235174447,-187500.02235174447,-187500.02235174447,-187500.02235174447
talvez,3977.2023531439727,-6851.234358696265,7599.101376426384,10628.567412920882,-187500.02235174447,-187500.02235174447,-187500.02235174447,-187500.02235174447
talvez,3789.045368319198,-6905.616152956028,7116.482510147394,10691.822849729402,-187500.02235174447,-187500.02235174447,-187500.02235174447,-187500.02235174447
talvez,3727.7345332782907,-6930.136016623499,6762.654395419883,10697.231971887586,-187500.02235174447,-187500.02235174447,-187500.02235174447,-187500.02235174447
talvez,3935.8963293905654,-6886.617170169016,7269.435497455061,10636.167006035686,-187500.02235174447,-187500.02235174447,-187500.02235174447,-187500.02235174447
talvez,3985.6736642925343,-6842.852454525525,7609.539641087013,10632.8589478563,-187500.02235174447,-187500.02235174447,-187500.02235174447,-187500.02235174447
talvez,3839.04622066572,-6867.685242615372,7236.220805194474,10703.848088246357,-187500.02235174447,-187500.02235174447,-187500.02235174447,-187500.02235174447
talvez,3751.6061963565585,-6924.771597954225,6782.77096542966,10716.253306419052,-187500.02235174447,-187500.02235174447,-187500.02235174447,-187500.02235174447
talvez,3905.095625531152,-6901.145804064966,7153.206426287464,10623.650029140716,-187500.02235174447,-187500.02235174447,-187500.02235174447,-187500.02235174447
talvez,3988.6240945606346,-6846.696954571838,7603.437614850714,10586.657892067182,-187500.02235174447,-187500.02235174447,-187500.02235174447,-187500.02235174447
talvez,3869.042261724742,-6862.007899523724,7332.69093426358,10653.377849266273,-187500.02235174447,-187500.02235174447,-187500.02235174447,-187500.02235174447
talvez,3740.430324128905,-6920.122435107522,6812.1188058994785,10690.034710172977,-187500.02235174447,-187500.02235174447,-187500.02235174447,-187500.02235174447
talvez,3874.071404227186,-6927.722028222326,7068.672128757493,10663.659651715714,-187500.02235174447,-187500.02235174447,-187500.02235174447,-187500.02235174447
talvez,4030.108932269685,-6866.83587632607,7612.735940544122,10628.880337343257,-187500.02235174447,-187500.02235174447,-187500.02235174447,-187500.02235174447
talvez,3909.1189395331076,-6850.228530195776,7441.789798949933,10650.91915737619,-187500.02235174447,-187500.02235174447,-187500.02235174447,-187500.02235174447
talvez,3716.0445709281653,-6904.766786666726,6869.339271705065,10703.26694289052,-187500.02235174447,-187500.02235174447,-187500.02235174447,-187500.02235174447
talvez,3814.973391887354,-6913.886298404491,6942.988269685301,10629.170910021176,-187500.02235174447,-187500.02235174447,-187500.02235174447,-187500.02235174447
talvez,3995.2402109194054,-6849.0438877396455,7542.126779809807,10589.764784546469,-187500.02235174447,-187500.02235174447,-187500.02235174447,-187500.02235174447
talvez,3924.96632635192,-6844.931166759869,7514.7458928520555,10641.151445049221,-187500.02235174447,-187500.02235174447,-187500.02235174447,-187500.02235174447
talvez,3763.206751728863,-6885.499582946251,6970.883246765524,10699.578905055394,-187500.02235174447,-187500.02235174447,-187500.02235174447,-187500.02235174447
talvez,3817.812063433178,-6930.113664879044,6903.64919944396,10684.335015336874,-187500.02235174447,-187500.02235174447,-187500.02235174447,-187500.02235174447
talvez,4008.0477604922967,-6889.724062648304,7526.033523801986,10635.205881024109,-187500.02235174447,-187500.02235174447,-187500.02235174447,-187500.02235174447
talvez,3988.869963749643,-6825.462797339296,7579.11891688334,10654.115456833299,-187500.02235174447,-187500.02235174447,-187500.02235174447,-187500.02235174447
talvez,3820.2707553232617,-6853.067201741601,7083.6030940536375,10711.447681361162,-187500.02235174447,-187500.02235174447,-187500.02235174447,-187500.02235174447
talvez,3798.0307695902316,-6927.252641588765,6850.83202729607,10702.35052136785,-187500.02235174447,-187500.02235174447,-187500.02235174447,-187500.02235174447
talvez,3985.0925189366963,-6889.902876603946,7513.874174818298,10653.400201010729,-187500.02235174447,-187500.02235174447,-187500.02235174447,-187500.02235174447
talvez,3997.3636266426597,-6838.672678312383,7748.813360788031,10638.9609740926,-187500.02235174447,-187500.02235174447,-187500.02235174447,-187500.02235174447
talvez,3854.8712557400772,-6820.724227514771,7224.843767266723,10718.466129120128,-187500.02235174447,-187500.02235174447,-187500.02235174447,-187500.02235174447
talvez,3824.070551880664,-6879.397556709952,6924.279859576209,10766.187103532207,-187500.02235174447,-187500.02235174447,-187500.02235174447,-187500.02235174447
talvez,3951.4754952759145,-6923.631658987005,7319.391646312672,10640.369133993285,-187500.02235174447,-187500.02235174447,-187500.02235174447,-187500.02235174447
talvez,4011.892260538609,-6847.568672605596,7645.637708382334,10623.359456462797,-187500.02235174447,-187500.02235174447,-187500.02235174447,-187500.02235174447
talvez,3846.6458137805243,-6882.347986978053,7184.543572013805,10665.604253483327,-187500.02235174447,-187500.02235174447,-187500.02235174447,-187500.02235174447
talvez,3698.9007829309444,-6968.692775808904,6708.116138948934,10643.900709617223,-187500.02235174447,-187500.02235174447,-187500.02235174447,-187500.02235174447
talvez,3898.904192317032,-6905.504394233751,7165.052850848777,10639.67622991517,-187500.02235174447,-187500.02235174447,-187500.02235174447,-187500.02235174447
talvez,4049.6890604125338,-6858.677489599882,7749.975651499707,10646.314698018396,-187500.02235174447,-187500.02235174447,-187500.02235174447,-187500.02235174447
talvez,3884.3755584210826,-6907.471347745818,7349.901777494166,10652.237910299053,-187500.02235174447,-187500.02235174447,-187500.02235174447,-187500.02235174447
talvez,3775.947246068388,-6933.265260847243,6782.167468329367,10694.840335230869,-187500.02235174447,-187500.02235174447,-187500.02235174447,-187500.02235174447
talvez,3928.855529887144,-6914.3109815491425,7156.4474292334835,10691.241704373564,-187500.02235174447,-187500.02235174447,-187500.02235174447,-187500.02235174447
talvez,4061.2225605514723,-6859.526855889185,7576.369652315338,10667.30298606193,-187500.02235174447,-187500.02235174447,-187500.02235174447,-187500.02235174447
talvez,3902.3687127076046,-6922.4693682753295,7319.950439924055,10615.692808114625,-187500.02235174447,-187500.02235174447,-187500.02235174447,-187500.02235174447
talvez,3804.490423737815,-6951.4148773449515,6868.780478093681,10687.285445604974,-187500.02235174447,-187500.02235174447,-187500.02235174447,-187500.02235174447
talvez,3956.325823822716,-6940.529577795217,7023.275735768764,10719.002570987055,-187500.02235174447,-187500.02235174447,-187500.02235174447,-187500.02235174447
talvez,4114.486767588469,-6883.59968466755,7588.886629210309,10662.58676798186,-187500.02235174447,-187500.02235174447,-187500.02235174447,-187500.02235174447
talvez,4039.541368429824,-6846.652251082927,7543.6243466883125,10650.807398653913,-187500.02235174447,-187500.02235174447,-187500.02235174447,-187500.02235174447
talvez,3866.0247762232757,-6900.3411412645755,6996.677159866948,10704.563344068927,-187500.02235174447,-187500.02235174447,-187500.02235174447,-187500.02235174447
talvez,3911.3094104897277,-6939.188473127899,6902.822184899114,10701.299989378453,-187500.02235174447,-187500.02235174447,-187500.02235174447,-187500.02235174447
talvez,4110.1058256752285,-6895.289647017676,7493.735253064067,10639.273898514975,-187500.02235174447,-187500.02235174447,-187500.02235174447,-187500.02235174447
talvez,4066.2069995650054,-6866.2994344591425,7619.17324294725,10659.077544102376,-187500.02235174447,-187500.02235174447,-187500.02235174447,-187500.02235174447
talvez,3914.192785524462,-6885.946617835358,7127.814844586235,10720.656600076747,-187500.02235174447,-187500.02235174447,-187500.02235174447,-187500.02235174447
talvez,3905.4756051868926,-6938.249699860776,6877.497658431252,10710.151280182754,-187500.02235174447,-187500.02235174447,-187500.02235174447,-187500.02235174447
talvez,4102.95326744953,-6898.374187752508,7441.409819294193,10663.972576138089,-187500.02235174447,-187500.02235174447,-187500.02235174447,-187500.02235174447
talvez,4133.262232930927,-6839.566748090595,7712.827052214987,10685.0726229039,-187500.02235174447,-187500.02235174447,-187500.02235174447,-187500.02235174447
talvez,3969.0216146733305,-6885.387824223974,7249.184816978553,10726.915088524234,-187500.02235174447,-187500.02235174447,-187500.02235174447,-187500.02235174447
talvez,3896.780776593778,-6928.191414855888,6847.099285972034,10722.109463466342,-187500.02235174447,-187500.02235174447,-187500.02235174447,-187500.02235174447
talvez,4089.8551451987205,-6884.896085845958,7339.239995388984,10667.057116872922,-187500.02235174447,-187500.02235174447,-187500.02235174447,-187500.02235174447
talvez,4161.671300133622,-6847.59102435005,7714.346970837948,10658.786971424457,-187500.02235174447,-187500.02235174447,-187500.02235174447,-187500.02235174447
talvez,4010.84172854921,-6876.089498530567,7353.031021717909,10701.098823678354,-187500.02235174447,-187500.02235174447,-187500.02235174447,-187500.02235174447
talvez,3902.9722098078983,-6919.295420562676,6885.812507368625,10730.781940315002,-187500.02235174447,-187500.02235174447,-187500.02235174447,-187500.02235174447
talvez,4073.448964768525,-6900.117623820022,7239.953546518511,10692.381643340785,-187500.02235174447,-187500.02235174447,-187500.02235174447,-187500.02235174447
talvez,4183.35249225527,-6824.345210116531,7737.637488560377,10681.965730424612,-187500.02235174447,-187500.02235174447,-187500.02235174447,-187500.02235174447
talvez,4067.771621676877,-6834.4258468658745,7486.314473904905,10713.302876150952,-187500.02235174447,-187500.02235174447,-187500.02235174447,-187500.02235174447
talvez,3875.0325292387643,-6941.043667917689,6877.475306686796,10681.58575076887,-187500.02235174447,-187500.02235174447,-187500.02235174447,-187500.02235174447
talvez,4019.447150164503,-6930.001906156767,7109.6652280885255,10677.629492000282,-187500.02235174447,-187500.02235174447,-187500.02235174447,-187500.02235174447
talvez,4183.374843999725,-6856.241149454254,7713.497604548646,10662.631471470771,-187500.02235174447,-187500.02235174447,-187500.02235174447,-187500.02235174447
talvez,4078.7463282044328,-6832.68241079836,7562.489219008591,10689.386509583774,-187500.02235174447,-187500.02235174447,-187500.02235174447,-187500.02235174447
talvez,3900.3123522177166,-6892.540382449673,6955.594653558094,10726.021018746022,-187500.02235174447,-187500.02235174447,-187500.02235174447,-187500.02235174447
$SILENCE,4001.453995877981,-6901.570487209617,7029.3107067716965,10709.190155171174,-187500.02235174447,-187500.02235174447,-187500.02235174447,-187500.02235174447
$SILENCE,4189.096890580284,-6849.02153599519,7629.410341907781,10659.524578991482,-187500.02235174447,-187500.02235174447,-187500.02235174447,-187500.02235174447
$SILENCE,4119.627668813189,-6837.264518411698,7653.885502086342,10676.35544256633,-187500.02235174447,-187500.02235174447,-187500.02235174447,-187500.02235174447
$SILENCE,3932.2082915554397,-6887.622998669505,7085.681806287981,10723.31645766693,-187500.02235174447,-187500.02235174447,-187500.02235174447,-187500.02235174447
$SILENCE,3975.2130478874506,-6912.366379781531,6927.565566011139,10722.444739633173,-187500.02235174447,-187500.02235174447,-187500.02235174447,-187500.02235174447
$SILENCE,4157.491523920479,-6858.565730877606,7523.10544527834,10657.557625479416,-187500.02235174447,-187500.02235174447,-187500.02235174447,-187500.02235174447
$SILENCE,4120.7229042915,-6826.0886461840455,7667.1847900372495,10655.188340567152,-187500.02235174447,-187500.02235174447,-187500.02235174447,-187500.02235174447
$SILENCE,3982.611475302157,-6837.264518411698,7215.5007380844045,10737.286297951496,-187500.02235174447,-187500.02235174447,-187500.02235174447,-187500.02235174447
$SILENCE,3964.8865419490985,-6889.232324270288,6950.52080756674,10741.9354607982,-187500.02235174447,-187500.02235174447,-187500.02235174447,-187500.02235174447
$SILENCE,4135.542110865368,-6874.770745607704,7459.6264910252685,10665.738363950059,-187500.02235174447,-187500.02235174447,-187500.02235174447,-187500.02235174447
$SILENCE,4158.340890209781,-6825.060465939101,7708.379055068381,10665.917177905701,-187500.02235174447,-187500.02235174447,-187500.02235174447,-187500.02235174447
$SILENCE,4002.191603445006,-6835.722248044282,7274.174067279586,10716.186251185687,-187500.02235174447,-187500.02235174447,-187500.02235174447,-187500.02235174447
$SILENCE,3924.519291462814,-6893.0768243166,6865.941806547858,10725.462225134639,-187500.02235174447,-187500.02235174447,-187500.02235174447,-187500.02235174447
$SILENCE,4093.1632033781057,-6884.806678868137,7319.659867246136,10648.840445141846,-187500.02235174447,-187500.02235174447,-187500.02235174447,-187500.02235174447
$SILENCE,4178.457460219558,-6818.153776902411,7725.947526210252,10653.936642877656,-187500.02235174447,-187500.02235174447,-187500.02235174447,-187500.02235174447
$SILENCE,4031.2935747258157,-6839.902024257425,7378.400251674682,10701.098823678354,-187500.02235174447,-187500.02235174447,-187500.02235174447,-187500.02235174447
$SILENCE,3928.1849775534843,-6897.390710996475,6899.849402886558,10733.397094416272,-187500.02235174447,-187500.02235174447,-187500.02235174447,-187500.02235174447
$SILENCE,4077.7628514483995,-6879.017577054212,7237.67366858407,10676.82482919989,-187500.02235174447,-187500.02235174447,-187500.02235174447,-187500.02235174447
$SILENCE,4179.8432683757865,-6818.891384469436,7719.823148229498,10641.129093304766,-187500.02235174447,-187500.02235174447,-187500.02235174447,-187500.02235174447
$SILENCE,4053.3100430142936,-6815.426864078863,7492.48355537457,10684.312663592418,-187500.02235174447,-187500.02235174447,-187500.02235174447,-187500.02235174447
$SILENCE,3909.0518842997417,-6873.40728919593,6947.570377298639,10731.966582771132,-187500.02235174447,-187500.02235174447,-187500.02235174447,-187500.02235174447
$SILENCE,4026.3985426901036,-6880.962178821824,7128.731266108903,10697.388434098773,-187500.02235174447,-187500.02235174447,-187500.02235174447,-187500.02235174447
$SILENCE,4170.343776982281,-6830.06725669709,7666.290720259038,10654.54013997795,-187500.02235174447,-187500.02235174447,-187500.02235174447,-187500.02235174447
$SILENCE,4079.8192119382875,-6811.939991943836,7552.497989237069,10679.551742023437,-187500.02235174447,-187500.02235174447,-187500.02235174447,-187500.02235174447
$SILENCE,3915.0421518137637,-6863.1925419798545,6980.941531770412,10726.065722234933,-187500.02235174447,-187500.02235174447,-187500.02235174447,-187500.02235174447
$SILENCE,3985.0925189366963,-6896.608399940539,7003.583848903639,10690.772317740002,-187500.02235174447,-187500.02235174447,-187500.02235174447,-187500.02235174447
$SILENCE,4158.2961867208705,-6837.35392538952,7617.765083046566,10649.510997475505,-187500.02235174447,-187500.02235174447,-187500.02235174447,-187500.02235174447
$SILENCE,4121.684029303077,-6804.63097150695,7650.175112506761,10690.59350378436,-187500.02235174447,-187500.02235174447,-187500.02235174447,-187500.02235174447
$SILENCE,3945.172303339518,-6854.117733731,7093.4602133584285,10728.010324002544,-187500.02235174447,-187500.02235174447,-187500.02235174447,-187500.02235174447
$SILENCE,3962.3384430811934,-6880.805716610636,6964.71416529586,10711.827661016901,-187500.02235174447,-187500.02235174447,-187500.02235174447,-187500.02235174447
$SILENCE,4150.093096505773,-6827.988544462746,7532.046143060464,10671.594520997349,-187500.02235174447,-187500.02235174447,-187500.02235174447,-187500.02235174447
$SILENCE,4117.101921689739,-6822.266497882188,7671.632787183856,10651.232081798564,-187500.02235174447,-187500.02235174447,-187500.02235174447,-187500.02235174447
$SILENCE,3955.7670302113333,-6837.532739345163,7161.364813013651,10714.26400116253,-187500.02235174447,-187500.02235174447,-187500.02235174447,-187500.02235174447
$SILENCE,3929.906061876543,-6884.136126534478,6870.255693227732,10712.721730795114,-187500.02235174447,-187500.02235174447,-187500.02235174447,-187500.02235174447
$SILENCE,4115.582003066779,-6864.399536180442,7398.114490284263,10651.455599243118,-187500.02235174447,-187500.02235174447,-187500.02235174447,-187500.02235174447
$SILENCE,4149.780172083399,-6812.990523933235,7698.298418319037,10661.290366803452,-187500.02235174447,-187500.02235174447,-187500.02235174447,-187500.02235174447
$SILENCE,3969.9603879404535,-6830.179015419366,7276.409241725117,10711.671198805714,-187500.02235174447,-187500.02235174447,-187500.02235174447,-187500.02235174447
$SILENCE,3892.1763172359847,-6876.670643886405,6862.790210579659,10736.16871072873,-187500.02235174447,-187500.02235174447,-187500.02235174447,-187500.02235174447
$SILENCE,4093.699645245033,-6856.576425621084,7313.647247987658,10692.314588107418,-187500.02235174447,-187500.02235174447,-187500.02235174447,-187500.02235174447
$SILENCE,4163.258273989949,-6809.213079120288,7712.312962092515,10654.763657422502,-187500.02235174447,-187500.02235174447,-187500.02235174447,-187500.02235174447
$SILENCE,4022.330525199238,-6820.791282748138,7371.8735422937325,10696.896695720756,-187500.02235174447,-187500.02235174447,-187500.02235174447,-187500.02235174447
$SILENCE,3901.6534568850348,-6875.821277597103,6868.288739715665,10724.948135012166,-187500.02235174447,-187500.02235174447,-187500.02235174447,-187500.02235174447
$SILENCE,4058.808572150299,-6869.4063269384305,7192.56784827326,10684.379718825785,-187500.02235174447,-187500.02235174447,-187500.02235174447,-187500.02235174447
$SILENCE,4169.025024059418,-6812.387026832942,7696.107947362417,10662.027974370478,-187500.02235174447,-187500.02235174447,-187500.02235174447,-187500.02235174447
$SILENCE,4038.267318995872,-6812.901116955414,7467.1366771622515,10695.510887564527,-187500.02235174447,-187500.02235174447,-187500.02235174447,-187500.02235174447
$SILENCE,3881.4474798974375,-6865.427716425385,6909.684170446893,10731.765417071036,-187500.02235174447,-187500.02235174447,-187500.02235174447,-187500.02235174447
$SILENCE,4018.709542597478,-6869.003995538234,7083.848963242646,10702.21641090112,-187500.02235174447,-187500.02235174447,-187500.02235174447,-187500.02235174447
$SILENCE,4163.995881556974,-6814.108111156001,7646.867054327376,10657.423515012684,-187500.02235174447,-187500.02235174447,-187500.02235174447,-187500.02235174447
$SILENCE,4071.839639167743,-6799.311256326588,7551.11218108084,10694.505059064039,-187500.02235174447,-187500.02235174447,-187500.02235174447,-187500.02235174447
$SILENCE,3895.8867068155655,-6848.038059239157,6982.528505626739,10730.245498448074,-187500.02235174447,-187500.02235174447,-187500.02235174447,-187500.02235174447
$SILENCE,3955.521161022325,-6880.112812532522,6977.409956146474,10695.77910849799,-187500.02235174447,-187500.02235174447,-187500.02235174447,-187500.02235174447
$SILENCE,4142.739372579977,-6824.524024072173,7574.313291825449,10645.979421851567,-187500.02235174447,-187500.02235174447,-187500.02235174447,-187500.02235174447
$SILENCE,4080.6909299720446,-6809.078968653556,7594.474565324136,10655.188340567152,-187500.02235174447,-187500.02235174447,-187500.02235174447,-187500.02235174447
$SILENCE,3932.387105511082,-6835.141102688444,7078.909227718023,10746.629327133815,-187500.02235174447,-187500.02235174447,-187500.02235174447,-187500.02235174447
$SILENCE,3954.0459458882747,-6876.447126441852,6919.496586262773,10755.055934793465,-187500.02235174447,-187500.02235174447,-187500.02235174447,-187500.02235174447
$SILENCE,4133.373991653203,-6826.625088050972,7500.86545954531,10689.11828865031,-187500.02235174447,-187500.02235174447,-187500.02235174447,-187500.02235174447
$SILENCE,4110.932840220075,-6793.030416134646,7659.361679477893,10661.402125525728,-187500.02235174447,-187500.02235174447,-187500.02235174447,-187500.02235174447
$SILENCE,3942.0430591157747,-6822.937050215847,7167.7127084389585,10705.613876058325,-187500.02235174447,-187500.02235174447,-187500.02235174447,-187500.02235174447
$SILENCE,3908.1131110326187,-6868.735774604771,6863.080783257578,10722.668257077725,-187500.02235174447,-187500.02235174447,-187500.02235174447,-187500.02235174447
$SILENCE,4095.4430813125473,-6838.717381801293,7383.965836044054,10672.376832053284,-187500.02235174447,-187500.02235174447,-187500.02235174447,-187500.02235174447
$SILENCE,4132.211700941527,-6800.741767971727,7686.630807713367,10661.82680867038,-187500.02235174447,-187500.02235174447,-187500.02235174447,-187500.02235174447
$SILENCE,3968.999262928875,-6824.63578279445,7265.903921831122,10697.634303287781,-187500.02235174447,-187500.02235174447,-187500.02235174447,-187500.02235174447
$SILENCE,3896.266686471306,-6867.975815293291,6845.914643515903,10735.11817873933,-187500.02235174447,-187500.02235174447,-187500.02235174447,-187500.02235174447
$SILENCE,4071.8843426566536,-6845.02057373769,7274.911674846611,10693.9239137082,-187500.02235174447,-187500.02235174447,-187500.02235174447,-187500.02235174447
$SILENCE,4140.638308601178,-6795.623218491462,7690.0729763594845,10662.653823215225,-187500.02235174447,-187500.02235174447,-187500.02235174447,-187500.02235174447
$SILENCE,3994.7484725413888,-6802.842831950526,7363.424582889626,10706.195021414163,-187500.02235174447,-187500.02235174447,-187500.02235174447,-187500.02235174447
$SILENCE,3871.590360592647,-6854.296547686643,6845.489960371252,10738.31447819644,-187500.02235174447,-187500.02235174447,-187500.02235174447,-187500.02235174447
$SILENCE,4032.388810204126,-6854.520065131196,7160.738964168902,10712.632323817292,-187500.02235174447,-187500.02235174447,-187500.02235174447,-187500.02235174447
$SILENCE,4150.718945350522,-6802.239334850233,7677.019557597585,10690.794669484458,-187500.02235174447,-187500.02235174447,-187500.02235174447,-187500.02235174447
$SILENCE,4045.6210429216676,-6791.734014956238,7476.233837155562,10736.682800851202,-187500.02235174447,-187500.02235174447,-187500.02235174447,-187500.02235174447
$SILENCE,3896.490203915859,-6833.934108487858,6908.343065779575,10764.93540584271,-187500.02235174447,-187500.02235174447,-187500.02235174447,-187500.02235174447
$SILENCE,3997.0283504758304,-6851.480227885274,7044.44283776794,10703.937495224178,-187500.02235174447,-187500.02235174447,-187500.02235174447,-187500.02235174447
$SILENCE,4146.986204026485,-6802.284038339143,7620.179071447739,10667.548855250938,-187500.02235174447,-187500.02235174447,-187500.02235174447,-187500.02235174447
$SILENCE,4066.51992398738,-6786.213134075777,7544.92074786672,10699.042463188465,-187500.02235174447,-187500.02235174447,-187500.02235174447,-187500.02235174447
$SILENCE,3895.260857970817,-6831.006029964213,6977.991101502312,10746.070533522432,-187500.02235174447,-187500.02235174447,-187500.02235174447,-187500.02235174447
$SILENCE,3951.2519778313613,-6853.514236630707,6956.153447169477,10731.988934515588,-187500.02235174447,-187500.02235174447,-187500.02235174447,-187500.02235174447
$SILENCE,4129.551843351346,-6801.993465661224,7557.415373017237,10682.099840891344,-187500.02235174447,-187500.02235174447,-187500.02235174447,-187500.02235174447
$SILENCE,4096.270095857393,-6780.982825873235,7611.439539365714,10699.511849822027,-187500.02235174447,-187500.02235174447,-187500.02235174447,-187500.02235174447
$SILENCE,3921.9935443393642,-6823.071160682579,7062.547750776738,10745.288222466495,-187500.02235174447,-187500.02235174447,-187500.02235174447,-187500.02235174447
$SILENCE,3923.8263873846995,-6860.286815200665,6873.854324085036,10732.12304498232,-187500.02235174447,-187500.02235174447,-187500.02235174447,-187500.02235174447
$SILENCE,4109.904659975131,-6812.431730321852,7467.181380651162,10684.983215926077,-187500.02235174447,-187500.02235174447,-187500.02235174447,-187500.02235174447
$SILENCE,4105.344904106249,-6777.071270593557,7667.341252248437,10702.55168706795,-187500.02235174447,-187500.02235174447,-187500.02235174447,-187500.02235174447
$SILENCE,3936.5445299797693,-6809.660114009394,7170.104345095676,10750.965565558145,-187500.02235174447,-187500.02235174447,-187500.02235174447,-187500.02235174447
$SILENCE,3905.810881353722,-6855.280024442676,6835.632841066461,10741.130797997808,-187500.02235174447,-187500.02235174447,-187500.02235174447,-187500.02235174447
$SILENCE,4100.762796492911,-6823.562899060596,7358.93188225411,10691.532277051483,-187500.02235174447,-187500.02235174447,-187500.02235174447,-187500.02235174447
$SILENCE,4130.870596274209,-6780.1334595839335,7676.572522708479,10687.933646194178,-187500.02235174447,-187500.02235174447,-187500.02235174447,-187500.02235174447
$SILENCE,3967.0546611612635,-6802.887535439437,7266.239197997952,10731.072512992921,-187500.02235174447,-187500.02235174447,-187500.02235174447,-187500.02235174447
$SILENCE,3886.7001398444345,-6851.457876140818,6824.479320583263,10754.161865015252,-187500.02235174447,-187500.02235174447,-187500.02235174447,-187500.02235174447
$SILENCE,4056.1487145601172,-6833.9564602323135,7239.305345929307,10699.198925399653,-187500.02235174447,-187500.02235174447,-187500.02235174447,-187500.02235174447
$SILENCE,4138.894872533664,-6783.2403520632215,7677.0419093420405,10677.182457111176,-187500.02235174447,-187500.02235174447,-187500.02235174447,-187500.02235174447
$SILENCE,3998.2129929319613,-6791.890477167425,7366.55382711337,10722.444739633173,-187500.02235174447,-187500.02235174447,-187500.02235174447,-187500.02235174447
$SILENCE,3873.7361280603564,-6842.4054196364195,6846.272271427188,10761.359126729862,-187500.02235174447,-187500.02235174447,-187500.02235174447,-187500.02235174447
$SILENCE,4012.1157779831624,-6842.4054196364195,7122.651591617059,10710.553611582949,-187500.02235174447,-187500.02235174447,-187500.02235174447,-187500.02235174447
$SILENCE,4138.671355089111,-6784.268532308166,7656.0312695540515,10678.814134456414,-187500.02235174447,-187500.02235174447,-187500.02235174447,-187500.02235174447
$SILENCE,4031.3382782147264,-6780.222866561755,7473.663386543201,10723.204698944654,-187500.02235174447,-187500.02235174447,-187500.02235174447,-187500.02235174447
$SILENCE,3881.849811297633,-6833.978811976768,6899.759995908737,10755.905301082767,-187500.02235174447,-187500.02235174447,-187500.02235174447,-187500.02235174447
$SILENCE,3973.938998453498,-6853.693050586349,7006.6460378940155,10709.748948782559,-187500.02235174447,-187500.02235174447,-187500.02235174447,-187500.02235174447
$SILENCE,4123.963907237519,-6801.009988905191,7591.859411222865,10665.693660461147,-187500.02235174447,-187500.02235174447,-187500.02235174447,-187500.02235174447
$SILENCE,4053.6229674366678,-6783.86620090797,7537.790541385477,10693.11925090781,-187500.02235174447,-187500.02235174447,-187500.02235174447,-187500.02235174447
$SILENCE,3894.813823081711,-6826.2674601396875,6975.375947401041,10751.36789695834,-187500.02235174447,-187500.02235174447,-187500.02235174447,-187500.02235174447
$SILENCE,3951.654309231557,-6851.010841251713,6932.013563157745,10737.956850285156,-187500.02235174447,-187500.02235174447,-187500.02235174447,-187500.02235174447
$SILENCE,4127.160206694628,-6799.937105171336,7536.404733229248,10683.932683936679,-187500.02235174447,-187500.02235174447,-187500.02235174447,-187500.02235174447
$SILENCE,4083.864877684698,-6774.523171725652,7608.332646886426,10688.425384572194,-187500.02235174447,-187500.02235174447,-187500.02235174447,-187500.02235174447
$SILENCE,3907.688427887968,-6819.763102503193,7057.116276874099,10734.380571172307,-187500.02235174447,-187500.02235174447,-187500.02235174447,-187500.02235174447
$SILENCE,3915.3997797250486,-6861.40440242343,6855.3247279315865,10741.331963697907,-187500.02235174447,-187500.02235174447,-187500.02235174447,-187500.02235174447
$SILENCE,4106.596601795745,-6809.168375631378,7447.0648106413855,10692.605160785337,-187500.02235174447,-187500.02235174447,-187500.02235174447,-187500.02235174447
$SILENCE,4108.585907052267,-6776.557180471084,7657.75235387711,10687.888942705267,-187500.02235174447,-187500.02235174447,-187500.02235174447,-187500.02235174447
$SILENCE,3943.3841637830933,-6811.470605310275,7167.176266572031,10731.497196137572,-187500.02235174447,-187500.02235174447,-187500.02235174447,-187500.02235174447
$SILENCE,3905.453253442437,-6860.555036134128,6815.695085012328,10737.88979505179,-187500.02235174447,-187500.02235174447,-187500.02235174447,-187500.02235174447
$SILENCE,4112.251593142938,-6834.8952334994365,7336.378972098705,10685.20673337063,-187500.02235174447,-187500.02235174447,-187500.02235174447,-187500.02235174447
$SILENCE,4151.143628495172,-6783.329759041043,7674.963197107697,10672.555646008926,-187500.02235174447,-187500.02235174447,-187500.02235174447,-187500.02235174447
$SILENCE,3984.511373580858,-6795.690273724827,7276.252779513929,10718.913164009235,-187500.02235174447,-187500.02235174447,-187500.02235174447,-187500.02235174447
$SILENCE,3886.208401466418,-6848.3956871504415,6823.294678127132,10753.84894059288,-187500.02235174447,-187500.02235174447,-187500.02235174447,-187500.02235174447
$SILENCE,4048.929101101053,-6835.252861410721,7226.900127756611,10709.368969126817,-187500.02235174447,-187500.02235174447,-187500.02235174447,-187500.02235174447
$SILENCE,4125.550881093845,-6781.385157273431,7673.778554651565,10685.296140348451,-187500.02235174447,-187500.02235174447,-187500.02235174447,-187500.02235174447
$SILENCE,3991.3063038952714,-6791.1528696004,7380.166039486652,10726.803329801956,-187500.02235174447,-187500.02235174447,-187500.02235174447,-187500.02235174447
$SILENCE,3867.1647151904963,-6841.958384747313,6846.965175505302,10766.008289576566,-187500.02235174447,-187500.02235174447,-187500.02235174447,-187500.02235174447
$SILENCE,3992.669760307045,-6847.367506905497,7099.696350061459,10720.656600076747,-187500.02235174447,-187500.02235174447,-187500.02235174447,-187500.02235174447
$SILENCE,4127.8307590282875,-6789.63295097744,7648.074048527962,10680.691680990658,-187500.02235174447,-187500.02235174447,-187500.02235174447,-187500.02235174447
$SILENCE,4026.4655979234694,-6782.189820073822,7475.607988310813,10708.094919692865,-187500.02235174447,-187500.02235174447,-187500.02235174447,-187500.02235174447
$SILENCE,3876.328930417172,-6835.0740474550785,6902.419853498919,10742.896585809778,-187500.02235174447,-187500.02235174447,-187500.02235174447,-187500.02235174447
$SILENCE,3979.1246031671294,-6855.257672698221,6996.833622078136,10712.475861606104,-187500.02235174447,-187500.02235174447,-187500.02235174447,-187500.02235174447
$SILENCE,4134.044543986863,-6800.898230182914,7587.545524542991,10676.042518143955,-187500.02235174447,-187500.02235174447,-187500.02235174447,-187500.02235174447
$SILENCE,4066.4752204984693,-6781.429860762341,7556.87893115031,10706.396187114262,-187500.02235174447,-187500.02235174447,-187500.02235174447,-187500.02235174447
$SILENCE,3896.57961089368,-6824.8593002390035,6989.792822574714,10747.344582956384,-187500.02235174447,-187500.02235174447,-187500.02235174447,-187500.02235174447
$SILENCE,3939.8525881591545,-6858.543379133151,6909.125376835511,10727.138605968787,-187500.02235174447,-187500.02235174447,-187500.02235174447,-187500.02235174447
$SILENCE,4117.057218200829,-6811.582364032551,7514.634134129779,10673.047384386944,-187500.02235174447,-187500.02235174447,-187500.02235174447,-187500.02235174447
$SILENCE,4073.873647913176,-6782.547447985107,7609.226716664639,10686.324320593396,-187500.02235174447,-187500.02235174447,-187500.02235174447,-187500.02235174447
$SILENCE,3912.4046459680376,-6818.667867024883,7078.484544573373,10742.74012359859,-187500.02235174447,-187500.02235174447,-187500.02235174447,-187500.02235174447
$SILENCE,3904.715645875412,-6862.678451857383,6852.106076730022,10747.411638189751,-187500.02235174447,-187500.02235174447,-187500.02235174447,-187500.02235174447
$SILENCE,4087.8211364532876,-6825.35103861702,7424.668362697168,10693.387471841274,-187500.02235174447,-187500.02235174447,-187500.02235174447,-187500.02235174447
$SILENCE,4110.865784986709,-6785.67669220885,7650.577443906956,10691.398166584751,-187500.02235174447,-187500.02235174447,-187500.02235174447,-187500.02235174447
$SILENCE,3956.526989522814,-6813.415207077886,7176.318130054251,10723.942306511677,-187500.02235174447,-187500.02235174447,-187500.02235174447,-187500.02235174447
$SILENCE,3893.740939347856,-6862.209065223821,6812.230564621755,10728.010324002544,-187500.02235174447,-187500.02235174447,-187500.02235174447,-187500.02235174447
$SILENCE,4074.2312758244607,-6838.471512612286,7321.224489358007,10678.769430967503,-187500.02235174447,-187500.02235174447,-187500.02235174447,-187500.02235174447
$SILENCE,4134.737448064977,-6787.353073042998,7716.179813883283,10671.616872741804,-187500.02235174447,-187500.02235174447,-187500.02235174447,-187500.02235174447
$SILENCE,3964.9535971824644,-6803.692198239827,7291.7425384214575,10716.633286074792,-187500.02235174447,-187500.02235174447,-187500.02235174447,-187500.02235174447
$SILENCE,3878.9887880073534,-6856.241149454254,6847.099285972034,10739.186196230197,-187500.02235174447,-187500.02235174447,-187500.02235174447,-187500.02235174447
$SILENCE,4030.2877462253273,-6848.596852850539,7202.492022811416,10689.297102605951,-187500.02235174447,-187500.02235174447,-187500.02235174447,-187500.02235174447
$SILENCE,4139.431314400592,-6796.316122569576,7689.80475542602,10667.504151762027,-187500.02235174447,-187500.02235174447,-187500.02235174447,-187500.02235174447
$SILENCE,4019.067170508763,-6799.892401682425,7393.644141393202,10713.88402150679,-187500.02235174447,-187500.02235174447,-187500.02235174447,-187500.02235174447
$SILENCE,3893.651532370035,-6852.664870341405,6862.410230923919,10743.991821288088,-187500.02235174447,-187500.02235174447,-187500.02235174447,-187500.02235174447
$SILENCE,4004.6279435906345,-6857.157570976922,7087.089966188666,10697.857820732335,-187500.02235174447,-187500.02235174447,-187500.02235174447,-187500.02235174447
$SILENCE,4128.702477062044,-6805.34622732952,7617.094530712907,10661.469180759095,-187500.02235174447,-187500.02235174447,-187500.02235174447,-187500.02235174447
$SILENCE,4033.5511009158017,-6795.287942324632,7474.982139466065,10696.15908815373,-187500.02235174447,-187500.02235174447,-187500.02235174447,-187500.02235174447
$SILENCE,3871.545657103736,-6844.148855703933,6909.393597768974,10735.296992694974,-187500.02235174447,-187500.02235174447,-187500.02235174447,-187500.02235174447
$SILENCE,3957.711631978945,-6868.132277504477,6988.9211045409575,10701.992893456567,-187500.02235174447,-187500.02235174447,-187500.02235174447,-187500.02235174447
$SILENCE,4134.692744576067,-6814.868070467481,7597.31323686996,10662.832637170868,-187500.02235174447,-187500.02235174447,-187500.02235174447,-187500.02235174447
$SILENCE,4059.1438483171287,-6791.286980067132,7570.7370127126,10689.610027028326,-187500.02235174447,-187500.02235174447,-187500.02235174447,-187500.02235174447
$SILENCE,3884.979055521376,-6834.314088143598,6992.609142376083,10725.97631525711,-187500.02235174447,-187500.02235174447,-187500.02235174447,-187500.02235174447
$SILENCE,3942.4677422604254,-6869.562789149617,6894.306170261642,10703.512812079527,-187500.02235174447,-187500.02235174447,-187500.02235174447,-187500.02235174447
$SILENCE,4136.592642854767,-6825.440445594842,7507.794500326455,10658.58580572436,-187500.02235174447,-187500.02235174447,-187500.02235174447,-187500.02235174447
$SILENCE,4105.926049462086,-6791.86812542297,7627.555147117991,10672.488590775562,-187500.02235174447,-187500.02235174447,-187500.02235174447,-187500.02235174447
$SILENCE,3932.2082915554397,-6826.155701417411,7095.471870359406,10713.369931384317,-187500.02235174447,-187500.02235174447,-187500.02235174447,-187500.02235174447
$SILENCE,3915.7574076363335,-6869.853361827536,6843.679469070372,10714.040483717978,-187500.02235174447,-187500.02235174447,-187500.02235174447,-187500.02235174447
$SILENCE,4096.00187492393,-6834.761123032704,7419.683923683635,10662.027974370478,-187500.02235174447,-187500.02235174447,-187500.02235174447,-187500.02235174447
$SILENCE,4102.90856396062,-6794.550334757607,7673.644444184833,10664.374907538284,-187500.02235174447,-187500.02235174447,-187500.02235174447,-187500.02235174447
$SILENCE,3936.9021578910542,-6819.49488156973,7207.6329240361365,10713.191117428674,-187500.02235174447,-187500.02235174447,-187500.02235174447,-187500.02235174447
$SILENCE,3878.8323257961665,-6868.378146693486,6822.691181026838,10722.198870444165,-187500.02235174447,-187500.02235174447,-187500.02235174447,-187500.02235174447
$SILENCE,4055.902845371109,-6847.009878994212,7311.166204353119,10667.995890140044,-187500.02235174447,-187500.02235174447,-187500.02235174447,-187500.02235174447
$SILENCE,4117.951287979042,-6798.417186548375,7686.295531546537,10652.975517866078,-187500.02235174447,-187500.02235174447,-187500.02235174447,-187500.02235174447
$SILENCE,3983.639655547101,-6812.521137299674,7310.562707252826,10690.526448550994,-187500.02235174447,-187500.02235174447,-187500.02235174447,-187500.02235174447
$SILENCE,3890.6116951241133,-6864.980681536279,6825.418093850386,10714.867498262824,-187500.02235174447,-187500.02235174447,-187500.02235174447,-187500.02235174447
$SILENCE,4052.7959528918213,-6859.3703936779975,7188.90216218259,10668.845256429346,-187500.02235174447,-187500.02235174447,-187500.02235174447,-187500.02235174447
$SILENCE,4150.875407561709,-6807.87197445297,7673.443278484736,10643.051343327921,-187500.02235174447,-187500.02235174447,-187500.02235174447,-187500.02235174447
$SILENCE,4025.7503421008996,-6807.179070374856,7415.258278281484,10679.082355389877,-187500.02235174447,-187500.02235174447,-187500.02235174447,-187500.02235174447
$SILENCE,3892.2210207248954,-6855.302376187132,6897.256600529743,10711.380626127795,-187500.02235174447,-187500.02235174447,-187500.02235174447,-187500.02235174447
$SILENCE,3989.093481194196,-6862.007899523724,7091.2920941462635,10685.273788603996,-187500.02235174447,-187500.02235174447,-187500.02235174447,-187500.02235174447
$SILENCE,4119.270040901904,-6809.213079120288,7648.006993294596,10645.040648584443,-187500.02235174447,-187500.02235174447,-187500.02235174447,-187500.02235174447
$SILENCE,4040.4130864635813,-6795.019721391168,7508.9344392936755,10661.715049948103,-187500.02235174447,-187500.02235174447,-187500.02235174447,-187500.02235174447
$SILENCE,3903.1510237635407,-6845.2887946711535,6930.426589301418,10710.59831507186,-187500.02235174447,-187500.02235174447,-187500.02235174447,-187500.02235174447
$SILENCE,3981.3821293571154,-6867.2382077262655,6985.724805083848,10683.239779858564,-187500.02235174447,-187500.02235174447,-187500.02235174447,-187500.02235174447
$SILENCE,4146.047430759362,-6819.852509481015,7557.8847596507985,10635.876433357767,-187500.02235174447,-187500.02235174447,-187500.02235174447,-187500.02235174447
$SILENCE,4083.574305006779,-6797.612523747984,7575.408527303759,10662.407954026217,-187500.02235174447,-187500.02235174447,-187500.02235174447,-187500.02235174447
$SILENCE,3877.4465176399376,-6836.750428289227,7025.577965447661,10721.103634965853,-187500.02235174447,-187500.02235174447,-187500.02235174447,-187500.02235174447
$SILENCE,3890.5893433796577,-6870.389803694464,6896.094309818067,10700.472974833605,-187500.02235174447,-187500.02235174447,-187500.02235174447,-187500.02235174447
$SILENCE,4122.354581636737,-6828.480282840763,7498.205601955128,10635.697619402126,-187500.02235174447,-187500.02235174447,-187500.02235174447,-187500.02235174447
$SILENCE,4105.210793639516,-6792.96336090128,7644.050734526007,10655.367154522795,-187500.02235174447,-187500.02235174447,-187500.02235174447,-187500.02235174447
$SILENCE,3917.2102710259287,-6825.708666528305,7115.208460713442,10701.970541712111,-187500.02235174447,-187500.02235174447,-187500.02235174447,-187500.02235174447
$SILENCE,3916.226794269895,-6872.31205371762,6838.270346912187,10694.817983486413,-187500.02235174447,-187500.02235174447,-187500.02235174447,-187500.02235174447
$SILENCE,4099.935781948064,-6835.588137577551,7403.8588886092775,10645.554738706916,-187500.02235174447,-187500.02235174447,-187500.02235174447,-187500.02235174447
$SILENCE,4109.278811130383,-6791.1528696004,7673.823258140476,10645.599442195826,-187500.02235174447,-187500.02235174447,-187500.02235174447,-187500.02235174447
$SILENCE,3958.1139633791404,-6818.801977491615,7218.80879626379,10685.966692682112,-187500.02235174447,-187500.02235174447,-187500.02235174447,-187500.02235174447
$SILENCE,3887.5942096226468,-6866.388841436964,6818.734922258249,10700.852954489346,-187500.02235174447,-187500.02235174447,-187500.02235174447,-187500.02235174447
$SILENCE,4047.1409615446287,-6841.824274280581,7298.515116991415,10651.813227154402,-187500.02235174447,-187500.02235174447,-187500.02235174447,-187500.02235174447
$SILENCE,4099.7793197368765,-6791.175221344855,7695.549153751034,10644.906538117712,-187500.02235174447,-187500.02235174447,-187500.02235174447,-187500.02235174447
$SILENCE,3971.9273414525205,-6804.675674995861,7331.215719129529,10686.950169438145,-187500.02235174447,-187500.02235174447,-187500.02235174447,-187500.02235174447
$SILENCE,3866.8741425125772,-6858.49867564424,6833.330611387564,10709.9277627382,-187500.02235174447,-187500.02235174447,-187500.02235174447,-187500.02235174447
$SILENCE,4006.103158724685,-6850.78732380716,7175.602874231681,10665.693660461147,-187500.02235174447,-187500.02235174447,-187500.02235174447,-187500.02235174447
$SILENCE,4112.8103867543205,-6796.986674903235,7675.9913773526405,10637.753979892013,-187500.02235174447,-187500.02235174447,-187500.02235174447,-187500.02235174447
$SILENCE,3971.88263796361,-6797.321951070065,7441.923909416665,10691.68873926267,-187500.02235174447,-187500.02235174447,-187500.02235174447,-187500.02235174447
$SILENCE,3803.2610777927734,-6845.1099807155115,6879.352853221042,10734.782902572502,-187500.02235174447,-187500.02235174447,-187500.02235174447,-187500.02235174447
$SILENCE,3975.973007198931,-6857.604605866028,7045.403962779518,10663.279672059974,-187500.02235174447,-187500.02235174447,-187500.02235174447,-187500.02235174447
$SILENCE,4170.723756638022,-6805.480337796252,7621.8107487929765,10618.106796515798,-187500.02235174447,-187500.02235174447,-187500.02235174447,-187500.02235174447
$SILENCE,4047.1856650335394,-6790.594075989017,7507.6380381152685,10660.753924936525,-187500.02235174447,-187500.02235174447,-187500.02235174447,-187500.02235174447
talvez,3874.518439116292,-6838.113884701001,6936.819188215636,10710.911239494233,-187500.02235174447,-187500.02235174447,-187500.02235174447,-187500.02235174447
talvez,3934.130541578596,-6860.510332645218,6968.357499642075,10693.365120096818,-187500.02235174447,-187500.02235174447,-187500.02235174447,-187500.02235174447
talvez,4089.1845928650614,-6805.972076174268,7600.464832838158,10650.62858469827,-187500.02235174447,-187500.02235174447,-187500.02235174447,-187500.02235174447
talvez,4072.577246734768,-6781.407509017887,7619.17324294725,10654.607195211316,-187500.02235174447,-187500.02235174447,-187500.02235174447,-187500.02235174447
talvez,3909.007180810831,-6826.714495028794,7025.220337536376,10703.155184168243,-187500.02235174447,-187500.02235174447,-187500.02235174447,-187500.02235174447
talvez,3917.6573059150346,-6861.940844290358,6897.189545296377,10688.40303282774,-187500.02235174447,-187500.02235174447,-187500.02235174447,-187500.02235174447
talvez,4107.468319829502,-6825.7980735061265,7449.747019976023,10636.949317091623,-187500.02235174447,-187500.02235174447,-187500.02235174447,-187500.02235174447
talvez,4113.905622232631,-6787.286017809632,7634.595946621412,10661.715049948103,-187500.02235174447,-187500.02235174447,-187500.02235174447,-187500.02235174447
talvez,3925.7933408967665,-6817.796148991126,7130.899385321068,10709.748948782559,-187500.02235174447,-187500.02235174447,-187500.02235174447,-187500.02235174447
talvez,3910.5718029227023,-6862.410230923919,6833.1965009208325,10701.12117542281,-187500.02235174447,-187500.02235174447,-187500.02235174447,-187500.02235174447
talvez,4100.00283718143,-6831.028381708668,7387.765632601457,10645.82295964038,-187500.02235174447,-187500.02235174447,-187500.02235174447,-187500.02235174447
talvez,4126.869634016709,-6789.00710213269,7683.702729189722,10647.879320130269,-187500.02235174447,-187500.02235174447,-187500.02235174447,-187500.02235174447
talvez,3955.6552714890568,-6811.1576808879,7249.5424448898375,10705.368006869317,-187500.02235174447,-187500.02235174447,-187500.02235174447,-187500.02235174447
talvez,3884.844945054644,-6865.092440258556,6825.418093850386,10725.685742579191,-187500.02235174447,-187500.02235174447,-187500.02235174447,-187500.02235174447
talvez,4071.3255490452707,-6847.076934227578,7278.15267779263,10658.9657853801,-187500.02235174447,-187500.02235174447,-187500.02235174447,-187500.02235174447
talvez,4137.062029488329,-6793.566858001574,7689.536534492557,10634.378866479263,-187500.02235174447,-187500.02235174447,-187500.02235174447,-187500.02235174447
talvez,4002.258658678372,-6802.038169150134,7352.5616350843475,10679.752907723536,-187500.02235174447,-187500.02235174447,-187500.02235174447,-187500.02235174447
talvez,3875.5019158723258,-6850.563806362607,6845.311146415609,10714.59927732936,-187500.02235174447,-187500.02235174447,-187500.02235174447,-187500.02235174447
talvez,4041.933005086542,-6849.110942973011,7162.929435125522,10661.782105181468,-187500.02235174447,-187500.02235174447,-187500.02235174447,-187500.02235174447
talvez,4165.739317624488,-6797.657227236895,7668.257673771104,10628.098026287322,-187500.02235174447,-187500.02235174447,-187500.02235174447,-187500.02235174447
talvez,4040.1448655301174,-6796.4502330363075,7444.159083862196,10667.526503506482,-187500.02235174447,-187500.02235174447,-187500.02235174447,-187500.02235174447
talvez,3904.045093541753,-6847.1663412053995,6890.171097537411,10712.74408253957,-187500.02235174447,-187500.02235174447,-187500.02235174447,-187500.02235174447
talvez,4006.2149174469614,-6857.0234605101905,7059.0161751528,10675.774297210492,-187500.02235174447,-187500.02235174447,-187500.02235174447,-187500.02235174447
talvez,4151.210683728538,-6803.714549984283,7640.809731579988,10634.848253112825,-187500.02235174447,-187500.02235174447,-187500.02235174447,-187500.02235174447
talvez,4068.1068978437065,-6793.522154512662,7537.499968707558,10660.485704003062,-187500.02235174447,-187500.02235174447,-187500.02235174447,-187500.02235174447
talvez,3902.0334365407753,-6838.046829467635,6961.629624561027,10708.966637726622,-187500.02235174447,-187500.02235174447,-187500.02235174447,-187500.02235174447
talvez,3958.136315123596,-6858.699841344338,6960.2214646603425,10687.911294449723,-187500.02235174447,-187500.02235174447,-187500.02235174447,-187500.02235174447
talvez,4162.185390256094,-6808.497823297718,7592.351149600881,10634.490625201539,-187500.02235174447,-187500.02235174447,-187500.02235174447,-187500.02235174447
talvez,4119.225337412994,-6785.162602086378,7642.7543333476,10652.0143928545,-187500.02235174447,-187500.02235174447,-187500.02235174447,-187500.02235174447
talvez,3930.3083932767386,-6829.776684019171,7043.995802878833,10693.655692774737,-187500.02235174447,-187500.02235174447,-187500.02235174447,-187500.02235174447
talvez,3947.8992161630654,-6863.416059424408,6899.692940675372,10679.194114112153,-187500.02235174447,-187500.02235174447,-187500.02235174447,-187500.02235174447
talvez,4134.625689342701,-6827.139178173445,7475.071546443885,10635.831729868858,-187500.02235174447,-187500.02235174447,-187500.02235174447,-187500.02235174447
talvez,4147.947329038064,-6789.096509110512,7693.671607216788,10642.850177627824,-187500.02235174447,-187500.02235174447,-187500.02235174447,-187500.02235174447
talvez,3970.295664107283,-6821.283021126154,7152.759391398357,10695.242666631064,-187500.02235174447,-187500.02235174447,-187500.02235174447,-187500.02235174447
talvez,3939.964346881431,-6863.818390824604,6867.93111180438,10698.617780043814,-187500.02235174447,-187500.02235174447,-187500.02235174447,-187500.02235174447
talvez,4115.358485622226,-6831.229547408766,7371.761783571456,10643.453674728116,-187500.02235174447,-187500.02235174447,-187500.02235174447,-187500.02235174447
talvez,4155.256349474949,-6786.39194803142,7715.598668527445,10628.522709431973,-187500.02235174447,-187500.02235174447,-187500.02235174447,-187500.02235174447
talvez,3982.7679375133444,-6812.096454155023,7251.263529212896,10676.556608266426,-187500.02235174447,-187500.02235174447,-187500.02235174447,-187500.02235174447
talvez,3907.5319656767806,-6864.734812347271,6817.706742013305,10697.969579454611,-187500.02235174447,-187500.02235174447,-187500.02235174447,-187500.02235174447
talvez,4084.5577817628127,-6850.943786018346,7254.43747692555,10648.549872463927,-187500.02235174447,-187500.02235174447,-187500.02235174447,-187500.02235174447
talvez,4170.701404893566,-6799.668884237873,7688.687168203255,10638.9609740926,-187500.02235174447,-187500.02235174447,-187500.02235174447,-187500.02235174447
talvez,4032.835845093232,-6809.9506866873135,7364.542170112392,10672.53329426447,-187500.02235174447,-187500.02235174447,-187500.02235174447,-187500.02235174447
talvez,3915.556241936236,-6857.157570976922,6841.444294624841,10691.375814840296,-187500.02235174447,-187500.02235174447,-187500.02235174447,-187500.02235174447
talvez,4054.7852581483435,-6851.726097074283,7143.7069348939585,10649.220424797586,-187500.02235174447,-187500.02235174447,-187500.02235174447,-187500.02235174447
talvez,4176.915189852141,-6798.573648759562,7673.666795929289,10621.168985506176,-187500.02235174447,-187500.02235174447,-187500.02235174447,-187500.02235174447
talvez,4065.0447088533297,-6798.104262126,7465.884979472755,10655.993003367545,-187500.02235174447,-187500.02235174447,-187500.02235174447,-187500.02235174447
talvez,3910.951782578443,-6847.032230738668,6897.256600529743,10699.869477733313,-187500.02235174447,-187500.02235174447,-187500.02235174447,-187500.02235174447
talvez,4015.6250018626456,-6861.02442276769,7036.262099297297,10666.006584883522,-187500.02235174447,-187500.02235174447,-187500.02235174447,-187500.02235174447
talvez,4166.991015313985,-6807.804919219604,7624.202385449695,10620.0066947945,-187500.02235174447,-187500.02235174447,-187500.02235174447,-187500.02235174447
talvez,4090.391587065648,-6797.411358047886,7550.821608402921,10643.878357872767,-187500.02235174447,-187500.02235174447,-187500.02235174447,-187500.02235174447
talvez,3930.755428165845,-6842.986564992258,6968.871589764547,10683.64211125876,-187500.02235174447,-187500.02235174447,-187500.02235174447,-187500.02235174447
talvez,3989.6969782944893,-6866.321786203598,6938.227348116321,10662.854988915324,-187500.02235174447,-187500.02235174447,-187500.02235174447,-187500.02235174447
talvez,4174.59060842879,-6815.762140245693,7556.186027072195,10620.945468061624,-187500.02235174447,-187500.02235174447,-187500.02235174447,-187500.02235174447
talvez,4124.857977015731,-6791.48814576723,7611.841870765909,10634.647087412726,-187500.02235174447,-187500.02235174447,-187500.02235174447,-187500.02235174447
talvez,3951.520198764825,-6830.290774141643,7061.787791465258,10683.217428114109,-187500.02235174447,-187500.02235174447,-187500.02235174447,-187500.02235174447
talvez,3964.7300797379116,-6867.327614704087,6871.3509287060415,10682.92685543619,-187500.02235174447,-187500.02235174447,-187500.02235174447,-187500.02235174447
talvez,4152.149456995661,-6824.412265349897,7463.538046304947,10628.813282109892,-187500.02235174447,-187500.02235174447,-187500.02235174447,-187500.02235174447
talvez,4142.694669091066,-6785.073195108556,7665.553112692012,10618.822052338368,-187500.02235174447,-187500.02235174447,-187500.02235174447,-187500.02235174447
talvez,3982.902047980076,-6816.29858211262,7174.708804453469,10668.621738984793,-187500.02235174447,-187500.02235174447,-187500.02235174447,-187500.02235174447
talvez,3939.673774203512,-6869.048699027146,6829.687277041349,10674.634358243271,-187500.02235174447,-187500.02235174447,-187500.02235174447,-187500.02235174447
talvez,4134.849206787254,-6839.276175412676,7370.130106226219,10623.270049484974,-187500.02235174447,-187500.02235174447,-187500.02235174447,-187500.02235174447
talvez,4189.92390512513,-6786.727224198249,7733.502415836146,10618.687941871636,-187500.02235174447,-187500.02235174447,-187500.02235174447,-187500.02235174447
talvez,4018.0836937527292,-6808.654285508906,7263.601692152226,10666.20775058362,-187500.02235174447,-187500.02235174447,-187500.02235174447,-187500.02235174447
talvez,3929.3025647762497,-6860.666794856405,6836.102227700023,10686.257265360031,-187500.02235174447,-187500.02235174447,-187500.02235174447,-187500.02235174447
talvez,4086.5694387637905,-6844.685297570861,7239.819436051779,10634.267107756987,-187500.02235174447,-187500.02235174447,-187500.02235174447,-187500.02235174447
talvez,4178.390404986191,-6786.906038153892,7710.927153936286,10601.745319574515,-187500.02235174447,-187500.02235174447,-187500.02235174447,-187500.02235174447
talvez,4038.222615506961,-6797.076081881057,7381.998882531987,10647.700506174626,-187500.02235174447,-187500.02235174447,-187500.02235174447,-187500.02235174447
talvez,3940.679602704001,-6848.015707494701,6858.6104343665165,10691.509925307028,-187500.02235174447,-187500.02235174447,-187500.02235174447,-187500.02235174447
talvez,4071.861990912198,-6851.59198660755,7110.291076933275,10656.596500467838,-187500.02235174447,-187500.02235174447,-187500.02235174447,-187500.02235174447
talvez,4185.16298355615,-6797.724282470261,7629.008010507586,10611.133052245743,-187500.02235174447,-187500.02235174447,-187500.02235174447,-187500.02235174447
talvez,4074.745365946933,-6786.570761987062,7457.95011019112,10647.320526518884,-187500.02235174447,-187500.02235174447,-187500.02235174447,-187500.02235174447
talvez,3906.7720063653,-6845.780533049171,6886.5501149356505,10670.812209941412,-187500.02235174447,-187500.02235174447,-187500.02235174447,-187500.02235174447
talvez,4004.6279435906345,-6851.8602075410145,6990.843354564114,10645.130055562266,-187500.02235174447,-187500.02235174447,-187500.02235174447,-187500.02235174447
talvez,4191.980265615019,-6782.726261940749,7634.551243132501,10633.507148445506,-187500.02235174447,-187500.02235174447,-187500.02235174447,-187500.02235174447
talvez,4118.95711647953,-6774.523171725652,7545.546596711469,10651.545006220938,-187500.02235174447,-187500.02235174447,-187500.02235174447,-187500.02235174447
talvez,3905.67677088699,-6841.488998113751,6929.890147434491,10682.077489146888,-187500.02235174447,-187500.02235174447,-187500.02235174447,-187500.02235174447
talvez,4017.077865252241,-6816.767968746182,6973.319586911152,10732.100693237864,-187500.02235174447,-187500.02235174447,-187500.02235174447,-187500.02235174447
talvez,4136.950270766052,-6829.284945641154,7533.275489005505,10643.207805539108,-187500.02235174447,-187500.02235174447,-187500.02235174447,-187500.02235174447
talvez,4102.819156982799,-6782.234523562733,7675.499638974624,10694.080375919388,-187500.02235174447,-187500.02235174447,-187500.02235174447,-187500.02235174447
talvez,3950.0896871196855,-6821.35007635952,7138.02959180231,10743.902414310267,-187500.02235174447,-187500.02235174447,-187500.02235174447,-187500.02235174447
talvez,3923.915794362521,-6867.282911215176,6753.199607515288,10637.15048279172,-187500.02235174447,-187500.02235174447,-187500.02235174447,-187500.02235174447
talvez,4085.183630607561,-6872.200294995344,7298.537468735871,10574.409136105674,-187500.02235174447,-187500.02235174447,-187500.02235174447,-187500.02235174447
talvez,4114.084436188274,-6799.445366793319,7615.596963834401,10649.958032364611,-187500.02235174447,-187500.02235174447,-187500.02235174447,-187500.02235174447
talvez,3995.4413766195034,-6807.402587819409,7173.881789908623,10721.751835555058,-187500.02235174447,-187500.02235174447,-187500.02235174447,-187500.02235174447
talvez,3938.287966047283,-6866.411193181419,6833.330611387564,10702.149355667754,-187500.02235174447,-187500.02235174447,-187500.02235174447,-187500.02235174447
talvez,4060.3061390288044,-6840.840797524548,7296.190535568063,10595.866810782769,-187500.02235174447,-187500.02235174447,-187500.02235174447,-187500.02235174447
talvez,4099.466395314503,-6829.2625938966985,7574.648567992279,10602.304113185897,-187500.02235174447,-187500.02235174447,-187500.02235174447,-187500.02235174447
talvez,3980.4880595789027,-6833.35296313202,7193.640732007115,10698.64013178827,-187500.02235174447,-187500.02235174447,-187500.02235174447,-187500.02235174447
talvez,3915.9809250808867,-6873.362585707019,6793.052767879101,10742.181329987208,-187500.02235174447,-187500.02235174447,-187500.02235174447,-187500.02235174447
talvez,4081.830868939265,-6857.694012843849,7220.015790464377,10630.959049577601,-187500.02235174447,-187500.02235174447,-187500.02235174447,-187500.02235174447
talvez,4184.023044588929,-6816.142119901433,7714.972819682696,10635.29528800193,-187500.02235174447,-187500.02235174447,-187500.02235174447,-187500.02235174447
talvez,4054.4946854704244,-6805.480337796252,7361.301167166373,10654.607195211316,-187500.02235174447,-187500.02235174447,-187500.02235174447,-187500.02235174447
talvez,3920.3171635052163,-6870.121582761,6800.942933671825,10637.463407214094,-187500.02235174447,-187500.02235174447,-187500.02235174447,-187500.02235174447
talvez,4025.191548489517,-6885.946617835358,7048.309689558708,10643.29721251693,-187500.02235174447,-187500.02235174447,-187500.02235174447,-187500.02235174447
talvez,4161.447782689069,-6830.268422397187,7623.442426138214,10646.895843374234,-187500.02235174447,-187500.02235174447,-187500.02235174447,-187500.02235174447
talvez,4041.3742114751594,-6797.724282470261,7456.027860167964,10676.10957337732,-187500.02235174447,-187500.02235174447,-187500.02235174447,-187500.02235174447
talvez,3962.6066640146573,-6846.2275679382765,6900.117623820022,10735.788731072991,-187500.02235174447,-187500.02235174447,-187500.02235174447,-187500.02235174447
talvez,4032.5005689264026,-6881.722138133305,6986.3953574175075,10685.87728570429,-187500.02235174447,-187500.02235174447,-187500.02235174447,-187500.02235174447
talvez,4155.166942497128,-6830.0225532081795,7579.7224139836335,10646.225291040575,-187500.02235174447,-187500.02235174447,-187500.02235174447,-187500.02235174447
talvez,4119.270040901904,-6793.186878345833,7571.7428412130885,10691.867553218312,-187500.02235174447,-187500.02235174447,-187500.02235174447,-187500.02235174447
talvez,3918.2831547597834,-6841.421942880385,6950.789028500203,10738.090960751888,-187500.02235174447,-187500.02235174447,-187500.02235174447,-187500.02235174447
talvez,3986.187754415006,-6882.750318378248,6888.204144025343,10729.574946114415,-187500.02235174447,-187500.02235174447,-187500.02235174447,-187500.02235174447
talvez,4184.559486455856,-6847.993355750246,7504.039407257964,10662.564416237405,-187500.02235174447,-187500.02235174447,-187500.02235174447,-187500.02235174447
talvez,4144.885140047686,-6818.310239113598,7600.867164238354,10658.697564446637,-187500.02235174447,-187500.02235174447,-187500.02235174447,-187500.02235174447
talvez,4010.4170454045593,-6842.561881847606,7095.628332570593,10759.258062751063,-187500.02235174447,-187500.02235174447,-187500.02235174447,-187500.02235174447
talvez,4011.3781704161374,-6881.789193366671,6868.869885071503,10731.497196137572,-187500.02235174447,-187500.02235174447,-187500.02235174447,-187500.02235174447
talvez,4191.130899325717,-6847.434562138863,7441.923909416665,10666.073640116887,-187500.02235174447,-187500.02235174447,-187500.02235174447,-187500.02235174447
talvez,4198.015236617951,-6811.492957054729,7672.124525561872,10680.311701334918,-187500.02235174447,-187500.02235174447,-187500.02235174447,-187500.02235174447
talvez,4020.363571687171,-6826.133349672956,7202.000284433399,10754.005402804065,-187500.02235174447,-187500.02235174447,-187500.02235174447,-187500.02235174447
talvez,3963.5007337928696,-6881.900952088947,6832.436541609352,10722.891774522279,-187500.02235174447,-187500.02235174447,-187500.02235174447,-187500.02235174447
talvez,4162.073631533817,-6876.871809586502,7326.454797560549,10632.635430411749,-187500.02235174447,-187500.02235174447,-187500.02235174447,-187500.02235174447
talvez,4238.181321404138,-6821.059503681601,7715.978648183185,10665.984233139066,-187500.02235174447,-187500.02235174447,-187500.02235174447,-187500.02235174447
talvez,4073.761889190899,-6841.399591135931,7320.643344002169,10698.55072481045,-187500.02235174447,-187500.02235174447,-187500.02235174447,-187500.02235174447
talvez,3966.384108827604,-6890.148745792955,6838.471512612286,10702.596390556859,-187500.02235174447,-187500.02235174447,-187500.02235174447,-187500.02235174447
talvez,4134.24570968696,-6879.017577054212,7227.95065974601,10663.324375548886,-187500.02235174447,-187500.02235174447,-187500.02235174447,-187500.02235174447
talvez,4217.684771738622,-6834.358791632509,7688.106022847417,10620.498433172517,-187500.02235174447,-187500.02235174447,-187500.02235174447,-187500.02235174447
talvez,4080.4897642719466,-6839.1197132014895,7397.354530972783,10658.652860957725,-187500.02235174447,-187500.02235174447,-187500.02235174447,-187500.02235174447
talvez,3944.904082406054,-6877.430603197886,6872.133239761978,10699.06481493292,-187500.02235174447,-187500.02235174447,-187500.02235174447,-187500.02235174447
talvez,4089.8774969431756,-6872.826143840092,7129.535928909294,10671.30394831943,-187500.02235174447,-187500.02235174447,-187500.02235174447,-187500.02235174447
talvez,4229.531196299934,-6821.551242059618,7678.494772731635,10647.432285241162,-187500.02235174447,-187500.02235174447,-187500.02235174447,-187500.02235174447
talvez,4109.614087297212,-6816.075064668067,7514.611782385324,10667.839427928857,-187500.02235174447,-187500.02235174447,-187500.02235174447,-187500.02235174447
talvez,3941.1489893375624,-6859.191579722355,6937.2662231047425,10697.902524221245,-187500.02235174447,-187500.02235174447,-187500.02235174447,-187500.02235174447
talvez,4006.393731402604,-6878.503486931741,6976.0464997347,10628.43330245415,-187500.02235174447,-187500.02235174447,-187500.02235174447,-187500.02235174447
talvez,4214.734341470521,-6817.706742013305,7599.771928760044,10617.391540693228,-187500.02235174447,-187500.02235174447,-187500.02235174447,-187500.02235174447
talvez,4154.6305006302,-6791.286980067132,7609.293771898005,10662.9667476376,-187500.02235174447,-187500.02235174447,-187500.02235174447,-187500.02235174447
talvez,3954.5376842662913,-6848.172169705888,7014.670314153471,10734.894661294778,-187500.02235174447,-187500.02235174447,-187500.02235174447,-187500.02235174447
talvez,3991.261600406361,-6879.308149732131,6941.557758040161,10698.26015213253,-187500.02235174447,-187500.02235174447,-187500.02235174447,-187500.02235174447
talvez,4178.7256811530215,-6833.755294532215,7514.120044007307,10600.940656774123,-187500.02235174447,-187500.02235174447,-187500.02235174447,-187500.02235174447
talvez,4155.1892942415825,-6798.104262126,7638.663964112278,10616.698636615114,-187500.02235174447,-187500.02235174447,-187500.02235174447,-187500.02235174447
talvez,3979.973969456431,-6828.25676539621,7084.944198720957,10739.208547974653,-187500.02235174447,-187500.02235174447,-187500.02235174447,-187500.02235174447
talvez,3961.2208558584284,-6882.303283489142,6839.656155068416,10729.351428669863,-187500.02235174447,-187500.02235174447,-187500.02235174447,-187500.02235174447
talvez,4174.612960173245,-6833.4870735987515,7446.7742379634665,10648.68398293066,-187500.02235174447,-187500.02235174447,-187500.02235174447,-187500.02235174447
talvez,4200.630390719222,-6794.527983013151,7704.735720722166,10634.937660090645,-187500.02235174447,-187500.02235174447,-187500.02235174447,-187500.02235174447
talvez,4022.1070077546847,-6821.148910659423,7222.586241076737,10666.900654661735,-187500.02235174447,-187500.02235174447,-187500.02235174447,-187500.02235174447
talvez,3964.5065622933585,-6874.144896762955,6861.158533234422,10696.06968117591,-187500.02235174447,-187500.02235174447,-187500.02235174447,-187500.02235174447
talvez,4148.617881371722,-6853.871864541992,7340.178768656107,10669.627567485282,-187500.02235174447,-187500.02235174447,-187500.02235174447,-187500.02235174447
talvez,4188.895724880186,-6818.600811791517,7672.459801728703,10658.228177813075,-187500.02235174447,-187500.02235174447,-187500.02235174447,-187500.02235174447
talvez,4057.847447138721,-6820.657172281405,7298.5598204803255,10649.175721308675,-187500.02235174447,-187500.02235174447,-187500.02235174447,-187500.02235174447
