WORD,Channel_1,Channel_2,Channel_3,Channel_4,Channel_5,Channel_6,Channel_7,Channel_8
$SILENCE,5840.354363960549,-6338.261823446968,8422.204365993068,10699.198925399653,-187500.02235174447,-187500.02235174447,-187500.02235174447,-187500.02235174447
$SILENCE,5947.553330368201,-6339.535872880921,8657.255310685076,10657.11059059031,-187500.02235174447,-187500.02235174447,-187500.02235174447,-187500.02235174447
$SILENCE,6058.328575888703,-6278.560314006843,9149.485427079848,10625.259354741496,-187500.02235174447,-187500.02235174447,-187500.02235174447,-187500.02235174447
$SILENCE,5980.119822039584,-6273.464116271033,8996.264218838718,10660.508055747516,-187500.02235174447,-187500.02235174447,-187500.02235174447,-187500.02235174447
$SILENCE,5850.814980365632,-6327.018895985949,8476.697918975105,10701.635265545281,-187500.02235174447,-187500.02235174447,-187500.02235174447,-187500.02235174447
$SILENCE,5909.60006828309,-6342.754524082485,8559.444076948652,10667.437096528662,-187500.02235174447,-187500.02235174447,-187500.02235174447,-187500.02235174447
$SILENCE,6047.599738550155,-6285.95874142155,9101.98797011232,10626.801625108914,-187500.02235174447,-187500.02235174447,-187500.02235174447,-187500.02235174447
$SILENCE,6004.259706051315,-6271.05012786986,9067.789801095701,10652.640241699248,-187500.02235174447,-187500.02235174447,-187500.02235174447,-187500.02235174447
$SILENCE,5869.6575009414555,-6320.268669160446,8550.481027422074,10695.041500930965,-187500.02235174447,-187500.02235174447,-187500.02235174447,-187500.02235174447
$SILENCE,5896.144318120995,-6351.024669530949,8487.091480146824,10676.489553033061,-187500.02235174447,-187500.02235174447,-187500.02235174447,-187500.02235174447
$SILENCE,6046.10217167165,-6300.666189273142,9035.64799256897,10626.801625108914,-187500.02235174447,-187500.02235174447,-187500.02235174447,-187500.02235174447
$SILENCE,6021.068217881706,-6269.91018890264,9118.863537176077,10640.078561315366,-187500.02235174447,-187500.02235174447,-187500.02235174447,-187500.02235174447
$SILENCE,5882.442698769892,-6310.053921944371,8643.352525633874,10686.54783803795,-187500.02235174447,-187500.02235174447,-187500.02235174447,-187500.02235174447
$SILENCE,5874.954864377363,-6351.002317786493,8455.329651275832,10679.887018190268,-187500.02235174447,-187500.02235174447,-187500.02235174447,-187500.02235174447
$SILENCE,6020.263555081315,-6312.736131279008,8940.29545072263,10630.422607710672,-187500.02235174447,-187500.02235174447,-187500.02235174447,-187500.02235174447
$SILENCE,6039.977793690896,-6269.530209246899,9171.390136646049,10632.791892622936,-187500.02235174447,-187500.02235174447,-187500.02235174447,-187500.02235174447
$SILENCE,5894.4232337979365,-6302.230811385013,8705.602133941906,10685.989044426566,-187500.02235174447,-187500.02235174447,-187500.02235174447,-187500.02235174447
$SILENCE,5847.126942530506,-6353.729230610041,8380.048975950358,10692.426346829694,-187500.02235174447,-187500.02235174447,-187500.02235174447,-187500.02235174447
$SILENCE,5997.174203058983,-6325.051942473882,8843.020658853133,10637.530462447461,-187500.02235174447,-187500.02235174447,-187500.02235174447,-187500.02235174447
$SILENCE,6048.739677517376,-6274.984034893994,9172.127744213074,10628.992096065533,-187500.02235174447,-187500.02235174447,-187500.02235174447,-187500.02235174447
$SILENCE,5927.928498736442,-6291.479622302011,8825.496891200173,10675.617834999304,-187500.02235174447,-187500.02235174447,-187500.02235174447,-187500.02235174447
$SILENCE,5844.48943668478,-6347.381335184734,8396.812784291838,10695.130907908788,-187500.02235174447,-187500.02235174447,-187500.02235174447,-187500.02235174447
$SILENCE,5973.481353936357,-6335.557262367876,8747.466951306695,10644.593613695337,-187500.02235174447,-187500.02235174447,-187500.02235174447,-187500.02235174447
$SILENCE,6054.014689208829,-6277.95681690655,9170.652529079023,10622.823014595868,-187500.02235174447,-187500.02235174447,-187500.02235174447,-187500.02235174447
$SILENCE,5952.895397293019,-6285.265837343435,8914.970924254767,10663.659651715714,-187500.02235174447,-187500.02235174447,-187500.02235174447,-187500.02235174447
$SILENCE,5842.6565936394445,-6340.564053125865,8422.494938670987,10695.913218964723,-187500.02235174447,-187500.02235174447,-187500.02235174447,-187500.02235174447
$SILENCE,5942.725353565855,-6342.910986293672,8641.407923866263,10654.428381255673,-187500.02235174447,-187500.02235174447,-187500.02235174447,-187500.02235174447
$SILENCE,6053.880578742097,-6285.24348559898,9141.550557798215,10620.0066947945,-187500.02235174447,-187500.02235174447,-187500.02235174447,-187500.02235174447
$SILENCE,5976.2529702488155,-6278.627369240209,8998.700558984347,10655.009526611511,-187500.02235174447,-187500.02235174447,-187500.02235174447,-187500.02235174447
$SILENCE,5845.942300074375,-6329.611698342765,8473.412212540175,10697.679006776692,-187500.02235174447,-187500.02235174447,-187500.02235174447,-187500.02235174447
$SILENCE,5908.303667104682,-6349.325936952346,8540.22157671709,10664.933701149666,-187500.02235174447,-187500.02235174447,-187500.02235174447,-187500.02235174447
$SILENCE,6051.645404296566,-6294.295942103379,9091.817926385156,10625.237002997043,-187500.02235174447,-187500.02235174447,-187500.02235174447,-187500.02235174447
$SILENCE,6001.756310672321,-6273.464116271033,9069.935568563411,10652.573186465883,-187500.02235174447,-187500.02235174447,-187500.02235174447,-187500.02235174447
$SILENCE,5860.739154903788,-6320.8721662607395,8550.88335882227,10697.187268398675,-187500.02235174447,-187500.02235174447,-187500.02235174447,-187500.02235174447
$SILENCE,5878.7546609347655,-6354.288024221423,8470.01474738297,10675.126096621287,-187500.02235174447,-187500.02235174447,-187500.02235174447,-187500.02235174447
$SILENCE,6032.3111453427255,-6304.980075953016,9021.722855773312,10624.544098918926,-187500.02235174447,-187500.02235174447,-187500.02235174447,-187500.02235174447
$SILENCE,6024.420979550002,-6275.878104672206,9125.122025623563,10639.96680259309,-187500.02235174447,-187500.02235174447,-187500.02235174447,-187500.02235174447
$SILENCE,5881.526277247224,-6312.400855112178,8638.010458709057,10686.950169438145,-187500.02235174447,-187500.02235174447,-187500.02235174447,-187500.02235174447
$SILENCE,5856.782896135199,-6354.779762599441,8417.734017102006,10682.815096713914,-187500.02235174447,-187500.02235174447,-187500.02235174447,-187500.02235174447
$SILENCE,6013.088645111161,-6316.133596436214,8943.111770523998,10629.439130954639,-187500.02235174447,-187500.02235174447,-187500.02235174447,-187500.02235174447
$SILENCE,6031.707648242432,-6274.179372093603,9163.388212131049,10633.708314145602,-187500.02235174447,-187500.02235174447,-187500.02235174447,-187500.02235174447
$SILENCE,5900.16763212295,-6304.398930597178,8735.68758197875,10682.792744969458,-187500.02235174447,-187500.02235174447,-187500.02235174447,-187500.02235174447
$SILENCE,5847.864550097532,-6354.891521321717,8394.197630190567,10695.063852675421,-187500.02235174447,-187500.02235174447,-187500.02235174447,-187500.02235174447
$SILENCE,5992.010950089807,-6325.789550040907,8852.117818846444,10640.167968293186,-187500.02235174447,-187500.02235174447,-187500.02235174447,-187500.02235174447
$SILENCE,6053.05356419725,-6271.832438925796,9218.507613957836,10628.142729776231,-187500.02235174447,-187500.02235174447,-187500.02235174447,-187500.02235174447
$SILENCE,5925.022771957251,-6293.848907214273,8834.929327360313,10676.489553033061,-187500.02235174447,-187500.02235174447,-187500.02235174447,-187500.02235174447
$SILENCE,5845.070582040618,-6348.253053218491,8416.303505456866,10693.320416607907,-187500.02235174447,-187500.02235174447,-187500.02235174447,-187500.02235174447
$SILENCE,5961.880798564052,-6335.199634456591,8733.675924977772,10647.946375363634,-187500.02235174447,-187500.02235174447,-187500.02235174447,-187500.02235174447
$SILENCE,6054.886407242586,-6278.6720727291195,9186.477564153382,10621.77248260647,-187500.02235174447,-187500.02235174447,-187500.02235174447,-187500.02235174447
$SILENCE,5944.26762393327,-6283.0083111534495,8922.391703413929,10663.749058693536,-187500.02235174447,-187500.02235174447,-187500.02235174447,-187500.02235174447
$SILENCE,5838.476817426303,-6341.905157793183,8430.04982829688,10693.9239137082,-187500.02235174447,-187500.02235174447,-187500.02235174447,-187500.02235174447
$SILENCE,5934.790484284221,-6346.867245062262,8629.762665005048,10657.736439435059,-187500.02235174447,-187500.02235174447,-187500.02235174447,-187500.02235174447
$SILENCE,6050.751334518353,-6291.949008935572,9118.818833687166,10624.924078574668,-187500.02235174447,-187500.02235174447,-187500.02235174447,-187500.02235174447
$SILENCE,5979.605731917111,-6283.276532086913,8997.739433972769,10655.836541156357,-187500.02235174447,-187500.02235174447,-187500.02235174447,-187500.02235174447
$SILENCE,5845.741134374277,-6334.216157700558,8479.111907376278,10697.477841076594,-187500.02235174447,-187500.02235174447,-187500.02235174447,-187500.02235174447
$SILENCE,5904.190946124905,-6352.611643387276,8537.181739471167,10666.319509305897,-187500.02235174447,-187500.02235174447,-187500.02235174447,-187500.02235174447
$SILENCE,6042.257671625337,-6296.709930504552,9089.470993217348,10618.822052338368,-187500.02235174447,-187500.02235174447,-187500.02235174447,-187500.02235174447
$SILENCE,6002.069235094695,-6278.225037840014,9078.898618089988,10640.100913059821,-187500.02235174447,-187500.02235174447,-187500.02235174447,-187500.02235174447
$SILENCE,5864.49424797228,-6327.085951219315,8561.142809527255,10689.051233416943,-187500.02235174447,-187500.02235174447,-187500.02235174447,-187500.02235174447
$SILENCE,5879.760489435254,-6359.607739401787,8464.29270080241,10671.706279719625,-187500.02235174447,-187500.02235174447,-187500.02235174447,-187500.02235174447
$SILENCE,6029.405418563535,-6307.729340521019,9024.829748252601,10620.0066947945,-187500.02235174447,-187500.02235174447,-187500.02235174447,-187500.02235174447
$SILENCE,6016.866089924109,-6275.00638663845,9139.583604286147,10634.334162990352,-187500.02235174447,-187500.02235174447,-187500.02235174447,-187500.02235174447
$SILENCE,5876.608893467056,-6313.63020105722,8650.326269903931,10679.909369934723,-187500.02235174447,-187500.02235174447,-187500.02235174447,-187500.02235174447
$SILENCE,5857.073468813118,-6360.859437091284,8416.303505456866,10681.049308901944,-187500.02235174447,-187500.02235174447,-187500.02235174447,-187500.02235174447
$SILENCE,6008.350075286637,-6323.084988961815,8933.522872152671,10623.694732629625,-187500.02235174447,-187500.02235174447,-187500.02235174447,-187500.02235174447
$SILENCE,6031.931165686985,-6278.314444817835,9170.563122101203,10625.10289253031,-187500.02235174447,-187500.02235174447,-187500.02235174447,-187500.02235174447
$SILENCE,5909.98004793883,-6307.796395754385,8751.132637397366,10672.510942520017,-187500.02235174447,-187500.02235174447,-187500.02235174447,-187500.02235174447
$SILENCE,5850.3455937320705,-6360.725326624552,8387.223885920512,10682.613931013815,-187500.02235174447,-187500.02235174447,-187500.02235174447,-187500.02235174447
$SILENCE,5986.221848275883,-6334.819654800851,8828.536728446094,10629.685000143649,-187500.02235174447,-187500.02235174447,-187500.02235174447,-187500.02235174447
$SILENCE,6041.028325680295,-6282.471869286522,9181.828401306677,10618.665590127182,-187500.02235174447,-187500.02235174447,-187500.02235174447,-187500.02235174447
$SILENCE,5927.637926058523,-6300.1520991506695,8849.36855427844,10664.553721493927,-187500.02235174447,-187500.02235174447,-187500.02235174447,-187500.02235174447
$SILENCE,5836.554567403146,-6355.986756800027,8397.99742674797,10688.40303282774,-187500.02235174447,-187500.02235174447,-187500.02235174447,-187500.02235174447
$SILENCE,5958.148057240017,-6347.090762506815,8727.708009208203,10637.48575895855,-187500.02235174447,-187500.02235174447,-187500.02235174447,-187500.02235174447
$SILENCE,6047.890311228074,-6290.429090312611,9181.9178082845,10617.503299415506,-187500.02235174447,-187500.02235174447,-187500.02235174447,-187500.02235174447
$SILENCE,5952.582472870645,-6290.943180435083,8946.57629091457,10652.148503321232,-187500.02235174447,-187500.02235174447,-187500.02235174447,-187500.02235174447
$SILENCE,5842.813055850632,-6344.296794449901,8463.890369402216,10684.089146147866,-187500.02235174447,-187500.02235174447,-187500.02235174447,-187500.02235174447
$SILENCE,5928.308478392181,-6351.82933233134,8631.103769672367,10644.615965439792,-187500.02235174447,-187500.02235174447,-187500.02235174447,-187500.02235174447
$SILENCE,6053.76882001982,-6297.760462493952,9149.910110224499,10609.680188856148,-187500.02235174447,-187500.02235174447,-187500.02235174447,-187500.02235174447
$SILENCE,5979.561028428201,-6284.483526287499,9028.495434343271,10644.615965439792,-187500.02235174447,-187500.02235174447,-187500.02235174447,-187500.02235174447
$SILENCE,5851.7537536327545,-6340.027611258938,8490.377186581754,10684.804401970436,-187500.02235174447,-187500.02235174447,-187500.02235174447,-187500.02235174447
$SILENCE,5901.173460623439,-6359.630091146242,8538.45578890512,10655.814189411902,-187500.02235174447,-187500.02235174447,-187500.02235174447,-187500.02235174447
$SILENCE,6033.764008732321,-6306.477642831522,9064.191170238397,10611.311866201386,-187500.02235174447,-187500.02235174447,-187500.02235174447,-187500.02235174447
$SILENCE,6000.661075194011,-6285.042319898882,9077.468106444849,10631.696657144626,-187500.02235174447,-187500.02235174447,-187500.02235174447,-187500.02235174447
$SILENCE,5863.041384582685,-6330.125788465237,8564.853199106838,10680.937550179668,-187500.02235174447,-187500.02235174447,-187500.02235174447,-187500.02235174447
$SILENCE,5872.272655042727,-6364.525123181954,8455.374354764743,10669.24758782954,-187500.02235174447,-187500.02235174447,-187500.02235174447,-187500.02235174447
$SILENCE,6030.2547848528375,-6316.357113880767,9012.759806246735,10613.43528192464,-187500.02235174447,-187500.02235174447,-187500.02235174447,-187500.02235174447
$SILENCE,6027.304354584737,-6284.438822798589,9142.846958976623,10620.565488405882,-187500.02235174447,-187500.02235174447,-187500.02235174447,-187500.02235174447
$SILENCE,5885.2143150823495,-6321.386256383212,8663.044412499,10669.15818085172,-187500.02235174447,-187500.02235174447,-187500.02235174447,-187500.02235174447
$SILENCE,5856.11234380154,-6367.587312172332,8409.195650720078,10668.554683751427,-187500.02235174447,-187500.02235174447,-187500.02235174447,-187500.02235174447
$SILENCE,6010.697008454444,-6331.243375688002,8925.453892404306,10614.19524123612,-187500.02235174447,-187500.02235174447,-187500.02235174447,-187500.02235174447
$SILENCE,6036.8261977226975,-6287.277494344413,9180.062613494709,10615.513994158984,-187500.02235174447,-187500.02235174447,-187500.02235174447,-187500.02235174447
$SILENCE,5905.442643814403,-6313.138462679203,8765.773030015593,10662.698526704136,-187500.02235174447,-187500.02235174447,-187500.02235174447,-187500.02235174447
$SILENCE,5844.847064596065,-6365.843876104817,8386.709795798039,10674.835523943368,-187500.02235174447,-187500.02235174447,-187500.02235174447,-187500.02235174447
$SILENCE,5989.351092499625,-6341.212253715069,8817.427911451807,10623.582973907349,-187500.02235174447,-187500.02235174447,-187500.02235174447,-187500.02235174447
$SILENCE,6051.868921741119,-6287.8809914447065,9185.427032163981,10613.502337158006,-187500.02235174447,-187500.02235174447,-187500.02235174447,-187500.02235174447
$SILENCE,5937.875025019053,-6302.610791040754,8856.94579564879,10653.467256244096,-187500.02235174447,-187500.02235174447,-187500.02235174447,-187500.02235174447
$SILENCE,5839.974384304808,-6358.512503923476,8395.762252302438,10678.322396078396,-187500.02235174447,-187500.02235174447,-187500.02235174447,-187500.02235174447
$SILENCE,5960.003252029807,-6350.309413708379,8713.045264845523,10626.891032086734,-187500.02235174447,-187500.02235174447,-187500.02235174447,-187500.02235174447
$SILENCE,6055.333442131691,-6291.680788002109,9176.24046519285,10606.215668465575,-187500.02235174447,-187500.02235174447,-187500.02235174447,-187500.02235174447
$SILENCE,5960.94202529693,-6293.96066593655,8954.846436363034,10649.01925909749,-187500.02235174447,-187500.02235174447,-187500.02235174447,-187500.02235174447
$SILENCE,5838.7226866153105,-6348.5212741519545,8434.900156843682,10681.742212980058,-187500.02235174447,-187500.02235174447,-187500.02235174447,-187500.02235174447
$SILENCE,5927.995553969808,-6356.299681222401,8608.640266494784,10642.24668052753,-187500.02235174447,-187500.02235174447,-187500.02235174447,-187500.02235174447
$SILENCE,6052.874750241608,-6297.559296793855,9137.817816474178,10606.729758588048,-187500.02235174447,-187500.02235174447,-187500.02235174447,-187500.02235174447
$SILENCE,5986.42301397598,-6289.356206578756,9027.824882009612,10635.541157190939,-187500.02235174447,-187500.02235174447,-187500.02235174447,-187500.02235174447
$SILENCE,5848.691564642378,-6339.379410669734,8492.612361027284,10678.814134456414,-187500.02235174447,-187500.02235174447,-187500.02235174447,-187500.02235174447
$SILENCE,5893.909143675464,-6361.395878958211,8518.339218895342,10652.416724254696,-187500.02235174447,-187500.02235174447,-187500.02235174447,-187500.02235174447
$SILENCE,6043.15174140355,-6305.717683520042,9102.99379861281,10607.109738243787,-187500.02235174447,-187500.02235174447,-187500.02235174447,-187500.02235174447
$SILENCE,6008.707703197922,-6283.209476853547,9126.9548686689,10631.96487807809,-187500.02235174447,-187500.02235174447,-187500.02235174447,-187500.02235174447
$SILENCE,5862.370832249026,-6331.444541388099,8574.240931778066,10679.507038534528,-187500.02235174447,-187500.02235174447,-187500.02235174447,-187500.02235174447
$SILENCE,5870.529218975213,-6364.6592336486865,8455.083782086824,10663.883169160268,-187500.02235174447,-187500.02235174447,-187500.02235174447,-187500.02235174447
$SILENCE,6014.921488156497,-6321.363904638756,8978.271064552197,10615.29047671443,-187500.02235174447,-187500.02235174447,-187500.02235174447,-187500.02235174447
$SILENCE,6019.011857391818,-6286.495183288477,9132.051066404709,10623.024180295966,-187500.02235174447,-187500.02235174447,-187500.02235174447,-187500.02235174447
$SILENCE,5883.292065059193,-6318.413474370655,8659.490485130607,10669.001718640533,-187500.02235174447,-187500.02235174447,-187500.02235174447,-187500.02235174447
$SILENCE,5845.1823407628945,-6364.569826670865,8394.197630190567,10671.68392797517,-187500.02235174447,-187500.02235174447,-187500.02235174447,-187500.02235174447
$SILENCE,5998.291790281748,-6330.684582076619,8909.71826430777,10618.598534893816,-187500.02235174447,-187500.02235174447,-187500.02235174447,-187500.02235174447
$SILENCE,6031.953517431441,-6286.025796654916,9175.636968092558,10618.799700593914,-187500.02235174447,-187500.02235174447,-187500.02235174447,-187500.02235174447
$SILENCE,5905.241478114304,-6309.651590544176,8766.912968982813,10664.643128471747,-187500.02235174447,-187500.02235174447,-187500.02235174447,-187500.02235174447
$SILENCE,5839.01325929323,-6361.7311551250405,8379.84781025026,10676.668366988704,-187500.02235174447,-187500.02235174447,-187500.02235174447,-187500.02235174447
$SILENCE,5977.035281304751,-6340.541701381409,8804.106271756444,10626.667514642182,-187500.02235174447,-187500.02235174447,-187500.02235174447,-187500.02235174447
$SILENCE,6042.10120941415,-6288.439785056089,9183.080098996175,10613.725854602559,-187500.02235174447,-187500.02235174447,-187500.02235174447,-187500.02235174447
$SILENCE,5932.957641238885,-6302.119052662737,8866.534694020116,10660.530407491971,-187500.02235174447,-187500.02235174447,-187500.02235174447,-187500.02235174447
$SILENCE,5830.988983033774,-6356.254977733491,8392.454194123053,10683.195076369653,-187500.02235174447,-187500.02235174447,-187500.02235174447,-187500.02235174447
$SILENCE,5947.352164668103,-6352.343422453812,8694.269799503065,10631.584898422348,-187500.02235174447,-187500.02235174447,-187500.02235174447,-187500.02235174447
$SILENCE,6047.331517616692,-6293.6924450030865,9166.830380777166,10609.724892345059,-187500.02235174447,-187500.02235174447,-187500.02235174447,-187500.02235174447
$SILENCE,5959.399754929514,-6294.899439203673,8955.53934044115,10645.711200918104,-187500.02235174447,-187500.02235174447,-187500.02235174447,-187500.02235174447
$SILENCE,5835.235814480283,-6350.197654986103,8432.732037631517,10679.954073423634,-187500.02235174447,-187500.02235174447,-187500.02235174447,-187500.02235174447
$SILENCE,5915.6126875415675,-6358.713669623575,8590.021263363513,10639.67622991517,-187500.02235174447,-187500.02235174447,-187500.02235174447,-187500.02235174447
$SILENCE,6039.128427401594,-6299.995636939483,9126.753702968801,10604.114604486776,-187500.02235174447,-187500.02235174447,-187500.02235174447,-187500.02235174447
$SILENCE,5975.090679537139,-6288.082157144804,9029.16598667693,10635.25058451302,-187500.02235174447,-187500.02235174447,-187500.02235174447,-187500.02235174447
$SILENCE,5840.6002331495565,-6338.7759135694405,8491.986512182535,10677.830657700379,-187500.02235174447,-187500.02235174447,-187500.02235174447,-187500.02235174447
$SILENCE,5886.488364516302,-6366.045041804915,8502.06714893188,10652.372020765784,-187500.02235174447,-187500.02235174447,-187500.02235174447,-187500.02235174447
$SILENCE,6030.567709275211,-6311.752654522974,9070.740231363801,10609.188450478132,-187500.02235174447,-187500.02235174447,-187500.02235174447,-187500.02235174447
$SILENCE,5996.257781536315,-6288.19391586708,9099.551629966692,10631.00375306651,-187500.02235174447,-187500.02235174447,-187500.02235174447,-187500.02235174447
$SILENCE,5854.905349600953,-6329.410532642667,8577.169010301712,10676.757773966525,-187500.02235174447,-187500.02235174447,-187500.02235174447,-187500.02235174447
$SILENCE,5859.353346747559,-6366.2462075050125,8429.71455213005,10664.598424982838,-187500.02235174447,-187500.02235174447,-187500.02235174447,-187500.02235174447
$SILENCE,6013.781549189276,-6322.839119772807,8987.904666412434,10610.395444678717,-187500.02235174447,-187500.02235174447,-187500.02235174447,-187500.02235174447
$SILENCE,6012.8204241776975,-6285.399947810167,9147.406714845505,10622.264220984485,-187500.02235174447,-187500.02235174447,-187500.02235174447,-187500.02235174447
$SILENCE,5873.993739365786,-6318.435826115111,8676.678976616739,10672.39918379774,-187500.02235174447,-187500.02235174447,-187500.02235174447,-187500.02235174447
$SILENCE,5836.509863914235,-6363.653405148198,8390.844868522272,10668.375869795784,-187500.02235174447,-187500.02235174447,-187500.02235174447,-187500.02235174447
$SILENCE,5989.127575055072,-6328.53881460891,8900.643456058915,10616.251601726008,-187500.02235174447,-187500.02235174447,-187500.02235174447,-187500.02235174447
$SILENCE,6016.977848646385,-6281.488392530488,9176.598093104136,10614.66462786968,-187500.02235174447,-187500.02235174447,-187500.02235174447,-187500.02235174447
$SILENCE,5893.439757041902,-6306.589401553799,8774.043175464056,10661.849160414835,-187500.02235174447,-187500.02235174447,-187500.02235174447,-187500.02235174447
$SILENCE,5823.925831785898,-6360.680623135641,8378.260836393933,10679.73055597908,-187500.02235174447,-187500.02235174447,-187500.02235174447,-187500.02235174447
$SILENCE,5960.338528196637,-6341.279308948435,8792.729233828692,10626.28753498644,-187500.02235174447,-187500.02235174447,-187500.02235174447,-187500.02235174447
$SILENCE,6029.248956352349,-6286.852811199762,9181.090793739653,10611.20010747911,-187500.02235174447,-187500.02235174447,-187500.02235174447,-187500.02235174447
$SILENCE,5922.6981905339,-6298.766290994441,8873.262569101164,10656.887073145757,-187500.02235174447,-187500.02235174447,-187500.02235174447,-187500.02235174447
$SILENCE,5822.495320140758,-6352.991623043016,8393.616484834729,10687.26309386052,-187500.02235174447,-187500.02235174447,-187500.02235174447,-187500.02235174447
$SILENCE,5932.734123794333,-6348.834198574329,8683.205685997687,10637.888090358745,-187500.02235174447,-187500.02235174447,-187500.02235174447,-187500.02235174447
$SILENCE,6032.66877325401,-6288.7080059895525,9168.439706377949,10611.825956323857,-187500.02235174447,-187500.02235174447,-187500.02235174447,-187500.02235174447
$SILENCE,5946.972185012363,-6288.596247267276,8968.749221414235,10649.220424797586,-187500.02235174447,-187500.02235174447,-187500.02235174447,-187500.02235174447
$SILENCE,5823.389389918971,-6343.290965949413,8438.43173246762,10684.804401970436,-187500.02235174447,-187500.02235174447,-187500.02235174447,-187500.02235174447
$SILENCE,5903.609800769067,-6356.389088200222,8583.472202238108,10650.24860504253,-187500.02235174447,-187500.02235174447,-187500.02235174447,-187500.02235174447
$SILENCE,6034.434561065979,-6298.587477038798,9127.692476235923,10611.893011557224,-187500.02235174447,-187500.02235174447,-187500.02235174447,-187500.02235174447
$SILENCE,5972.810801602698,-6285.467003043534,9040.699486815869,10640.190320037642,-187500.02235174447,-187500.02235174447,-187500.02235174447,-187500.02235174447
$SILENCE,5837.895672070465,-6334.082047233826,8501.77657625396,10686.369024082307,-187500.02235174447,-187500.02235174447,-187500.02235174447,-187500.02235174447
$SILENCE,5875.06662309964,-6362.066431291871,8494.176983139156,10662.653823215225,-187500.02235174447,-187500.02235174447,-187500.02235174447,-187500.02235174447
$SILENCE,6019.235374836371,-6311.8867649897065,9066.068716772643,10614.262296469486,-187500.02235174447,-187500.02235174447,-187500.02235174447,-187500.02235174447
$SILENCE,5990.669845422488,-6284.572933265321,9110.459281260883,10635.161177535198,-187500.02235174447,-187500.02235174447,-187500.02235174447,-187500.02235174447
$SILENCE,5851.530236188202,-6323.844948273296,8592.815231420425,10683.597407769848,-187500.02235174447,-187500.02235174447,-187500.02235174447,-187500.02235174447
$SILENCE,5848.244529753271,-6363.228722003547,8428.753427118472,10670.789858196958,-187500.02235174447,-187500.02235174447,-187500.02235174447,-187500.02235174447
$SILENCE,5997.7329966703655,-6318.234660415013,8985.40127103344,10619.224383738565,-187500.02235174447,-187500.02235174447,-187500.02235174447,-187500.02235174447
$SILENCE,6002.248049050338,-6279.074404129316,9155.833322505156,10628.992096065533,-187500.02235174447,-187500.02235174447,-187500.02235174447,-187500.02235174447
$SILENCE,5871.44564049788,-6313.9431254795945,8685.396156954308,10674.544951265449,-187500.02235174447,-187500.02235174447,-187500.02235174447,-187500.02235174447
$SILENCE,5837.53804415918,-6365.68741389363,8387.402699876155,10675.819000699401,-187500.02235174447,-187500.02235174447,-187500.02235174447,-187500.02235174447
$SILENCE,5990.178107044471,-6334.283212933924,8888.305293119585,10618.48677617154,-187500.02235174447,-187500.02235174447,-187500.02235174447,-187500.02235174447
$SILENCE,6026.164415617516,-6286.562238521843,9179.168543716496,10613.14470924672,-187500.02235174447,-187500.02235174447,-187500.02235174447,-187500.02235174447
$SILENCE,5899.921762933942,-6308.4892998324995,8781.687472067772,10657.736439435059,-187500.02235174447,-187500.02235174447,-187500.02235174447,-187500.02235174447
$SILENCE,5831.883052811987,-6364.368660970767,8371.220036890512,10672.82386694239,-187500.02235174447,-187500.02235174447,-187500.02235174447,-187500.02235174447
$SILENCE,5976.364728971092,-6349.035364274427,8776.792440032059,10619.00086629401,-187500.02235174447,-187500.02235174447,-187500.02235174447,-187500.02235174447
$SILENCE,6050.639575796077,-6294.921790948128,9183.504782140826,10603.95814227559,-187500.02235174447,-187500.02235174447,-187500.02235174447,-187500.02235174447
$SILENCE,5943.038277988229,-6305.136538164204,8883.387909339417,10647.700506174626,-187500.02235174447,-187500.02235174447,-187500.02235174447,-187500.02235174447
$SILENCE,5837.448637181358,-6358.534855667932,8387.849734765261,10674.656709987727,-187500.02235174447,-187500.02235174447,-187500.02235174447,-187500.02235174447
$SILENCE,5942.74770531031,-6355.606777144287,8671.00163352509,10633.641258912237,-187500.02235174447,-187500.02235174447,-187500.02235174447,-187500.02235174447
$SILENCE,6041.050677424751,-6295.569991537332,9167.970319744387,10611.62479062376,-187500.02235174447,-187500.02235174447,-187500.02235174447,-187500.02235174447
$SILENCE,5951.867217048075,-6289.087985645293,8974.247750550241,10646.113532318299,-187500.02235174447,-187500.02235174447,-187500.02235174447,-187500.02235174447
$SILENCE,5823.367038174515,-6340.318183936856,8443.952613348081,10683.530352536483,-187500.02235174447,-187500.02235174447,-187500.02235174447,-187500.02235174447
$SILENCE,5890.914009918453,-6356.59025390032,8576.498457968051,10648.616927697292,-187500.02235174447,-187500.02235174447,-187500.02235174447,-187500.02235174447
$SILENCE,6019.414188792013,-6301.5602590513545,9126.865461691077,10613.85996506929,-187500.02235174447,-187500.02235174447,-187500.02235174447,-187500.02235174447
$SILENCE,5965.859409077098,-6286.584590266299,9054.60227186707,10643.63248868376,-187500.02235174447,-187500.02235174447,-187500.02235174447,-187500.02235174447
$SILENCE,5832.419494678914,-6335.6690210901525,8510.002018213514,10687.35250083834,-187500.02235174447,-187500.02235174447,-187500.02235174447,-187500.02235174447
$SILENCE,5866.014166595241,-6366.805001116396,8481.458840544086,10657.736439435059,-187500.02235174447,-187500.02235174447,-187500.02235174447,-187500.02235174447
$SILENCE,6010.071159609694,-6314.434863857611,9055.809266067656,10611.133052245743,-187500.02235174447,-187500.02235174447,-187500.02235174447,-187500.02235174447
$SILENCE,5987.540601198745,-6284.841154198784,9111.196888827908,10629.997924566022,-187500.02235174447,-187500.02235174447,-187500.02235174447,-187500.02235174447
$SILENCE,5847.77514311971,-6325.007238984971,8591.094147097367,10673.472067531595,-187500.02235174447,-187500.02235174447,-187500.02235174447,-187500.02235174447
$SILENCE,5839.750866860255,-6367.0061668164935,8414.358903689254,10663.078506359876,-187500.02235174447,-187500.02235174447,-187500.02235174447,-187500.02235174447
$SILENCE,5991.765080900798,-6324.649611073686,8972.325500527084,10614.686979614136,-187500.02235174447,-187500.02235174447,-187500.02235174447,-187500.02235174447
$SILENCE,6001.398682761036,-6284.729395476508,9155.09571493813,10620.05139828341,-187500.02235174447,-187500.02235174447,-187500.02235174447,-187500.02235174447
$SILENCE,5873.099669587573,-6314.256049901968,8692.90634309129,10668.040593628955,-187500.02235174447,-187500.02235174447,-187500.02235174447,-187500.02235174447
$SILENCE,5827.7256283433,-6362.155838269692,8385.435746364086,10675.595483254849,-187500.02235174447,-187500.02235174447,-187500.02235174447,-187500.02235174447
$SILENCE,5977.549371427223,-6335.199634456591,8880.504534304682,10624.477043685562,-187500.02235174447,-187500.02235174447,-187500.02235174447,-187500.02235174447
$SILENCE,6017.871918424597,-6285.869334443729,9181.135497228563,10617.212726737587,-187500.02235174447,-187500.02235174447,-187500.02235174447,-187500.02235174447
$SILENCE,5890.623437240534,-6303.996599196983,8792.483364639684,10663.659651715714,-187500.02235174447,-187500.02235174447,-187500.02235174447,-187500.02235174447
$SILENCE,5811.34179965756,-6360.948844069105,8372.60584504674,10679.01530015651,-187500.02235174447,-187500.02235174447,-187500.02235174447,-187500.02235174447
$SILENCE,5947.933310023941,-6348.431867174133,8769.751640528637,10629.305020487907,-187500.02235174447,-187500.02235174447,-187500.02235174447,-187500.02235174447
$SILENCE,6030.970040675407,-6293.066596158337,9186.72343334239,10614.709331358592,-187500.02235174447,-187500.02235174447,-187500.02235174447,-187500.02235174447
$SILENCE,5924.240460901316,-6299.369788094734,8889.691101275814,10654.920119633689,-187500.02235174447,-187500.02235174447,-187500.02235174447,-187500.02235174447
$SILENCE,5814.314581670115,-6353.908044565684,8395.404624391154,10686.793707226958,-187500.02235174447,-187500.02235174447,-187500.02235174447,-187500.02235174447
$SILENCE,5918.898393976498,-6355.405611444189,8666.307767189475,10646.024125340477,-187500.02235174447,-187500.02235174447,-187500.02235174447,-187500.02235174447
$SILENCE,6022.074046382195,-6294.921790948128,9165.57868308767,10616.609229637294,-187500.02235174447,-187500.02235174447,-187500.02235174447,-187500.02235174447
$SILENCE,5941.6748215764555,-6289.043282156383,8981.981454131777,10645.845311384835,-187500.02235174447,-187500.02235174447,-187500.02235174447,-187500.02235174447
$SILENCE,5818.337895672071,-6343.11215199377,8442.835026125316,10680.35640482383,-187500.02235174447,-187500.02235174447,-187500.02235174447,-187500.02235174447
$SILENCE,5891.048120385185,-6361.529989424943,8557.991213559057,10649.242776542042,-187500.02235174447,-187500.02235174447,-187500.02235174447,-187500.02235174447
$SILENCE,6022.498729526846,-6306.142366664692,9116.226031330352,10611.62479062376,-187500.02235174447,-187500.02235174447,-187500.02235174447,-187500.02235174447
$SILENCE,5970.396813201525,-6286.204610610558,9058.69264110239,10637.709276403104,-187500.02235174447,-187500.02235174447,-187500.02235174447,-187500.02235174447
$SILENCE,5833.514730157224,-6332.7856460554185,8517.221631672577,10683.664463003215,-187500.02235174447,-187500.02235174447,-187500.02235174447,-187500.02235174447
$SILENCE,5865.902407872964,-6366.268559249468,8474.730965463039,10658.943433635644,-187500.02235174447,-187500.02235174447,-187500.02235174447,-187500.02235174447
$SILENCE,6014.943839900951,-6316.178299925125,9050.467199142839,10612.496508657518,-187500.02235174447,-187500.02235174447,-187500.02235174447,-187500.02235174447
$SILENCE,5987.89822911003,-6284.438822798589,9117.455377275393,10628.276840242963,-187500.02235174447,-187500.02235174447,-187500.02235174447,-187500.02235174447
$SILENCE,5847.618680908523,-6322.503843605977,8604.527545515008,10674.835523943368,-187500.02235174447,-187500.02235174447,-187500.02235174447,-187500.02235174447
$SILENCE,5837.694506370367,-6364.97215807106,8412.213136221544,10669.225236085085,-187500.02235174447,-187500.02235174447,-187500.02235174447,-187500.02235174447
$SILENCE,5993.419109990491,-6325.476625618533,8962.669546922392,10616.72098835957,-187500.02235174447,-187500.02235174447,-187500.02235174447,-187500.02235174447
não,6002.359807772614,-6281.6001512527655,9160.57189232968,10624.566450663382,-187500.02235174447,-187500.02235174447,-187500.02235174447,-187500.02235174447
não,5869.098707330073,-6309.785701010907,8698.650741416304,10670.454582030128,-187500.02235174447,-187500.02235174447,-187500.02235174447,-187500.02235174447
não,5823.76936957471,-6362.7816871144405,8372.628196791196,10676.936587922168,-187500.02235174447,-187500.02235174447,-187500.02235174447,-187500.02235174447
não,5968.094583522628,-6336.451332146088,8858.979804394223,10621.012523294989,-187500.02235174447,-187500.02235174447,-187500.02235174447,-187500.02235174447
não,6015.502633512335,-6285.95874142155,9179.168543716496,10615.20106973661,-187500.02235174447,-187500.02235174447,-187500.02235174447,-187500.02235174447
não,5897.686588488411,-6302.163756151647,8801.155841488344,10664.151390093732,-187500.02235174447,-187500.02235174447,-187500.02235174447,-187500.02235174447
não,5813.889898525465,-6357.327861467345,8368.89545546716,10681.697509491147,-187500.02235174447,-187500.02235174447,-187500.02235174447,-187500.02235174447
não,5938.791446541721,-6344.788532827918,8753.077239164977,10630.355552477307,-187500.02235174447,-187500.02235174447,-187500.02235174447,-187500.02235174447
não,6017.849566680142,-6289.691482745587,9179.034433249764,10614.597572636316,-187500.02235174447,-187500.02235174447,-187500.02235174447,-187500.02235174447
não,5917.870213731553,-6295.301770603868,8896.821307757058,10655.009526611511,-187500.02235174447,-187500.02235174447,-187500.02235174447,-187500.02235174447
não,5809.508956612224,-6350.77880034194,8391.09073771128,10681.78691646897,-187500.02235174447,-187500.02235174447,-187500.02235174447,-187500.02235174447
não,5908.92951594943,-6355.047983532904,8643.173711678233,10636.725799647069,-187500.02235174447,-187500.02235174447,-187500.02235174447,-187500.02235174447
não,6019.324781814192,-6296.821689226829,9157.66616555049,10608.875526055757,-187500.02235174447,-187500.02235174447,-187500.02235174447,-187500.02235174447
não,5943.887644277531,-6288.931523434106,8988.39640479045,10643.856006128313,-187500.02235174447,-187500.02235174447,-187500.02235174447,-187500.02235174447
não,5815.543927615157,-6341.368715926256,8446.299546515887,10684.759698481525,-187500.02235174447,-187500.02235174447,-187500.02235174447,-187500.02235174447
não,5879.179344079416,-6363.11696328127,8541.652088362229,10646.44880848513,-187500.02235174447,-187500.02235174447,-187500.02235174447,-187500.02235174447
não,6003.298581039737,-6306.835270742807,9102.502060234792,10605.388653920729,-187500.02235174447,-187500.02235174447,-187500.02235174447,-187500.02235174447
não,5950.123780980562,-6284.617636754231,9061.866588815044,10632.255450756009,-187500.02235174447,-187500.02235174447,-187500.02235174447,-187500.02235174447
não,5818.851985794543,-6330.818692543351,8524.441245131642,10679.797611212447,-187500.02235174447,-187500.02235174447,-187500.02235174447,-187500.02235174447
não,5850.099724543063,-6366.02269006046,8457.38601176572,10657.334108034864,-187500.02235174447,-187500.02235174447,-187500.02235174447,-187500.02235174447
não,5996.928333869974,-6315.552451080376,9030.015352966233,10608.830822566846,-187500.02235174447,-187500.02235174447,-187500.02235174447,-187500.02235174447
não,5977.035281304751,-6283.477697787011,9117.120101108563,10627.33806697584,-187500.02235174447,-187500.02235174447,-187500.02235174447,-187500.02235174447
não,5840.175550004906,-6322.973230239539,8607.030940894001,10672.801515197936,-187500.02235174447,-187500.02235174447,-187500.02235174447,-187500.02235174447
não,5822.651782351945,-6367.296739494413,8397.304522669856,10665.693660461147,-187500.02235174447,-187500.02235174447,-187500.02235174447,-187500.02235174447
não,5973.570760914178,-6326.01306748546,8949.794942116136,10616.43041568165,-187500.02235174447,-187500.02235174447,-187500.02235174447,-187500.02235174447
não,5987.987636087852,-6284.282360587402,9160.750706285324,10619.224383738565,-187500.02235174447,-187500.02235174447,-187500.02235174447,-187500.02235174447
não,5855.911178101442,-6311.193860911591,8709.424282243763,10669.336994807363,-187500.02235174447,-187500.02235174447,-187500.02235174447,-187500.02235174447
não,5805.396235632448,-6363.519294681465,8371.912940968627,10679.417631556706,-187500.02235174447,-187500.02235174447,-187500.02235174447,-187500.02235174447
não,5949.609690858089,-6337.099532735292,8847.356897277463,10624.05236054091,-187500.02235174447,-187500.02235174447,-187500.02235174447,-187500.02235174447
não,6002.739787428354,-6287.232790855503,9172.932407013466,10611.356569690297,-187500.02235174447,-187500.02235174447,-187500.02235174447,-187500.02235174447
não,5886.421309282936,-6302.655494529664,8806.117928757421,10658.295233046441,-187500.02235174447,-187500.02235174447,-187500.02235174447,-187500.02235174447
não,5800.769424530199,-6356.92553006715,8367.621406033208,10677.271864088996,-187500.02235174447,-187500.02235174447,-187500.02235174447,-187500.02235174447
não,5922.899356233997,-6346.129637495236,8735.821692445481,10627.673343142671,-187500.02235174447,-187500.02235174447,-187500.02235174447,-187500.02235174447
não,6003.991485117851,-6289.915000190139,9172.507723868815,10613.502337158006,-187500.02235174447,-187500.02235174447,-187500.02235174447,-187500.02235174447
não,5905.912030447964,-6293.491279302988,8905.918467750367,10654.607195211316,-187500.02235174447,-187500.02235174447,-187500.02235174447,-187500.02235174447
não,5793.370997115493,-6348.0518875183925,8397.349226158765,10686.771355482502,-187500.02235174447,-187500.02235174447,-187500.02235174447,-187500.02235174447
não,5891.338693063104,-6354.1539137546915,8628.332153359908,10645.01829683999,-187500.02235174447,-187500.02235174447,-187500.02235174447,-187500.02235174447
não,6004.974961873885,-6296.799337482374,9141.662316520491,10611.91536330168,-187500.02235174447,-187500.02235174447,-187500.02235174447,-187500.02235174447
não,5933.024696472251,-6286.450479799567,8983.188448332363,10646.269994529486,-187500.02235174447,-187500.02235174447,-187500.02235174447,-187500.02235174447
não,5797.014331461708,-6336.764256568463,8443.99731683699,10689.40886132823,-187500.02235174447,-187500.02235174447,-187500.02235174447,-187500.02235174447
não,5847.171646019417,-6355.897349822206,8526.721123066083,10660.0163173695,-187500.02235174447,-187500.02235174447,-187500.02235174447,-187500.02235174447
não,5986.42301397598,-6299.883878217206,9093.22608628584,10625.0581890414,-187500.02235174447,-187500.02235174447,-187500.02235174447,-187500.02235174447
não,5945.988708256329,-6278.180334351103,9059.117324247041,10655.501264989527,-187500.02235174447,-187500.02235174447,-187500.02235174447,-187500.02235174447
não,5807.474947866792,-6322.68265756162,8517.758073539504,10702.55168706795,-187500.02235174447,-187500.02235174447,-187500.02235174447,-187500.02235174447
não,5824.194052719361,-6356.724364367052,8439.504616201475,10685.273788603996,-187500.02235174447,-187500.02235174447,-187500.02235174447,-187500.02235174447
não,5966.2170369883825,-6303.348398607779,9014.056207425143,10642.62666018327,-187500.02235174447,-187500.02235174447,-187500.02235174447,-187500.02235174447
não,5948.648565846511,-6269.105526102248,9108.8499556601,10660.575110980883,-187500.02235174447,-187500.02235174447,-187500.02235174447,-187500.02235174447
não,5805.060959465619,-6304.443634086088,8602.359426302843,10713.54874533996,-187500.02235174447,-187500.02235174447,-187500.02235174447,-187500.02235174447
não,5782.1951248878395,-6349.30358520789,8377.724394527006,10713.481690106593,-187500.02235174447,-187500.02235174447,-187500.02235174447,-187500.02235174447
não,5935.684554062433,-6309.115148677248,8917.228450444753,10658.33993653535,-187500.02235174447,-187500.02235174447,-187500.02235174447,-187500.02235174447
não,5947.083943734639,-6262.087078343282,9135.850862962112,10662.922044148689,-187500.02235174447,-187500.02235174447,-187500.02235174447,-187500.02235174447
não,5809.352494401038,-6288.14921237817,8686.916075577268,10710.374797627306,-187500.02235174447,-187500.02235174447,-187500.02235174447,-187500.02235174447
não,5758.994014143231,-6345.392029928212,8343.190949343556,10729.329076925407,-187500.02235174447,-187500.02235174447,-187500.02235174447,-187500.02235174447
não,5895.876097187531,-6322.548547094888,8813.628114894404,10679.01530015651,-187500.02235174447,-187500.02235174447,-187500.02235174447,-187500.02235174447
não,5947.6650890904775,-6269.753726691452,9154.134589926553,10669.001718640533,-187500.02235174447,-187500.02235174447,-187500.02235174447,-187500.02235174447
não,5821.042456751163,-6282.047186141871,8786.314283170019,10709.9277627382,-187500.02235174447,-187500.02235174447,-187500.02235174447,-187500.02235174447
não,5731.769589396667,-6334.238509445013,8336.194853329045,10732.45832114915,-187500.02235174447,-187500.02235174447,-187500.02235174447,-187500.02235174447
não,5858.2134077803385,-6326.8624337747615,8694.694482647716,10684.893808948256,-187500.02235174447,-187500.02235174447,-187500.02235174447,-187500.02235174447
não,5933.292917405715,-6271.273645314413,9140.18710138644,10665.000756383033,-187500.02235174447,-187500.02235174447,-187500.02235174447,-187500.02235174447
não,5835.01229703573,-6272.659453470642,8883.879647717435,10706.731463281092,-187500.02235174447,-187500.02235174447,-187500.02235174447,-187500.02235174447
não,5718.492653190214,-6325.7448465519965,8368.113144411223,10740.817873575435,-187500.02235174447,-187500.02235174447,-187500.02235174447,-187500.02235174447
não,5803.429282120381,-6334.305564678379,8582.801649904448,10695.510887564527,-187500.02235174447,-187500.02235174447,-187500.02235174447,-187500.02235174447
não,5921.737065522321,-6275.475773272011,9108.715845193368,10665.716012205603,-187500.02235174447,-187500.02235174447,-187500.02235174447,-187500.02235174447
não,5849.786800120688,-6265.4621917560335,8964.01065158971,10698.64013178827,-187500.02235174447,-187500.02235174447,-187500.02235174447,-187500.02235174447
não,5709.931935063832,-6313.227869657025,8419.253935724966,10736.638097362293,-187500.02235174447,-187500.02235174447,-187500.02235174447,-187500.02235174447
não,5772.002729416219,-6337.926547280139,8486.286817346432,10707.35731212584,-187500.02235174447,-187500.02235174447,-187500.02235174447,-187500.02235174447
não,5909.711827005366,-6284.729395476508,9053.931719533412,10665.179570338676,-187500.02235174447,-187500.02235174447,-187500.02235174447,-187500.02235174447
não,5866.1929805508835,-6261.57298822081,9035.826806524612,10691.509925307028,-187500.02235174447,-187500.02235174447,-187500.02235174447,-187500.02235174447
não,5723.566499181569,-6306.634105042709,8499.027311685957,10740.527300897516,-187500.02235174447,-187500.02235174447,-187500.02235174447,-187500.02235174447
não,5736.41875224337,-6342.843931060306,8406.80401406336,10724.657562334247,-187500.02235174447,-187500.02235174447,-187500.02235174447,-187500.02235174447
não,5896.323132076637,-6291.5243257909215,8980.953273886833,10677.361271066819,-187500.02235174447,-187500.02235174447,-187500.02235174447,-187500.02235174447
não,5882.2191813253385,-6257.415563752123,9089.761565895267,10691.174649140197,-187500.02235174447,-187500.02235174447,-187500.02235174447,-187500.02235174447
não,5748.4439907603255,-6293.178354880614,8587.294350539965,10736.660449106748,-187500.02235174447,-187500.02235174447,-187500.02235174447,-187500.02235174447
não,5724.013534070675,-6341.100494992793,8346.208434845023,10735.811082817447,-187500.02235174447,-187500.02235174447,-187500.02235174447,-187500.02235174447
não,5880.185172579905,-6306.321180620334,8883.723185506247,10687.911294449723,-187500.02235174447,-187500.02235174447,-187500.02235174447,-187500.02235174447
não,5907.946039193397,-6262.422354510111,9122.059836633187,10685.83258221538,-187500.02235174447,-187500.02235174447,-187500.02235174447,-187500.02235174447
não,5778.99882543073,-6286.584590266299,8686.536095921529,10735.229937461609,-187500.02235174447,-187500.02235174447,-187500.02235174447,-187500.02235174447
não,5718.559708423581,-6340.429942659133,8324.191966556546,10749.199777746175,-187500.02235174447,-187500.02235174447,-187500.02235174447,-187500.02235174447
não,5853.385430977993,-6315.865375502751,8775.87601850939,10693.83450673038,-187500.02235174447,-187500.02235174447,-187500.02235174447,-187500.02235174447
não,5914.875079974542,-6262.221188810014,9133.99566817232,10685.385547326274,-187500.02235174447,-187500.02235174447,-187500.02235174447,-187500.02235174447
não,5813.3087531696265,-6276.347491305768,8793.757414073636,10733.330039182907,-187500.02235174447,-187500.02235174447,-187500.02235174447,-187500.02235174447
não,5722.247746258706,-6332.428018144134,8335.926632395582,10756.441742949693,-187500.02235174447,-187500.02235174447,-187500.02235174447,-187500.02235174447
não,5848.2892332421825,-6328.516462864454,8673.549732392996,10707.536126081483,-187500.02235174447,-187500.02235174447,-187500.02235174447,-187500.02235174447
não,5944.245272188816,-6270.8042586808515,9127.960697169388,10692.06871891841,-187500.02235174447,-187500.02235174447,-187500.02235174447,-187500.02235174447
não,5846.2328727522945,-6271.832438925796,8878.068194159056,10729.865518792334,-187500.02235174447,-187500.02235174447,-187500.02235174447,-187500.02235174447
não,5727.522757950158,-6326.907137263673,8357.093734394757,10762.856693608368,-187500.02235174447,-187500.02235174447,-187500.02235174447,-187500.02235174447
não,5815.879203781987,-6335.914890279161,8559.891111837758,10723.852899533857,-187500.02235174447,-187500.02235174447,-187500.02235174447,-187500.02235174447
não,5936.444513373914,-6276.191029094581,9091.527353707237,10690.92877995119,-187500.02235174447,-187500.02235174447,-187500.02235174447,-187500.02235174447
não,5871.177419564417,-6265.104563844749,8963.407154489418,10718.019094231022,-187500.02235174447,-187500.02235174447,-187500.02235174447,-187500.02235174447
não,5747.795790171122,-6318.547584837388,8426.562956161852,10766.768248888045,-187500.02235174447,-187500.02235174447,-187500.02235174447,-187500.02235174447
não,5803.071654209096,-6344.676774105642,8477.144953864212,10740.035562519499,-187500.02235174447,-187500.02235174447,-187500.02235174447,-187500.02235174447
não,5943.4406093884245,-6289.535020534399,9041.817074038634,10694.616817786315,-187500.02235174447,-187500.02235174447,-187500.02235174447,-187500.02235174447
não,5907.096672904096,-6266.4009650231565,9031.624678567014,10719.74017855408,-187500.02235174447,-187500.02235174447,-187500.02235174447,-187500.02235174447
não,5777.7918312301435,-6310.925639978128,8499.608457041795,10768.891664611301,-187500.02235174447,-187500.02235174447,-187500.02235174447,-187500.02235174447
não,5787.112508668007,-6347.090762506815,8393.460022623542,10753.692478381692,-187500.02235174447,-187500.02235174447,-187500.02235174447,-187500.02235174447
não,5940.6242895870555,-6301.068520673338,8979.120430841498,10700.964713211622,-187500.02235174447,-187500.02235174447,-187500.02235174447,-187500.02235174447
não,5941.138379709528,-6260.723621931508,9120.025827887754,10715.02396047401,-187500.02235174447,-187500.02235174447,-187500.02235174447,-187500.02235174447
não,5788.788889502155,-6300.442671828589,8586.780260417492,10763.03550756401,-187500.02235174447,-187500.02235174447,-187500.02235174447,-187500.02235174447
não,5763.754935712211,-6346.73313459553,8360.625310018697,10759.302766239973,-187500.02235174447,-187500.02235174447,-187500.02235174447,-187500.02235174447
não,5909.488309560813,-6314.68073304662,8852.587205480004,10710.35244588285,-187500.02235174447,-187500.02235174447,-187500.02235174447,-187500.02235174447
não,5953.454190904402,-6265.90922664514,9136.677877506958,10708.07256794841,-187500.02235174447,-187500.02235174447,-187500.02235174447,-187500.02235174447
não,5807.631410077979,-6293.670093258631,8669.124086990843,10754.541844670994,-187500.02235174447,-187500.02235174447,-187500.02235174447,-187500.02235174447
não,5745.09122909203,-6350.465875919566,8294.240628986434,10761.269719752041,-187500.02235174447,-187500.02235174447,-187500.02235174447,-187500.02235174447
não,5885.951922649375,-6326.594212841298,8746.371715828385,10710.084224949387,-187500.02235174447,-187500.02235174447,-187500.02235174447,-187500.02235174447
não,5947.419219901469,-6270.021947624916,9118.595316242614,10700.49532657806,-187500.02235174447,-187500.02235174447,-187500.02235174447,-187500.02235174447
não,5839.01325929323,-6280.594322752277,8786.828373292492,10747.36693470084,-187500.02235174447,-187500.02235174447,-187500.02235174447,-187500.02235174447
não,5743.593662213524,-6337.390105413211,8321.733274666462,10772.400888490783,-187500.02235174447,-187500.02235174447,-187500.02235174447,-187500.02235174447
não,5862.057907826652,-6335.289041434413,8655.087191472912,10725.216355945631,-187500.02235174447,-187500.02235174447,-187500.02235174447,-187500.02235174447
não,5952.805990315198,-6278.582665751299,9116.427197030449,10701.143527167265,-187500.02235174447,-187500.02235174447,-187500.02235174447,-187500.02235174447
não,5860.582692692601,-6277.532133761899,8879.029319170633,10736.638097362293,-187500.02235174447,-187500.02235174447,-187500.02235174447,-187500.02235174447
não,5745.359450025493,-6332.606832099776,8361.072344907803,10773.294958268996,-187500.02235174447,-187500.02235174447,-187500.02235174447,-187500.02235174447
não,5824.775198075199,-6344.475608405543,8542.657916862718,10732.592431615882,-187500.02235174447,-187500.02235174447,-187500.02235174447,-187500.02235174447
não,5946.994536756818,-6285.62346525472,9078.920969834444,10697.9248759657,-187500.02235174447,-187500.02235174447,-187500.02235174447,-187500.02235174447
não,5883.6273412260225,-6271.206590081048,8964.43533473436,10733.955888027655,-187500.02235174447,-187500.02235174447,-187500.02235174447,-187500.02235174447
não,5741.358487767993,-6319.888689504706,8416.705836857062,10771.462115223661,-187500.02235174447,-187500.02235174447,-187500.02235174447,-187500.02235174447
não,5792.253409892727,-6345.97317528405,8448.311203516865,10739.387361930296,-187500.02235174447,-187500.02235174447,-187500.02235174447,-187500.02235174447
não,5928.576699325646,-6289.020930411927,9019.085349927587,10689.9229514507,-187500.02235174447,-187500.02235174447,-187500.02235174447,-187500.02235174447
não,5888.20944883936,-6266.177447578603,9038.509015859248,10715.873326763312,-187500.02235174447,-187500.02235174447,-187500.02235174447,-187500.02235174447
não,5746.253519803706,-6310.880936489218,8519.993247985036,10767.528208199526,-187500.02235174447,-187500.02235174447,-187500.02235174447,-187500.02235174447
não,5747.795790171122,-6348.498922407499,8392.476545867508,10747.881024823311,-187500.02235174447,-187500.02235174447,-187500.02235174447,-187500.02235174447
não,5892.679797730422,-6301.135575906704,8949.705535138313,10690.235875873075,-187500.02235174447,-187500.02235174447,-187500.02235174447,-187500.02235174447
não,5885.169611593439,-6265.149267333659,9078.675100645436,10698.72953876609,-187500.02235174447,-187500.02235174447,-187500.02235174447,-187500.02235174447
não,5744.085400591541,-6299.995636939483,8589.395414518764,10745.735257355602,-187500.02235174447,-187500.02235174447,-187500.02235174447,-187500.02235174447
não,5709.619010641457,-6347.962480540572,8327.321210780288,10743.477731165616,-187500.02235174447,-187500.02235174447,-187500.02235174447,-187500.02235174447
não,5857.811076380143,-6311.037398700404,8852.721315946736,10689.364157839318,-187500.02235174447,-187500.02235174447,-187500.02235174447,-187500.02235174447
não,5888.030634883718,-6263.204665566047,9121.724560466357,10690.705262506635,-187500.02235174447,-187500.02235174447,-187500.02235174447,-187500.02235174447
não,5759.888083921443,-6287.098680388771,8710.474814233163,10738.470940407627,-187500.02235174447,-187500.02235174447,-187500.02235174447,-187500.02235174447
não,5682.841620783999,-6341.324012437345,8321.196832799535,10746.852844578367,-187500.02235174447,-187500.02235174447,-187500.02235174447,-187500.02235174447
não,5818.516709627714,-6321.565070338854,8758.218140389698,10691.174649140197,-187500.02235174447,-187500.02235174447,-187500.02235174447,-187500.02235174447
não,5891.137527363006,-6262.310595787835,9165.042241220743,10679.931721679179,-187500.02235174447,-187500.02235174447,-187500.02235174447,-187500.02235174447
não,5777.456555063314,-6275.609883738743,8801.625228121904,10727.384475157794,-187500.02235174447,-187500.02235174447,-187500.02235174447,-187500.02235174447
não,5687.803708053078,-6335.736076323518,8342.69921096554,10751.099676024876,-187500.02235174447,-187500.02235174447,-187500.02235174447,-187500.02235174447
não,5799.271857651694,-6333.232680944524,8632.511929573051,10705.949152225156,-187500.02235174447,-187500.02235174447,-187500.02235174447,-187500.02235174447
não,5893.082129130617,-6274.626406982709,9102.61381895707,10677.405974555728,-187500.02235174447,-187500.02235174447,-187500.02235174447,-187500.02235174447
não,5799.294209396149,-6269.753726691452,8891.970979210255,10718.577887842404,-187500.02235174447,-187500.02235174447,-187500.02235174447,-187500.02235174447
não,5680.897019016388,-6322.68265756162,8373.23169389149,10754.675955137725,-187500.02235174447,-187500.02235174447,-187500.02235174447,-187500.02235174447
não,5765.2301508462615,-6335.579614112332,8542.993193029546,10710.26303890503,-187500.02235174447,-187500.02235174447,-187500.02235174447,-187500.02235174447
não,5887.695358716889,-6277.8450581842735,9083.346615236595,10676.400146055239,-187500.02235174447,-187500.02235174447,-187500.02235174447,-187500.02235174447
não,5827.300945198649,-6265.90922664514,8974.761840672712,10706.843222003368,-187500.02235174447,-187500.02235174447,-187500.02235174447,-187500.02235174447
não,5697.303199446583,-6316.133596436214,8436.576537677829,10748.730391112613,-187500.02235174447,-187500.02235174447,-187500.02235174447,-187500.02235174447
não,5741.023211601164,-6342.73217233803,8451.507502973975,10721.953001255155,-187500.02235174447,-187500.02235174447,-187500.02235174447,-187500.02235174447
não,5884.655521470967,-6290.138517634692,9021.58874530658,10674.25437858753,-187500.02235174447,-187500.02235174447,-187500.02235174447,-187500.02235174447
não,5853.117210044528,-6264.836342911285,9045.818036296134,10695.220314886608,-187500.02235174447,-187500.02235174447,-187500.02235174447,-187500.02235174447
não,5717.375065967449,-6307.282305631913,8523.927155009169,10743.164806743242,-187500.02235174447,-187500.02235174447,-187500.02235174447,-187500.02235174447
não,5714.737560121723,-6345.481436906032,8382.954702729548,10729.9325740257,-187500.02235174447,-187500.02235174447,-187500.02235174447,-187500.02235174447
não,5867.578788707112,-6298.408663083156,8945.81633160309,10683.977387425588,-187500.02235174447,-187500.02235174447,-187500.02235174447,-187500.02235174447
não,5871.892675386986,-6258.421392252611,9095.03657758672,10696.673178276204,-187500.02235174447,-187500.02235174447,-187500.02235174447,-187500.02235174447
não,5738.966851111276,-6292.820726969329,8621.246650367577,10747.165769000741,-187500.02235174447,-187500.02235174447,-187500.02235174447,-187500.02235174447
não,5703.829908827533,-6340.988736270516,8345.962565656015,10747.344582956384,-187500.02235174447,-187500.02235174447,-187500.02235174447,-187500.02235174447
não,5857.967538591331,-6309.137500421703,8856.744629948691,10691.822849729402,-187500.02235174447,-187500.02235174447,-187500.02235174447,-187500.02235174447
não,5893.395053552992,-6260.522456231411,9127.536014024738,10690.63820727327,-187500.02235174447,-187500.02235174447,-187500.02235174447,-187500.02235174447
não,5767.062993891596,-6282.829497197807,8718.387331770342,10739.767341586035,-187500.02235174447,-187500.02235174447,-187500.02235174447,-187500.02235174447
não,5694.21865871175,-6338.842968802806,8325.018981101392,10750.697344624681,-187500.02235174447,-187500.02235174447,-187500.02235174447,-187500.02235174447
não,5836.308698214138,-6320.380427882723,8752.071410664488,10701.322341122906,-187500.02235174447,-187500.02235174447,-187500.02235174447,-187500.02235174447
não,5901.508736790269,-6264.545770233366,9137.013153673786,10687.844239216356,-187500.02235174447,-187500.02235174447,-187500.02235174447,-187500.02235174447
não,5791.538154070157,-6276.168677350125,8820.423045208818,10732.279507193507,-187500.02235174447,-187500.02235174447,-187500.02235174447,-187500.02235174447
não,5692.519926133147,-6334.171454211647,8340.017001630904,10754.9888795601,-187500.02235174447,-187500.02235174447,-187500.02235174447,-187500.02235174447
não,5801.127052441484,-6331.10926522127,8636.065856941445,10702.998721957056,-187500.02235174447,-187500.02235174447,-187500.02235174447,-187500.02235174447
não,5902.514565290758,-6272.838267426285,9119.13175810954,10680.199942612642,-187500.02235174447,-187500.02235174447,-187500.02235174447,-187500.02235174447
não,5816.795625304655,-6268.9267121466055,8912.266363175675,10719.78488204299,-187500.02235174447,-187500.02235174447,-187500.02235174447,-187500.02235174447
não,5694.2633622006615,-6320.8721662607395,8385.458098108542,10758.587510417403,-187500.02235174447,-187500.02235174447,-187500.02235174447,-187500.02235174447
não,5774.886104450954,-6336.0713524903485,8539.103989494322,10720.723655310114,-187500.02235174447,-187500.02235174447,-187500.02235174447,-187500.02235174447
não,5897.105443132573,-6277.822706439818,9078.451583200882,10678.9705966676,-187500.02235174447,-187500.02235174447,-187500.02235174447,-187500.02235174447
não,5837.403933692448,-6262.489409743477,8988.709329212825,10710.754777283046,-187500.02235174447,-187500.02235174447,-187500.02235174447,-187500.02235174447
não,5708.635533885424,-6313.496090590488,8448.713534917062,10755.882949338311,-187500.02235174447,-187500.02235174447,-187500.02235174447,-187500.02235174447
não,5752.847284418021,-6344.855588061284,8445.897215115692,10730.714885081636,-187500.02235174447,-187500.02235174447,-187500.02235174447,-187500.02235174447
não,5891.741024463299,-6289.400910067668,9010.681094012392,10682.25630310253,-187500.02235174447,-187500.02235174447,-187500.02235174447,-187500.02235174447
não,5860.694451414878,-6261.282415542891,9047.628527597015,10708.676065048703,-187500.02235174447,-187500.02235174447,-187500.02235174447,-187500.02235174447
não,5727.679220161345,-6304.644799786187,8530.789140556948,10754.184216759708,-187500.02235174447,-187500.02235174447,-187500.02235174447,-187500.02235174447
não,5728.886214361932,-6346.084934006326,8375.04218519237,10738.985030530099,-187500.02235174447,-187500.02235174447,-187500.02235174447,-187500.02235174447
não,5876.340672533593,-6298.252200871969,8928.583136628049,10688.8724194613,-187500.02235174447,-187500.02235174447,-187500.02235174447,-187500.02235174447
não,5880.967483635841,-6259.963662620028,9094.99187409781,10699.377739355295,-187500.02235174447,-187500.02235174447,-187500.02235174447,-187500.02235174447
não,5753.1378570959405,-6296.240543870991,8626.409903336753,10743.65654512126,-187500.02235174447,-187500.02235174447,-187500.02235174447,-187500.02235174447
não,5713.731731621234,-6345.593195628309,8335.434894017566,10743.74595209908,-187500.02235174447,-187500.02235174447,-187500.02235174447,-187500.02235174447
não,5866.058870084152,-6312.333799878812,8838.84088263999,10692.269884618509,-187500.02235174447,-187500.02235174447,-187500.02235174447,-187500.02235174447
não,5902.536917035212,-6262.265892298925,9126.038447146231,10694.393300341762,-187500.02235174447,-187500.02235174447,-187500.02235174447,-187500.02235174447
não,5768.001767158719,-6282.158944864148,8727.529195252562,10739.901452052767,-187500.02235174447,-187500.02235174447,-187500.02235174447,-187500.02235174447
não,5694.419824411849,-6340.20642521458,8322.202661300023,10757.84990285038,-187500.02235174447,-187500.02235174447,-187500.02235174447,-187500.02235174447
não,5835.4369801803805,-6324.023762228938,8730.501977265118,10704.965675469122,-187500.02235174447,-187500.02235174447,-187500.02235174447,-187500.02235174447
não,5905.040312414207,-6265.529246989399,9126.351371568606,10688.335977594374,-187500.02235174447,-187500.02235174447,-187500.02235174447,-187500.02235174447
não,5797.215497161806,-6272.547694748366,8820.199527764265,10730.200794959164,-187500.02235174447,-187500.02235174447,-187500.02235174447,-187500.02235174447
não,5694.196306967296,-6328.248241930991,8334.473769005986,10755.279452238019,-187500.02235174447,-187500.02235174447,-187500.02235174447,-187500.02235174447
não,5808.234907178272,-6330.706933821075,8619.682028255706,10710.419501116217,-187500.02235174447,-187500.02235174447,-187500.02235174447,-187500.02235174447
não,5908.996571182796,-6271.228941825502,9107.620609715059,10687.955997938634,-187500.02235174447,-187500.02235174447,-187500.02235174447,-187500.02235174447
não,5822.025933507197,-6266.847999912263,8909.04771197411,10719.69547506517,-187500.02235174447,-187500.02235174447,-187500.02235174447,-187500.02235174447
não,5701.371216937449,-6323.710837806563,8381.747708528961,10758.900434839778,-187500.02235174447,-187500.02235174447,-187500.02235174447,-187500.02235174447
não,5774.90845619541,-6338.35123042479,8515.075864204868,10720.813062287934,-187500.02235174447,-187500.02235174447,-187500.02235174447,-187500.02235174447
não,5899.854707700576,-6278.359148306746,9059.966690536343,10685.720823493102,-187500.02235174447,-187500.02235174447,-187500.02235174447,-187500.02235174447
não,5840.48847442728,-6259.851903897751,8981.288550053663,10710.441852860673,-187500.02235174447,-187500.02235174447,-187500.02235174447,-187500.02235174447
não,5710.446025186304,-6311.216212656047,8449.652308184184,10754.161865015252,-187500.02235174447,-187500.02235174447,-187500.02235174447,-187500.02235174447
não,5750.90268265041,-6344.16268398317,8434.006087065469,10724.724617567614,-187500.02235174447,-187500.02235174447,-187500.02235174447,-187500.02235174447
não,5899.921762933942,-6290.540849034888,9002.366245075018,10674.991986154555,-187500.02235174447,-187500.02235174447,-187500.02235174447,-187500.02235174447
não,5869.25516954126,-6259.516627730922,9051.160103220953,10695.175611397697,-187500.02235174447,-187500.02235174447,-187500.02235174447,-187500.02235174447
não,5730.026153329152,-6299.81682298384,8540.445094161641,10742.717771854135,-187500.02235174447,-187500.02235174447,-187500.02235174447,-187500.02235174447
não,5730.942574851821,-6342.754524082485,8372.427031091098,10730.424312403717,-187500.02235174447,-187500.02235174447,-187500.02235174447,-187500.02235174447
$SILENCE,5891.226934340827,-6302.431977085112,8928.985468028244,10676.690718733158,-187500.02235174447,-187500.02235174447,-187500.02235174447,-187500.02235174447
$SILENCE,5893.327998319626,-6258.28728178588,9098.56815321066,10675.975462910588,-187500.02235174447,-187500.02235174447,-187500.02235174447,-187500.02235174447
$SILENCE,5753.584891985046,-6285.042319898882,8632.310763872954,10726.848033290868,-187500.02235174447,-187500.02235174447,-187500.02235174447,-187500.02235174447
$SILENCE,5710.5801356530355,-6337.859492046773,8333.333830038766,10732.950059527167,-187500.02235174447,-187500.02235174447,-187500.02235174447,-187500.02235174447
$SILENCE,5868.785782907699,-6309.606887055264,8826.055684811556,10676.690718733158,-187500.02235174447,-187500.02235174447,-187500.02235174447,-187500.02235174447
$SILENCE,5912.259925873271,-6258.309633530335,9124.80910120119,10672.82386694239,-187500.02235174447,-187500.02235174447,-187500.02235174447,-187500.02235174447
$SILENCE,5787.827764490577,-6276.9062849171505,8740.962593670201,10716.141547696776,-187500.02235174447,-187500.02235174447,-187500.02235174447,-187500.02235174447
$SILENCE,5710.222507741751,-6338.038306002415,8331.210414315512,10734.849957805867,-187500.02235174447,-187500.02235174447,-187500.02235174447,-187500.02235174447
$SILENCE,5842.522483172713,-6323.353209895278,8727.752712697114,10677.316567577907,-187500.02235174447,-187500.02235174447,-187500.02235174447,-187500.02235174447
$SILENCE,5924.1287021790395,-6266.020985367416,9140.052990919708,10663.860817415813,-187500.02235174447,-187500.02235174447,-187500.02235174447,-187500.02235174447
$SILENCE,5817.846157294054,-6273.017081381927,8844.22765305372,10705.524469080505,-187500.02235174447,-187500.02235174447,-187500.02235174447,-187500.02235174447
$SILENCE,5712.614144398469,-6331.310430921368,8350.857597691727,10731.921879282223,-187500.02235174447,-187500.02235174447,-187500.02235174447,-187500.02235174447
$SILENCE,5823.299982941149,-6334.059695489371,8618.56444103294,10684.78205022598,-187500.02235174447,-187500.02235174447,-187500.02235174447,-187500.02235174447
$SILENCE,5926.989725469319,-6274.514648260432,9111.152185338997,10656.06005860091,-187500.02235174447,-187500.02235174447,-187500.02235174447,-187500.02235174447
$SILENCE,5841.20373024985,-6266.065688856326,8927.174976727365,10690.571152039904,-187500.02235174447,-187500.02235174447,-187500.02235174447,-187500.02235174447
$SILENCE,5717.173900267351,-6319.7545790379745,8404.993522762481,10735.296992694974,-187500.02235174447,-187500.02235174447,-187500.02235174447,-187500.02235174447
$SILENCE,5802.512860597713,-6342.151026982192,8524.553003853918,10701.322341122906,-187500.02235174447,-187500.02235174447,-187500.02235174447,-187500.02235174447
$SILENCE,5930.8789290045415,-6284.327064076312,9071.701356375379,10657.289404545952,-187500.02235174447,-187500.02235174447,-187500.02235174447,-187500.02235174447
$SILENCE,5876.653596955967,-6265.618653967221,9010.16700388992,10681.9210269357,-187500.02235174447,-187500.02235174447,-187500.02235174447,-187500.02235174447
$SILENCE,5739.011554600186,-6312.937296979106,8481.458840544086,10728.524414125015,-187500.02235174447,-187500.02235174447,-187500.02235174447,-187500.02235174447
$SILENCE,5775.824877718077,-6347.82837007384,8453.273290785944,10707.469070848116,-187500.02235174447,-187500.02235174447,-187500.02235174447,-187500.02235174447
$SILENCE,5920.507719577279,-6294.899439203673,9019.957067961344,10659.234006313563,-187500.02235174447,-187500.02235174447,-187500.02235174447,-187500.02235174447
$SILENCE,5897.194850110394,-6263.33877603278,9080.150315779485,10671.371003552795,-187500.02235174447,-187500.02235174447,-187500.02235174447,-187500.02235174447
$SILENCE,5760.37982229946,-6304.667151530642,8569.904693353736,10718.130852953298,-187500.02235174447,-187500.02235174447,-187500.02235174447,-187500.02235174447
$SILENCE,5751.461476261792,-6349.057716018881,8381.993577717969,10719.69547506517,-187500.02235174447,-187500.02235174447,-187500.02235174447,-187500.02235174447
$SILENCE,5909.26479211626,-6306.410587598156,8932.964078541288,10670.342823307852,-187500.02235174447,-187500.02235174447,-187500.02235174447,-187500.02235174447
$SILENCE,5918.250193387294,-6263.562293477332,9124.652638990003,10676.78012571098,-187500.02235174447,-187500.02235174447,-187500.02235174447,-187500.02235174447
$SILENCE,5787.470136579292,-6294.362997336745,8672.789773081515,10721.796539043968,-187500.02235174447,-187500.02235174447,-187500.02235174447,-187500.02235174447
$SILENCE,5740.486769734236,-6346.06258226187,8351.79637095885,10718.086149464387,-187500.02235174447,-187500.02235174447,-187500.02235174447,-187500.02235174447
$SILENCE,5886.086033116107,-6314.971305724538,8841.545443719084,10668.219407584598,-187500.02235174447,-187500.02235174447,-187500.02235174447,-187500.02235174447
$SILENCE,5929.046085959207,-6263.785810921885,9152.637023048046,10670.67809947468,-187500.02235174447,-187500.02235174447,-187500.02235174447,-187500.02235174447
$SILENCE,5798.757767529222,-6280.706081474553,8765.013070704112,10711.268867405519,-187500.02235174447,-187500.02235174447,-187500.02235174447,-187500.02235174447
$SILENCE,5719.789054368622,-6336.0713524903485,8345.873158678194,10735.073475250421,-187500.02235174447,-187500.02235174447,-187500.02235174447,-187500.02235174447
$SILENCE,5852.938396088886,-6323.464968617555,8726.702180707714,10680.35640482383,-187500.02235174447,-187500.02235174447,-187500.02235174447,-187500.02235174447
$SILENCE,5928.375533625547,-6262.511761487933,9139.918880452977,10660.597462725338,-187500.02235174447,-187500.02235174447,-187500.02235174447,-187500.02235174447
$SILENCE,5833.894709812965,-6271.586569736787,8868.635757998914,10706.195021414163,-187500.02235174447,-187500.02235174447,-187500.02235174447,-187500.02235174447
$SILENCE,5727.232185272239,-6329.522291364943,8378.462002094031,10738.873271807823,-187500.02235174447,-187500.02235174447,-187500.02235174447,-187500.02235174447
$SILENCE,5828.262070210228,-6332.897404777695,8628.846243482381,10694.058024174932,-187500.02235174447,-187500.02235174447,-187500.02235174447,-187500.02235174447
$SILENCE,5934.566966839668,-6270.871313914217,9127.983048913842,10664.77723893848,-187500.02235174447,-187500.02235174447,-187500.02235174447,-187500.02235174447
$SILENCE,5854.525369945213,-6263.785810921885,8960.836703877058,10696.78493699848,-187500.02235174447,-187500.02235174447,-187500.02235174447,-187500.02235174447
$SILENCE,5718.1573770233845,-6316.178299925125,8433.603755665274,10736.928670040212,-187500.02235174447,-187500.02235174447,-187500.02235174447,-187500.02235174447
$SILENCE,5787.403081345926,-6336.183111212625,8534.700695836627,10699.154221910741,-187500.02235174447,-187500.02235174447,-187500.02235174447,-187500.02235174447
$SILENCE,5935.371629640059,-6281.846020441773,9084.821830370645,10654.87541614478,-187500.02235174447,-187500.02235174447,-187500.02235174447,-187500.02235174447
$SILENCE,5883.269713314738,-6260.7683254204185,9036.810283280645,10679.238817601065,-187500.02235174447,-187500.02235174447,-187500.02235174447,-187500.02235174447
$SILENCE,5737.335173766038,-6306.991732953994,8507.386864112243,10728.300896680463,-187500.02235174447,-187500.02235174447,-187500.02235174447,-187500.02235174447
$SILENCE,5770.929845682364,-6343.805056071885,8452.490979730008,10711.134756938787,-187500.02235174447,-187500.02235174447,-187500.02235174447,-187500.02235174447
$SILENCE,5933.963469739374,-6295.234715370502,9018.906535971944,10661.737401692559,-187500.02235174447,-187500.02235174447,-187500.02235174447,-187500.02235174447
$SILENCE,5912.17051889545,-6260.477752742499,9089.85097287309,10668.755849451525,-187500.02235174447,-187500.02235174447,-187500.02235174447,-187500.02235174447
$SILENCE,5768.828781703566,-6298.386311338701,8590.043615107968,10713.21346917313,-187500.02235174447,-187500.02235174447,-187500.02235174447,-187500.02235174447
$SILENCE,5754.523665252169,-6342.128675237736,8396.678673825107,10709.480727849093,-187500.02235174447,-187500.02235174447,-187500.02235174447,-187500.02235174447
$SILENCE,5911.298800861693,-6302.923715463128,8945.034020547155,10659.122247591287,-187500.02235174447,-187500.02235174447,-187500.02235174447,-187500.02235174447
$SILENCE,5927.526167336246,-6262.66822369912,9144.456284577403,10658.004660368522,-187500.02235174447,-187500.02235174447,-187500.02235174447,-187500.02235174447
$SILENCE,5789.951180213831,-6292.485450802499,8696.996712326612,10707.424367359206,-187500.02235174447,-187500.02235174447,-187500.02235174447,-187500.02235174447
$SILENCE,5733.3565632529935,-6345.861416561773,8373.52226656941,10715.605105829849,-187500.02235174447,-187500.02235174447,-187500.02235174447,-187500.02235174447
$SILENCE,5875.714823688844,-6317.7652737814515,8847.356897277463,10651.790875409946,-187500.02235174447,-187500.02235174447,-187500.02235174447,-187500.02235174447
$SILENCE,5930.141321437517,-6265.730412689497,9163.567026086692,10639.184491537153,-187500.02235174447,-187500.02235174447,-187500.02235174447,-187500.02235174447
$SILENCE,5821.847119551554,-6286.33872107729,8792.170440217309,10685.273788603996,-187500.02235174447,-187500.02235174447,-187500.02235174447,-187500.02235174447
$SILENCE,5740.2856040341385,-6339.200596714091,8351.371687814199,10703.78103301299,-187500.02235174447,-187500.02235174447,-187500.02235174447,-187500.02235174447
$SILENCE,5874.6419399549895,-6330.01402974296,8728.758541197603,10652.528482976972,-187500.02235174447,-187500.02235174447,-187500.02235174447,-187500.02235174447
$SILENCE,5957.633967117545,-6275.632235483198,9156.705040538913,10633.261279256498,-187500.02235174447,-187500.02235174447,-187500.02235174447,-187500.02235174447
$SILENCE,5854.815942623132,-6281.689558230586,8895.748424023202,10668.241759329052,-187500.02235174447,-187500.02235174447,-187500.02235174447,-187500.02235174447
$SILENCE,5747.460514004292,-6341.212253715069,8391.157792944645,10693.365120096818,-187500.02235174447,-187500.02235174447,-187500.02235174447,-187500.02235174447
$SILENCE,5859.085125814096,-6345.079105505837,8627.728656259616,10647.67815443017,-187500.02235174447,-187500.02235174447,-187500.02235174447,-187500.02235174447
$SILENCE,5975.045976048229,-6286.048148399371,9136.029676917753,10623.582973907349,-187500.02235174447,-187500.02235174447,-187500.02235174447,-187500.02235174447
$SILENCE,5888.12004186154,-6275.565180249832,8980.215666319807,10659.993965625044,-187500.02235174447,-187500.02235174447,-187500.02235174447,-187500.02235174447
$SILENCE,5765.587778757546,-6328.717628564552,8461.05169785639,10700.137698666776,-187500.02235174447,-187500.02235174447,-187500.02235174447,-187500.02235174447
$SILENCE,5828.887919054976,-6349.840027074818,8543.350820940832,10664.151390093732,-187500.02235174447,-187500.02235174447,-187500.02235174447,-187500.02235174447
$SILENCE,5949.4308769024465,-6287.47866004451,9089.761565895267,10620.990171550533,-187500.02235174447,-187500.02235174447,-187500.02235174447,-187500.02235174447
$SILENCE,5909.845937472098,-6267.719717946019,9064.03470802721,10650.114494575799,-187500.02235174447,-187500.02235174447,-187500.02235174447,-187500.02235174447
$SILENCE,5773.455592805814,-6318.368770881745,8542.657916862718,10690.146468895253,-187500.02235174447,-187500.02235174447,-187500.02235174447,-187500.02235174447
$SILENCE,5788.207744146317,-6350.711745108574,8463.420982768654,10666.58773023936,-187500.02235174447,-187500.02235174447,-187500.02235174447,-187500.02235174447
$SILENCE,5941.093676220617,-6297.738110749497,9033.390466378984,10619.269087227474,-187500.02235174447,-187500.02235174447,-187500.02235174447,-187500.02235174447
$SILENCE,5924.4192748569585,-6264.255197555447,9124.719694223368,10633.57420367887,-187500.02235174447,-187500.02235174447,-187500.02235174447,-187500.02235174447
$SILENCE,5791.627561047979,-6311.81970975634,8619.413807322242,10672.35448030883,-187500.02235174447,-187500.02235174447,-187500.02235174447,-187500.02235174447
$SILENCE,5786.061976678608,-6363.586349914832,8404.099452984268,10666.319509305897,-187500.02235174447,-187500.02235174447,-187500.02235174447,-187500.02235174447
$SILENCE,5935.304574406693,-6318.659343559664,8935.981564042755,10610.037816767433,-187500.02235174447,-187500.02235174447,-187500.02235174447,-187500.02235174447
$SILENCE,5949.967318769374,-6274.201723838059,9153.106409681608,10611.58008713485,-187500.02235174447,-187500.02235174447,-187500.02235174447,-187500.02235174447
$SILENCE,5816.43799739337,-6304.667151530642,8718.834366659446,10657.62468071278,-187500.02235174447,-187500.02235174447,-187500.02235174447,-187500.02235174447
$SILENCE,5758.546979254124,-6356.366736455767,8382.485316095986,10663.994927882544,-187500.02235174447,-187500.02235174447,-187500.02235174447,-187500.02235174447
$SILENCE,5913.668085773956,-6328.58351809782,8852.095467101988,10609.52372664496,-187500.02235174447,-187500.02235174447,-187500.02235174447,-187500.02235174447
$SILENCE,5966.976996299863,-6276.347491305768,9186.522267642293,10603.19818296411,-187500.02235174447,-187500.02235174447,-187500.02235174447,-187500.02235174447
$SILENCE,5834.989945291275,-6290.5855525237985,8845.501702487672,10648.169892808188,-187500.02235174447,-187500.02235174447,-187500.02235174447,-187500.02235174447
$SILENCE,5742.811351157588,-6345.168512483659,8391.940104000581,10659.211654569108,-187500.02235174447,-187500.02235174447,-187500.02235174447,-187500.02235174447
$SILENCE,5882.576809236623,-6343.0003932714935,8725.785759185048,10600.918305029667,-187500.02235174447,-187500.02235174447,-187500.02235174447,-187500.02235174447
$SILENCE,5967.222865488871,-6284.8858576876955,9171.09956396813,10589.921246757656,-187500.02235174447,-187500.02235174447,-187500.02235174447,-187500.02235174447
$SILENCE,5863.39901249397,-6286.226962355014,8922.391703413929,10631.67430540017,-187500.02235174447,-187500.02235174447,-187500.02235174447,-187500.02235174447
$SILENCE,5750.5003512502135,-6345.079105505837,8419.343342702789,10661.983270881567,-187500.02235174447,-187500.02235174447,-187500.02235174447,-187500.02235174447
$SILENCE,5855.642957167978,-6354.645652132708,8643.106656444867,10621.683075628647,-187500.02235174447,-187500.02235174447,-187500.02235174447,-187500.02235174447
$SILENCE,5973.369595214081,-6295.905267704162,9170.697232567934,10594.324540415351,-187500.02235174447,-187500.02235174447,-187500.02235174447,-187500.02235174447
$SILENCE,5887.740062205799,-6283.321235575823,9006.948352688356,10620.230212239054,-187500.02235174447,-187500.02235174447,-187500.02235174447,-187500.02235174447
$SILENCE,5750.813275672588,-6333.947936767094,8468.338366548822,10664.531369749471,-187500.02235174447,-187500.02235174447,-187500.02235174447,-187500.02235174447
$SILENCE,5816.5944596045565,-6357.216102745069,8538.54519588294,10624.141767518731,-187500.02235174447,-187500.02235174447,-187500.02235174447,-187500.02235174447
$SILENCE,5949.944967024919,-6299.302732861368,9079.144487278996,10571.883388982224,-187500.02235174447,-187500.02235174447,-187500.02235174447,-187500.02235174447
$SILENCE,5903.4086350689695,-6279.230866340503,9060.726649847824,10601.790023063424,-187500.02235174447,-187500.02235174447,-187500.02235174447,-187500.02235174447
$SILENCE,5767.33121482506,-6326.504805863477,8553.16323675671,10654.182512066665,-187500.02235174447,-187500.02235174447,-187500.02235174447,-187500.02235174447
$SILENCE,5787.29132262365,-6362.558169669887,8477.077898630845,10632.523671689472,-187500.02235174447,-187500.02235174447,-187500.02235174447,-187500.02235174447
$SILENCE,5942.457132632391,-6313.339628379301,9042.822902539123,10585.42854612214,-187500.02235174447,-187500.02235174447,-187500.02235174447,-187500.02235174447
$SILENCE,5920.88769923302,-6276.302787816857,9140.231804875351,10602.23705795253,-187500.02235174447,-187500.02235174447,-187500.02235174447,-187500.02235174447
$SILENCE,5785.257313878216,-6316.4688726030445,8628.980353949113,10643.185453794653,-187500.02235174447,-187500.02235174447,-187500.02235174447,-187500.02235174447
$SILENCE,5766.392441557938,-6362.848742347806,8405.798185562871,10640.190320037642,-187500.02235174447,-187500.02235174447,-187500.02235174447,-187500.02235174447
$SILENCE,5927.481463847335,-6323.10734070627,8942.620032145982,10589.831839779836,-187500.02235174447,-187500.02235174447,-187500.02235174447,-187500.02235174447
$SILENCE,5945.340507667125,-6276.928636661606,9168.596168589136,10591.57527584735,-187500.02235174447,-187500.02235174447,-187500.02235174447,-187500.02235174447
$SILENCE,5809.866584523509,-6303.281343374413,8737.699238979727,10641.039686326943,-187500.02235174447,-187500.02235174447,-187500.02235174447,-187500.02235174447
$SILENCE,5751.014441372686,-6359.607739401787,8378.193781160568,10642.693715416637,-187500.02235174447,-187500.02235174447,-187500.02235174447,-187500.02235174447
$SILENCE,5890.288161073704,-6332.740942566507,8831.88949011439,10585.920284500156,-187500.02235174447,-187500.02235174447,-187500.02235174447,-187500.02235174447
$SILENCE,5947.061591990184,-6280.393157052178,9176.978072759875,10581.740508287014,-187500.02235174447,-187500.02235174447,-187500.02235174447,-187500.02235174447
$SILENCE,5828.306773699138,-6293.357168836256,8832.157711047854,10627.159253020198,-187500.02235174447,-187500.02235174447,-187500.02235174447,-187500.02235174447
$SILENCE,5734.116522564474,-6349.147122996703,8391.761290044939,10650.114494575799,-187500.02235174447,-187500.02235174447,-187500.02235174447,-187500.02235174447
$SILENCE,5858.906311858454,-6340.429942659133,8734.525291267073,10598.101985228299,-187500.02235174447,-187500.02235174447,-187500.02235174447,-187500.02235174447
$SILENCE,5947.352164668103,-6283.544753020376,9168.730279055868,10578.655967552182,-187500.02235174447,-187500.02235174447,-187500.02235174447,-187500.02235174447
$SILENCE,5844.690602384878,-6287.568067022332,8928.739598839236,10622.91242157369,-187500.02235174447,-187500.02235174447,-187500.02235174447,-187500.02235174447
$SILENCE,5725.064066060075,-6341.30166069289,8427.077046284325,10657.222349312586,-187500.02235174447,-187500.02235174447,-187500.02235174447,-187500.02235174447
$SILENCE,5825.065770753118,-6350.242358475013,8623.32536260192,10615.245773225519,-187500.02235174447,-187500.02235174447,-187500.02235174447,-187500.02235174447
$SILENCE,5949.162655968983,-6291.4349188131,9132.587508271636,10579.281816396931,-187500.02235174447,-187500.02235174447,-187500.02235174447,-187500.02235174447
$SILENCE,5874.776050421721,-6279.744956462974,9001.807451463634,10608.115566744276,-187500.02235174447,-187500.02235174447,-187500.02235174447,-187500.02235174447
$SILENCE,5740.218548800773,-6331.757465810474,8474.619206740763,10648.862796886302,-187500.02235174447,-187500.02235174447,-187500.02235174447,-187500.02235174447
$SILENCE,5788.565372057602,-6354.355079454789,8527.436378888653,10618.509127915995,-187500.02235174447,-187500.02235174447,-187500.02235174447,-187500.02235174447
$SILENCE,5928.263774903271,-6295.793508981885,9089.873324617545,10581.271121653454,-187500.02235174447,-187500.02235174447,-187500.02235174447,-187500.02235174447
$SILENCE,5887.136565105506,-6274.402889538156,9076.506981433271,10606.841517310324,-187500.02235174447,-187500.02235174447,-187500.02235174447,-187500.02235174447
$SILENCE,5741.85022614601,-6320.380427882723,8553.78908560146,10653.042573099443,-187500.02235174447,-187500.02235174447,-187500.02235174447,-187500.02235174447
$SILENCE,5748.309880293594,-6353.639823632219,8453.630918697228,10633.976535079068,-187500.02235174447,-187500.02235174447,-187500.02235174447,-187500.02235174447
$SILENCE,5904.727387991833,-6304.5553928083655,9005.49548929876,10583.305130398885,-187500.02235174447,-187500.02235174447,-187500.02235174447,-187500.02235174447
$SILENCE,5901.173460623439,-6272.950026148561,9124.18325235644,10604.069900997865,-187500.02235174447,-187500.02235174447,-187500.02235174447,-187500.02235174447
$SILENCE,5761.251540333216,-6311.551488822876,8640.33504013241,10651.902634132222,-187500.02235174447,-187500.02235174447,-187500.02235174447,-187500.02235174447
$SILENCE,5737.7598569106885,-6360.322995224356,8398.511516870441,10644.839482884347,-187500.02235174447,-187500.02235174447,-187500.02235174447,-187500.02235174447
$SILENCE,5893.327998319626,-6322.213270928058,8921.0058952577,10591.552924102894,-187500.02235174447,-187500.02235174447,-187500.02235174447,-187500.02235174447
$SILENCE,5918.294896876204,-6275.945159905572,9161.130685941063,10592.402290392196,-187500.02235174447,-187500.02235174447,-187500.02235174447,-187500.02235174447
$SILENCE,5785.413776089404,-6302.364921851746,8737.341611068441,10639.564471192894,-187500.02235174447,-187500.02235174447,-187500.02235174447,-187500.02235174447
$SILENCE,5723.253574759195,-6356.8584748337835,8374.282225880888,10650.136846320254,-187500.02235174447,-187500.02235174447,-187500.02235174447,-187500.02235174447
$SILENCE,5866.908236373453,-6330.483416376522,8817.69613238527,10595.263313682475,-187500.02235174447,-187500.02235174447,-187500.02235174447,-187500.02235174447
$SILENCE,5929.4707691038575,-6276.839229683785,9174.966415758898,10587.708424056582,-187500.02235174447,-187500.02235174447,-187500.02235174447,-187500.02235174447
$SILENCE,5810.470081623803,-6290.742014734986,8838.684420428805,10633.373037978774,-187500.02235174447,-187500.02235174447,-187500.02235174447,-187500.02235174447
$SILENCE,5714.402283954893,-6346.911948551172,8383.759365529939,10658.898730146735,-187500.02235174447,-187500.02235174447,-187500.02235174447,-187500.02235174447
$SILENCE,5837.470988925814,-6340.675811848141,8711.994732856123,10607.534421388438,-187500.02235174447,-187500.02235174447,-187500.02235174447,-187500.02235174447
$SILENCE,5929.068437703662,-6280.14728786317,9165.310462154206,10583.908627499179,-187500.02235174447,-187500.02235174447,-187500.02235174447,-187500.02235174447
$SILENCE,5829.983154533285,-6282.360110564246,8929.477206406262,10623.62767739626,-187500.02235174447,-187500.02235174447,-187500.02235174447,-187500.02235174447
$SILENCE,5718.716170634767,-6341.256957203979,8424.66305788315,10660.150427836232,-187500.02235174447,-187500.02235174447,-187500.02235174447,-187500.02235174447
$SILENCE,5810.62654383499,-6350.599986386298,8618.542089288485,10623.091235529333,-187500.02235174447,-187500.02235174447,-187500.02235174447,-187500.02235174447
$SILENCE,5931.46007436038,-6290.183221123603,9133.079246649653,10583.975682732545,-187500.02235174447,-187500.02235174447,-187500.02235174447,-187500.02235174447
$SILENCE,5857.58755893559,-6275.4981250164665,9005.249620109751,10611.222459223563,-187500.02235174447,-187500.02235174447,-187500.02235174447,-187500.02235174447
$SILENCE,5718.671467145857,-6326.01306748546,8475.423869541153,10660.977442381078,-187500.02235174447,-187500.02235174447,-187500.02235174447,-187500.02235174447
$SILENCE,5768.895836936932,-6350.823503830851,8516.640486316739,10632.747189134025,-187500.02235174447,-187500.02235174447,-187500.02235174447,-187500.02235174447
$SILENCE,5906.292010103704,-6293.714796747541,9078.362176223061,10589.943598502112,-187500.02235174447,-187500.02235174447,-187500.02235174447,-187500.02235174447
$SILENCE,5871.557399220157,-6271.184238336592,9085.402975726483,10615.156366247698,-187500.02235174447,-187500.02235174447,-187500.02235174447,-187500.02235174447
$SILENCE,5731.858996374488,-6315.910078991661,8564.942606084658,10662.072677859387,-187500.02235174447,-187500.02235174447,-187500.02235174447,-187500.02235174447
$SILENCE,5746.141761081429,-6354.846817832807,8444.064372070357,10642.716067161093,-187500.02235174447,-187500.02235174447,-187500.02235174447,-187500.02235174447
$SILENCE,5907.253135115282,-6307.237602143002,9004.64612300946,10596.559714860883,-187500.02235174447,-187500.02235174447,-187500.02235174447,-187500.02235174447
$SILENCE,5896.524297776735,-6269.641967969176,9136.52141529577,10611.848308068313,-187500.02235174447,-187500.02235174447,-187500.02235174447,-187500.02235174447
$SILENCE,5748.242825060228,-6302.722549763031,8650.348621648387,10658.205826068619,-187500.02235174447,-187500.02235174447,-187500.02235174447,-187500.02235174447
$SILENCE,5722.404208469893,-6353.237492232024,8395.203458691056,10653.042573099443,-187500.02235174447,-187500.02235174447,-187500.02235174447,-187500.02235174447
$SILENCE,5878.5758469791235,-6316.312410391857,8910.925258508356,10598.280799183942,-187500.02235174447,-187500.02235174447,-187500.02235174447,-187500.02235174447
$SILENCE,5903.386283324514,-6267.250331312458,9160.95187198542,10599.264275939975,-187500.02235174447,-187500.02235174447,-187500.02235174447,-187500.02235174447
$SILENCE,5768.448802047826,-6290.384386823701,8754.239529876653,10651.34384052084,-187500.02235174447,-187500.02235174447,-187500.02235174447,-187500.02235174447
$SILENCE,5694.732748834223,-6343.022745015949,8377.94791197156,10663.346727293341,-187500.02235174447,-187500.02235174447,-187500.02235174447,-187500.02235174447
$SILENCE,5842.947166317364,-6324.113169206759,8802.586353133483,10606.014502765478,-187500.02235174447,-187500.02235174447,-187500.02235174447,-187500.02235174447
$SILENCE,5921.714713777866,-6271.161886592136,9173.111220969107,10599.219572451064,-187500.02235174447,-187500.02235174447,-187500.02235174447,-187500.02235174447
$SILENCE,5802.2669914087055,-6282.516572775433,8854.509455503161,10642.805474138913,-187500.02235174447,-187500.02235174447,-187500.02235174447,-187500.02235174447
$SILENCE,5689.725958076234,-6337.457160646577,8381.099507939758,10665.201922083132,-187500.02235174447,-187500.02235174447,-187500.02235174447,-187500.02235174447
$SILENCE,5810.023046734696,-6332.4950733774995,8695.454441959197,10623.381808207252,-187500.02235174447,-187500.02235174447,-187500.02235174447,-187500.02235174447
$SILENCE,5914.003361940785,-6274.425241282612,9163.745840042335,10605.634523109738,-187500.02235174447,-187500.02235174447,-187500.02235174447,-187500.02235174447
$SILENCE,5822.920003285409,-6274.380537793701,8941.703610623314,10642.291384016442,-187500.02235174447,-187500.02235174447,-187500.02235174447,-187500.02235174447
$SILENCE,5700.410091925871,-6325.230756429524,8452.602738452284,10673.337957064863,-187500.02235174447,-187500.02235174447,-187500.02235174447,-187500.02235174447
$SILENCE,5778.95412194182,-6334.529082122932,8607.835603694391,10637.284593258453,-187500.02235174447,-187500.02235174447,-187500.02235174447,-187500.02235174447
$SILENCE,5909.935344449919,-6278.873238429218,9127.04427564672,10596.805584049891,-187500.02235174447,-187500.02235174447,-187500.02235174447,-187500.02235174447
$SILENCE,5840.801398849654,-6262.221188810014,9018.168928404919,10628.209785009598,-187500.02235174447,-187500.02235174447,-187500.02235174447,-187500.02235174447
$SILENCE,5699.4266151698375,-6316.692390047597,8482.375262066753,10678.68002398968,-187500.02235174447,-187500.02235174447,-187500.02235174447,-187500.02235174447
$SILENCE,5746.812313415088,-6338.440637402611,8512.572468825874,10648.102837574821,-187500.02235174447,-187500.02235174447,-187500.02235174447,-187500.02235174447
$SILENCE,5893.26094308626,-6291.010235668449,9038.039629225686,10604.472232398062,-187500.02235174447,-187500.02235174447,-187500.02235174447,-187500.02235174447
$SILENCE,5862.862570627042,-6263.562293477332,9067.678042373425,10629.036799554444,-187500.02235174447,-187500.02235174447,-187500.02235174447,-187500.02235174447
$SILENCE,5722.247746258706,-6306.097663175781,8562.88624559477,10680.423460057194,-187500.02235174447,-187500.02235174447,-187500.02235174447,-187500.02235174447
$SILENCE,5730.942574851821,-6343.849759560795,8433.134369031712,10666.67713721718,-187500.02235174447,-187500.02235174447,-187500.02235174447,-187500.02235174447
$SILENCE,5886.533068005213,-6296.754633993463,8977.667567451903,10610.127223745254,-187500.02235174447,-187500.02235174447,-187500.02235174447,-187500.02235174447
$SILENCE,5880.431041768914,-6259.918959131117,9115.622534230059,10618.822052338368,-187500.02235174447,-187500.02235174447,-187500.02235174447,-187500.02235174447
$SILENCE,5731.344906252016,-6290.697311246075,8637.630479053316,10666.87830291728,-187500.02235174447,-187500.02235174447,-187500.02235174447,-187500.02235174447
$SILENCE,5700.834775070522,-6342.3968961712,8377.143249171168,10668.174704095687,-187500.02235174447,-187500.02235174447,-187500.02235174447,-187500.02235174447
$SILENCE,5870.193942808383,-6311.797358011885,8898.989426969221,10628.120378031777,-187500.02235174447,-187500.02235174447,-187500.02235174447,-187500.02235174447
$SILENCE,5900.838184456609,-6264.299901044357,9163.790543531244,10628.790930365436,-187500.02235174447,-187500.02235174447,-187500.02235174447,-187500.02235174447
$SILENCE,5756.490618764236,-6285.556410021354,8755.625338032882,10677.607140255826,-187500.02235174447,-187500.02235174447,-187500.02235174447,-187500.02235174447
$SILENCE,5679.801783538078,-6338.977079269538,8365.900321710149,10696.740233509568,-187500.02235174447,-187500.02235174447,-187500.02235174447,-187500.02235174447
$SILENCE,5831.2125004783275,-6318.212308670558,8790.248190194154,10643.96776485059,-187500.02235174447,-187500.02235174447,-187500.02235174447,-187500.02235174447
$SILENCE,5908.393074082503,-6265.842171411774,9168.037374977754,10626.376941964263,-187500.02235174447,-187500.02235174447,-187500.02235174447,-187500.02235174447
$SILENCE,5783.491526066247,-6274.827572682807,8845.725219932225,10666.87830291728,-187500.02235174447,-187500.02235174447,-187500.02235174447,-187500.02235174447
$SILENCE,5680.897019016388,-6331.221023943547,8380.585417817285,10699.802422499946,-187500.02235174447,-187500.02235174447,-187500.02235174447,-187500.02235174447
$SILENCE,5808.570183345102,-6330.192843698603,8672.56625563696,10656.708259190114,-187500.02235174447,-187500.02235174447,-187500.02235174447,-187500.02235174447
$SILENCE,5911.0976351615955,-6272.279473814902,9141.729371753856,10634.602383923815,-187500.02235174447,-187500.02235174447,-187500.02235174447,-187500.02235174447
$SILENCE,5818.963744516819,-6271.363052292234,8937.747351854725,10678.232989100576,-187500.02235174447,-187500.02235174447,-187500.02235174447,-187500.02235174447
$SILENCE,5694.464527900759,-6326.817730285851,8427.412322451153,10717.63911457528,-187500.02235174447,-187500.02235174447,-187500.02235174447,-187500.02235174447
$SILENCE,5754.791886185633,-6331.980983255027,8573.190399788666,10675.662538488215,-187500.02235174447,-187500.02235174447,-187500.02235174447,-187500.02235174447
$SILENCE,5886.957751149864,-6273.642930226676,9099.685740433424,10645.174759051175,-187500.02235174447,-187500.02235174447,-187500.02235174447,-187500.02235174447
$SILENCE,5833.045343523663,-6262.332947532291,9013.586820791581,10669.292291318452,-187500.02235174447,-187500.02235174447,-187500.02235174447,-187500.02235174447
$SILENCE,5697.705530846779,-6314.188994668602,8477.34611956431,10714.331056395897,-187500.02235174447,-187500.02235174447,-187500.02235174447,-187500.02235174447
$SILENCE,5741.023211601164,-6340.608756614775,8471.020575883458,10686.54783803795,-187500.02235174447,-187500.02235174447,-187500.02235174447,-187500.02235174447
$SILENCE,5880.319283046638,-6284.1258983762145,9041.615908338537,10642.984288094556,-187500.02235174447,-187500.02235174447,-187500.02235174447,-187500.02235174447
$SILENCE,5844.042401795674,-6252.386421249678,9092.264961274263,10672.153314608731,-187500.02235174447,-187500.02235174447,-187500.02235174447,-187500.02235174447
$SILENCE,5714.983429310731,-6301.940238707094,8553.744382112549,10722.847071033368,-187500.02235174447,-187500.02235174447,-187500.02235174447,-187500.02235174447
não,5725.131121293441,-6341.838102559817,8439.236395268012,10710.777129027501,-187500.02235174447,-187500.02235174447,-187500.02235174447,-187500.02235174447
não,5876.45243125587,-6304.108357919259,8957.752163142224,10672.086259375366,-187500.02235174447,-187500.02235174447,-187500.02235174447,-187500.02235174447
não,5874.239608554793,-6260.902435887151,9113.23089757334,10679.708204234625,-187500.02235174447,-187500.02235174447,-187500.02235174447,-187500.02235174447
não,5718.760874123678,-6286.629293755209,8640.51385408805,10720.097806465365,-187500.02235174447,-187500.02235174447,-187500.02235174447,-187500.02235174447
não,5678.259513170661,-6339.11118973627,8357.89839719515,10719.874289020812,-187500.02235174447,-187500.02235174447,-187500.02235174447,-187500.02235174447
não,5846.612852408034,-6307.4387678431,8862.824304440535,10677.96476816711,-187500.02235174447,-187500.02235174447,-187500.02235174447,-187500.02235174447
não,5888.12004186154,-6259.024889352905,9145.66327877799,10682.30100659144,-187500.02235174447,-187500.02235174447,-187500.02235174447,-187500.02235174447
não,5759.731621710256,-6285.57876176581,8755.088896165955,10723.607030344849,-187500.02235174447,-187500.02235174447,-187500.02235174447,-187500.02235174447
não,5684.003911495675,-6338.194768213602,8351.595205258753,10734.894661294778,-187500.02235174447,-187500.02235174447,-187500.02235174447,-187500.02235174447
não,5822.048285251652,-6316.848852258784,8755.155951399322,10688.179515383186,-187500.02235174447,-187500.02235174447,-187500.02235174447,-187500.02235174447
não,5889.371739551037,-6260.477752742499,9143.606918288102,10688.090108405366,-187500.02235174447,-187500.02235174447,-187500.02235174447,-187500.02235174447
não,5786.218438889795,-6279.141459362681,8843.758266420158,10724.948135012166,-187500.02235174447,-187500.02235174447,-187500.02235174447,-187500.02235174447
não,5684.965036507254,-6333.523253622443,8368.202551389046,10745.489388166594,-187500.02235174447,-187500.02235174447,-187500.02235174447,-187500.02235174447
não,5803.786910031666,-6331.221023943547,8654.975432750634,10696.06968117591,-187500.02235174447,-187500.02235174447,-187500.02235174447,-187500.02235174447
não,5905.196774625394,-6271.474811014511,9130.531147781749,10672.53329426447,-187500.02235174447,-187500.02235174447,-187500.02235174447,-187500.02235174447
não,5822.160043973929,-6270.491334258478,8936.942689054333,10723.718789067125,-187500.02235174447,-187500.02235174447,-187500.02235174447,-187500.02235174447
não,5690.061234243064,-6322.660305817164,8416.392912434687,10765.360088987361,-187500.02235174447,-187500.02235174447,-187500.02235174447,-187500.02235174447
não,5768.135877625451,-6336.294869934902,8546.211844231111,10729.060855991944,-187500.02235174447,-187500.02235174447,-187500.02235174447,-187500.02235174447
não,5903.945076935897,-6278.135630862193,9080.843219857601,10682.725689736091,-187500.02235174447,-187500.02235174447,-187500.02235174447,-187500.02235174447
não,5848.870378598021,-6265.104563844749,9013.720931258313,10711.537088338982,-187500.02235174447,-187500.02235174447,-187500.02235174447,-187500.02235174447
não,5716.615106655969,-6317.407645870167,8490.1536691372,10765.13657154281,-187500.02235174447,-187500.02235174447,-187500.02235174447,-187500.02235174447
não,5738.251595288706,-6338.574747869343,8462.638671712717,10744.416504432738,-187500.02235174447,-187500.02235174447,-187500.02235174447,-187500.02235174447
não,5875.178381821916,-6278.873238429218,9009.407044578438,10691.800497984947,-187500.02235174447,-187500.02235174447,-187500.02235174447,-187500.02235174447
não,5862.393183993481,-6260.09777308676,9060.726649847824,10698.684835277181,-187500.02235174447,-187500.02235174447,-187500.02235174447,-187500.02235174447
não,5734.764723153678,-6304.980075953016,8561.031050804979,10750.02679229102,-187500.02235174447,-187500.02235174447,-187500.02235174447,-187500.02235174447
não,5727.813330628077,-6348.320108451857,8397.684502325596,10739.812045074947,-187500.02235174447,-187500.02235174447,-187500.02235174447,-187500.02235174447
não,5884.677873215423,-6306.589401553799,8950.778418872169,10687.933646194178,-187500.02235174447,-187500.02235174447,-187500.02235174447,-187500.02235174447
não,5891.048120385185,-6267.6303109681985,9127.826586702657,10702.127003923299,-187500.02235174447,-187500.02235174447,-187500.02235174447,-187500.02235174447
não,5749.405115771904,-6301.113224162248,8659.043450241501,10741.443722420183,-187500.02235174447,-187500.02235174447,-187500.02235174447,-187500.02235174447
não,5711.340094964516,-6350.935262553127,8366.41441183262,10744.662373621748,-187500.02235174447,-187500.02235174447,-187500.02235174447,-187500.02235174447
não,5872.786745165199,-6318.502881348477,8859.158618349866,10685.49730604855,-187500.02235174447,-187500.02235174447,-187500.02235174447,-187500.02235174447
não,5915.836204986121,-6270.6254447252095,9148.457246834903,10681.697509491147,-187500.02235174447,-187500.02235174447,-187500.02235174447,-187500.02235174447
não,5787.917171468398,-6292.440747313589,8756.765277000104,10723.830547789401,-187500.02235174447,-187500.02235174447,-187500.02235174447,-187500.02235174447
não,5707.160318751374,-6346.531968895432,8347.393077301154,10735.878138050812,-187500.02235174447,-187500.02235174447,-187500.02235174447,-187500.02235174447
não,5843.327145973104,-6327.264765174958,8743.644803004838,10680.35640482383,-187500.02235174447,-187500.02235174447,-187500.02235174447,-187500.02235174447
não,5936.533920351734,-6278.6720727291195,9159.275491151273,10675.886055932768,-187500.02235174447,-187500.02235174447,-187500.02235174447,-187500.02235174447
não,5840.3096604716375,-6292.396043824679,8885.690139018314,10724.344637911874,-187500.02235174447,-187500.02235174447,-187500.02235174447,-187500.02235174447
não,5728.930917850843,-6347.8730735627505,8395.85165928026,10750.049144035476,-187500.02235174447,-187500.02235174447,-187500.02235174447,-187500.02235174447
não,5821.4671398958135,-6344.833236316828,8638.926880231724,10695.332073608884,-187500.02235174447,-187500.02235174447,-187500.02235174447,-187500.02235174447
não,5929.31430689267,-6284.304712331857,9114.66140921848,10655.791837667446,-187500.02235174447,-187500.02235174447,-187500.02235174447,-187500.02235174447
não,5853.407782722447,-6285.735223976997,8946.933918825856,10693.096899163354,-187500.02235174447,-187500.02235174447,-187500.02235174447,-187500.02235174447
não,5736.329345265549,-6344.252090960991,8442.656212169673,10737.21924271813,-187500.02235174447,-187500.02235174447,-187500.02235174447,-187500.02235174447
não,5814.895727025953,-6357.596082400809,8574.062117822423,10698.416614343718,-187500.02235174447,-187500.02235174447,-187500.02235174447,-187500.02235174447
não,5953.342432182126,-6301.023817184427,9103.977275368843,10645.308869517907,-187500.02235174447,-187500.02235174447,-187500.02235174447,-187500.02235174447
não,5878.35232953457,-6280.48256403,9023.198070907363,10678.724727478591,-187500.02235174447,-187500.02235174447,-187500.02235174447,-187500.02235174447
não,5747.818141915577,-6332.6738873331415,8511.745454281026,10740.750818342069,-187500.02235174447,-187500.02235174447,-187500.02235174447,-187500.02235174447
não,5783.156249899417,-6359.7865533574295,8470.908817161182,10704.988027213578,-187500.02235174447,-187500.02235174447,-187500.02235174447,-187500.02235174447
não,5940.490179120324,-6306.455291087066,9033.636335567991,10658.33993653535,-187500.02235174447,-187500.02235174447,-187500.02235174447,-187500.02235174447
não,5915.366818352559,-6278.448555284567,9092.332016507627,10674.746116965547,-187500.02235174447,-187500.02235174447,-187500.02235174447,-187500.02235174447
não,5775.511953295702,-6322.705009306074,8598.693740212171,10724.076416978409,-187500.02235174447,-187500.02235174447,-187500.02235174447,-187500.02235174447
não,5758.859903676499,-6361.64174814722,8412.369598432731,10708.474899348605,-187500.02235174447,-187500.02235174447,-187500.02235174447,-187500.02235174447
não,5915.009190441274,-6315.910078991661,8961.507256210716,10653.690773688648,-187500.02235174447,-187500.02235174447,-187500.02235174447,-187500.02235174447
não,5926.877966747042,-6278.403851795656,9144.500988066315,10658.004660368522,-187500.02235174447,-187500.02235174447,-187500.02235174447,-187500.02235174447
não,5795.628523305479,-6314.412512113156,8703.255200774098,10709.726597038103,-187500.02235174447,-187500.02235174447,-187500.02235174447,-187500.02235174447
não,5747.996955871219,-6364.055736548393,8389.593170832773,10712.431158117195,-187500.02235174447,-187500.02235174447,-187500.02235174447,-187500.02235174447
não,5900.726425734333,-6331.221023943547,8863.18193235182,10652.193206810141,-187500.02235174447,-187500.02235174447,-187500.02235174447,-187500.02235174447
não,5942.5018361213015,-6280.437860541089,9170.138438956552,10642.20197703862,-187500.02235174447,-187500.02235174447,-187500.02235174447,-187500.02235174447
não,5810.738302557266,-6299.302732861368,8788.236533193176,10692.538105551972,-187500.02235174447,-187500.02235174447,-187500.02235174447,-187500.02235174447
não,5733.401266741904,-6355.360907955278,8376.94208347107,10716.45447211915,-187500.02235174447,-187500.02235174447,-187500.02235174447,-187500.02235174447
não,5883.604989481568,-6344.7661810834625,8772.299739396542,10669.471105274095,-187500.02235174447,-187500.02235174447,-187500.02235174447,-187500.02235174447
não,5951.151961225505,-6285.24348559898,9167.09860171063,10637.731628147558,-187500.02235174447,-187500.02235174447,-187500.02235174447,-187500.02235174447
não,5844.601195407056,-6295.346474092779,8884.013758184166,10675.01433789901,-187500.02235174447,-187500.02235174447,-187500.02235174447,-187500.02235174447
não,5745.381801769949,-6354.578596899342,8409.352112931265,10711.40297787225,-187500.02235174447,-187500.02235174447,-187500.02235174447,-187500.02235174447
não,5850.591462921079,-6354.1539137546915,8659.378726408331,10665.44779127214,-187500.02235174447,-187500.02235174447,-187500.02235174447,-187500.02235174447
não,5966.664071877489,-6296.084081659804,9147.47377007887,10632.546023433928,-187500.02235174447,-187500.02235174447,-187500.02235174447,-187500.02235174447
não,5876.430079511414,-6291.591381024287,8970.000919103733,10663.324375548886,-187500.02235174447,-187500.02235174447,-187500.02235174447,-187500.02235174447
não,5747.080534348552,-6344.632070616731,8452.938014619114,10707.826698759402,-187500.02235174447,-187500.02235174447,-187500.02235174447,-187500.02235174447
não,5825.445750408859,-6359.83125684634,8565.769620629504,10676.958939666622,-187500.02235174447,-187500.02235174447,-187500.02235174447,-187500.02235174447
não,5957.32104269517,-6302.119052662737,9105.296028291707,10630.690828644138,-187500.02235174447,-187500.02235174447,-187500.02235174447,-187500.02235174447
não,5897.351312321582,-6283.701215231564,9050.757771820758,10657.356459779317,-187500.02235174447,-187500.02235174447,-187500.02235174447,-187500.02235174447
não,5748.779266927156,-6331.578651854832,8526.83288178836,10705.233896402586,-187500.02235174447,-187500.02235174447,-187500.02235174447,-187500.02235174447
não,5782.083366165562,-6364.569826670865,8480.542419021418,10681.250474602042,-187500.02235174447,-187500.02235174447,-187500.02235174447,-187500.02235174447
não,5944.401734400003,-6312.177337667625,9040.78889379369,10632.478968200561,-187500.02235174447,-187500.02235174447,-187500.02235174447,-187500.02235174447
não,5925.201585912894,-6282.874200686718,9110.816909172167,10649.063962586399,-187500.02235174447,-187500.02235174447,-187500.02235174447,-187500.02235174447
não,5779.356453342015,-6322.9285267506275,8615.681065998206,10698.818945743913,-187500.02235174447,-187500.02235174447,-187500.02235174447,-187500.02235174447
não,5763.5314182676575,-6365.173323771158,8417.242278723988,10688.626550272293,-187500.02235174447,-187500.02235174447,-187500.02235174447,-187500.02235174447
não,5924.195757412405,-6322.816768028351,8954.645270662937,10634.9600118351,-187500.02235174447,-187500.02235174447,-187500.02235174447,-187500.02235174447
não,5939.149074453006,-6280.86254368574,9154.04518294873,10639.899747359723,-187500.02235174447,-187500.02235174447,-187500.02235174447,-187500.02235174447
não,5799.607133818524,-6313.026703956927,8714.609886957394,10688.470088061105,-187500.02235174447,-187500.02235174447,-187500.02235174447,-187500.02235174447
não,5746.90172039291,-6364.860399348784,8395.561086602342,10693.87921021929,-187500.02235174447,-187500.02235174447,-187500.02235174447,-187500.02235174447
não,5904.861498458565,-6336.406628657178,8865.551217264083,10637.664572914193,-187500.02235174447,-187500.02235174447,-187500.02235174447,-187500.02235174447
não,5949.095600735617,-6283.902380931661,9176.754555315323,10629.014447809988,-187500.02235174447,-187500.02235174447,-187500.02235174447,-187500.02235174447
não,5819.187261961372,-6303.549564307877,8812.868155582924,10676.511904777517,-187500.02235174447,-187500.02235174447,-187500.02235174447,-187500.02235174447
não,5740.844397645521,-6359.07129753486,8393.03533947889,10699.936532966678,-187500.02235174447,-187500.02235174447,-187500.02235174447,-187500.02235174447
não,5875.625416711023,-6344.408553172178,8758.642823534348,10647.655802685715,-187500.02235174447,-187500.02235174447,-187500.02235174447,-187500.02235174447
não,5961.299653208215,-6288.5291920339105,9176.016947748298,10626.622811153271,-187500.02235174447,-187500.02235174447,-187500.02235174447,-187500.02235174447
não,5854.324204245116,-6296.799337482374,8911.349941653007,10665.11251510531,-187500.02235174447,-187500.02235174447,-187500.02235174447,-187500.02235174447
não,5738.832740644543,-6352.254015475991,8423.791339849395,10698.93070446619,-187500.02235174447,-187500.02235174447,-187500.02235174447,-187500.02235174447
não,5845.271747740716,-6354.578596899342,8658.350546163387,10650.58388120936,-187500.02235174447,-187500.02235174447,-187500.02235174447,-187500.02235174447
não,5963.13249625355,-6294.3406455922905,9155.363935871594,10614.821090080868,-187500.02235174447,-187500.02235174447,-187500.02235174447,-187500.02235174447
não,5884.230838326316,-6288.7080059895525,8998.052358395144,10649.667459686692,-187500.02235174447,-187500.02235174447,-187500.02235174447,-187500.02235174447
não,5746.700554692812,-6341.569881626354,8480.162439365678,10693.990968941567,-187500.02235174447,-187500.02235174447,-187500.02235174447,-187500.02235174447
não,5806.714988555311,-6358.825428345851,8568.384774730775,10662.184436581665,-187500.02235174447,-187500.02235174447,-187500.02235174447,-187500.02235174447
não,5946.659260589989,-6301.20263114007,9112.985028384332,10618.9561628051,-187500.02235174447,-187500.02235174447,-187500.02235174447,-187500.02235174447
não,5896.077262887628,-6288.462136800545,9074.987062810309,10641.129093304766,-187500.02235174447,-187500.02235174447,-187500.02235174447,-187500.02235174447
não,5760.022194388175,-6337.211291457569,8553.744382112549,10684.379718825785,-187500.02235174447,-187500.02235174447,-187500.02235174447,-187500.02235174447
não,5782.888028965954,-6364.636881904231,8491.561829037884,10667.995890140044,-187500.02235174447,-187500.02235174447,-187500.02235174447,-187500.02235174447
não,5921.871175989053,-6306.321180620334,9048.74611481978,10621.370151206274,-187500.02235174447,-187500.02235174447,-187500.02235174447,-187500.02235174447
não,5903.095710646595,-6276.995691894972,9132.8557292051,10633.283631000952,-187500.02235174447,-187500.02235174447,-187500.02235174447,-187500.02235174447
não,5783.1338981549625,-6324.761369795963,8646.794694279992,10682.63628275827,-187500.02235174447,-187500.02235174447,-187500.02235174447,-187500.02235174447
não,5771.5109910382025,-6370.716556396074,8437.24709001149,10682.166896124709,-187500.02235174447,-187500.02235174447,-187500.02235174447,-187500.02235174447
não,5916.797329997698,-6324.224927929035,8955.382878229962,10625.415816952684,-187500.02235174447,-187500.02235174447,-187500.02235174447,-187500.02235174447
não,5931.571833082657,-6282.315407075335,9164.282281909262,10625.929907075157,-187500.02235174447,-187500.02235174447,-187500.02235174447,-187500.02235174447
não,5790.979360458775,-6314.34545687979,8731.552509254518,10668.286462817963,-187500.02235174447,-187500.02235174447,-187500.02235174447,-187500.02235174447
não,5729.981449840242,-6366.4026697162,8398.46681338153,10683.284483347474,-187500.02235174447,-187500.02235174447,-187500.02235174447,-187500.02235174447
não,5885.951922649375,-6337.971250769049,8857.348127048985,10627.896860587223,-187500.02235174447,-187500.02235174447,-187500.02235174447,-187500.02235174447
não,5945.228748944849,-6288.037453655894,9177.894494282544,10623.582973907349,-187500.02235174447,-187500.02235174447,-187500.02235174447,-187500.02235174447
não,5817.3544189160375,-6307.10349167627,8817.942001574278,10674.321433820896,-187500.02235174447,-187500.02235174447,-187500.02235174447,-187500.02235174447
não,5723.3206299925605,-6361.038251046926,8390.889572011181,10700.964713211622,-187500.02235174447,-187500.02235174447,-187500.02235174447,-187500.02235174447
não,5858.995718836274,-6342.218082215558,8752.183169386766,10649.242776542042,-187500.02235174447,-187500.02235174447,-187500.02235174447,-187500.02235174447
não,5938.634984330533,-6285.355244321257,9170.049031978731,10635.697619402126,-187500.02235174447,-187500.02235174447,-187500.02235174447,-187500.02235174447
não,5821.690657340367,-6290.4067385681565,8905.180860183342,10676.914236177712,-187500.02235174447,-187500.02235174447,-187500.02235174447,-187500.02235174447
não,5694.9115627898655,-6346.151989239692,8402.490127383486,10713.21346917313,-187500.02235174447,-187500.02235174447,-187500.02235174447,-187500.02235174447
não,5788.09598542404,-6347.4036869291895,8624.778225991515,10690.146468895253,-187500.02235174447,-187500.02235174447,-187500.02235174447,-187500.02235174447
não,5923.234632400827,-6289.020930411927,9130.262926848285,10663.234968571063,-187500.02235174447,-187500.02235174447,-187500.02235174447,-187500.02235174447
não,5838.163893003928,-6286.472831544022,8973.644253449947,10688.78301248348,-187500.02235174447,-187500.02235174447,-187500.02235174447,-187500.02235174447
não,5680.494687616192,-6337.412457157667,8440.488092957508,10719.896640765268,-187500.02235174447,-187500.02235174447,-187500.02235174447,-187500.02235174447
não,5734.51885396467,-6351.181131742136,8516.707541550106,10682.92685543619,-187500.02235174447,-187500.02235174447,-187500.02235174447,-187500.02235174447
não,5861.096782815073,-6293.603038025265,9075.769373866246,10659.05519235792,-187500.02235174447,-187500.02235174447,-187500.02235174447,-187500.02235174447
não,5798.333084384571,-6271.519514503421,9042.532329861204,10688.335977594374,-187500.02235174447,-187500.02235174447,-187500.02235174447,-187500.02235174447
não,5646.631794766402,-6317.139424936703,8513.466538604085,10735.878138050812,-187500.02235174447,-187500.02235174447,-187500.02235174447,-187500.02235174447
não,5660.199303650774,-6349.035364274427,8430.675677141628,10722.087111721887,-187500.02235174447,-187500.02235174447,-187500.02235174447,-187500.02235174447
não,5814.269878181205,-6293.446575814078,8990.609227491526,10673.717936720603,-187500.02235174447,-187500.02235174447,-187500.02235174447,-187500.02235174447
não,5794.086252938063,-6261.125953331703,9093.494307219304,10693.58863754137,-187500.02235174447,-187500.02235174447,-187500.02235174447,-187500.02235174447
não,5652.957338447254,-6303.303695118868,8607.969714161125,10740.974335786621,-187500.02235174447,-187500.02235174447,-187500.02235174447,-187500.02235174447
não,5628.817454435522,-6348.431867174133,8379.579589316796,10739.141492741286,-187500.02235174447,-187500.02235174447,-187500.02235174447,-187500.02235174447
não,5786.263142378705,-6305.538869564399,8898.229467657742,10685.20673337063,-187500.02235174447,-187500.02235174447,-187500.02235174447,-187500.02235174447
não,5801.305866397127,-6260.187180064581,9125.636115746036,10693.83450673038,-187500.02235174447,-187500.02235174447,-187500.02235174447,-187500.02235174447
não,5666.256626398162,-6290.786718223896,8705.065692074979,10742.449550920672,-187500.02235174447,-187500.02235174447,-187500.02235174447,-187500.02235174447
não,5613.7300269281905,-6344.542663638909,8359.977109429492,10753.156036514763,-187500.02235174447,-187500.02235174447,-187500.02235174447,-187500.02235174447
não,5759.910435665898,-6315.910078991661,8804.083920011988,10694.370948597307,-187500.02235174447,-187500.02235174447,-187500.02235174447,-187500.02235174447
não,5813.778139803188,-6262.534113232388,9147.272604378773,10697.611951543326,-187500.02235174447,-187500.02235174447,-187500.02235174447,-187500.02235174447
não,5689.904772031877,-6279.923770418617,8800.753510088147,10740.192024730686,-187500.02235174447,-187500.02235174447,-187500.02235174447,-187500.02235174447
não,5599.313151754517,-6338.820617058351,8353.56215877082,10753.446609192682,-187500.02235174447,-187500.02235174447,-187500.02235174447,-187500.02235174447
não,5732.462493474781,-6328.002372741982,8692.213439013176,10706.686759792181,-187500.02235174447,-187500.02235174447,-187500.02235174447,-187500.02235174447
não,5820.081331739585,-6270.401927280656,9126.61959250207,10683.753869981036,-187500.02235174447,-187500.02235174447,-187500.02235174447,-187500.02235174447
não,5720.2137375132725,-6277.5544855063545,8882.42678432784,10722.824719288912,-187500.02235174447,-187500.02235174447,-187500.02235174447,-187500.02235174447
não,5599.20139303224,-6333.657364089176,8381.144211428667,10754.608899904359,-187500.02235174447,-187500.02235174447,-187500.02235174447,-187500.02235174447
não,5694.1516034783845,-6338.842968802806,8583.092222582367,10710.732425538592,-187500.02235174447,-187500.02235174447,-187500.02235174447,-187500.02235174447
não,5822.316506185116,-6278.247389584469,9097.674083432446,10679.35057632334,-187500.02235174447,-187500.02235174447,-187500.02235174447,-187500.02235174447
não,5750.053316361108,-6270.580741236298,8970.447953992838,10714.554573840449,-187500.02235174447,-187500.02235174447,-187500.02235174447,-187500.02235174447
não,5615.339352528972,-6324.783721540418,8446.746581404994,10760.308594740462,-187500.02235174447,-187500.02235174447,-187500.02235174447,-187500.02235174447
não,5675.443193369293,-6346.330803195335,8498.714387263582,10730.804292059456,-187500.02235174447,-187500.02235174447,-187500.02235174447,-187500.02235174447
não,5817.2426601937605,-6288.462136800545,9045.12513221802,10683.709166492124,-187500.02235174447,-187500.02235174447,-187500.02235174447,-187500.02235174447
não,5767.599435758524,-6264.501066744455,9031.155291933454,10705.83739350288,-187500.02235174447,-187500.02235174447,-187500.02235174447,-187500.02235174447
não,5619.697942697757,-6310.076273688826,8513.868870004282,10752.440780692194,-187500.02235174447,-187500.02235174447,-187500.02235174447,-187500.02235174447
não,5636.908785928344,-6345.101457250293,8415.744711845484,10736.861614806845,-187500.02235174447,-187500.02235174447,-187500.02235174447,-187500.02235174447
