WORD,Channel_1,Channel_2,Channel_3,Channel_4,Channel_5,Channel_6,Channel_7,Channel_8
$SILENCE,5624.458864266738,-6523.893061148294,8327.544728224842,10993.88432429842,-187500.02235174447,-187500.02235174447,-187500.02235174447,-187500.02235174447
$SILENCE,5451.389306949295,-6556.3701458418545,7835.068742641061,11049.271947058673,-187500.02235174447,-187500.02235174447,-187500.02235174447,-187500.02235174447
$SILENCE,5433.530263129504,-6593.518745126575,7597.760271759066,11051.909452904398,-187500.02235174447,-187500.02235174447,-187500.02235174447,-187500.02235174447
$SILENCE,5620.793178176067,-6559.812314487972,8131.4305223739775,10998.444080167304,-187500.02235174447,-187500.02235174447,-187500.02235174447,-187500.02235174447
$SILENCE,5638.652221995857,-6518.595697712386,8368.291958366866,11001.618027879957,-187500.02235174447,-187500.02235174447,-187500.02235174447,-187500.02235174447
$SILENCE,5489.007292867576,-6545.8648259478605,7931.762389154719,11046.053295857108,-187500.02235174447,-187500.02235174447,-187500.02235174447,-187500.02235174447
$SILENCE,5431.675068339714,-6591.551791614508,7573.6203877473345,11062.504179776213,-187500.02235174447,-187500.02235174447,-187500.02235174447,-187500.02235174447
$SILENCE,5621.173157831808,-6571.882256493838,8026.310268200668,11007.474184927249,-187500.02235174447,-187500.02235174447,-187500.02235174447,-187500.02235174447
$SILENCE,5680.606446338469,-6529.592755984397,8379.244313149968,10996.186553977317,-187500.02235174447,-187500.02235174447,-187500.02235174447,-187500.02235174447
$SILENCE,5540.505712092604,-6541.997974157092,8031.451169425389,11039.504234731703,-187500.02235174447,-187500.02235174447,-187500.02235174447,-187500.02235174447
$SILENCE,5437.374763175817,-6590.702425325207,7580.795297717488,11060.313708819594,-187500.02235174447,-187500.02235174447,-187500.02235174447,-187500.02235174447
$SILENCE,5592.719387140201,-6584.086308966435,7924.766293140208,11014.17970826384,-187500.02235174447,-187500.02235174447,-187500.02235174447,-187500.02235174447
$SILENCE,5696.275019201639,-6530.7773984405285,8378.3278916273,10989.615141107457,-187500.02235174447,-187500.02235174447,-187500.02235174447,-187500.02235174447
$SILENCE,5574.703881109224,-6534.264270575556,8127.720132794397,11027.7025136593,-187500.02235174447,-187500.02235174447,-187500.02235174447,-187500.02235174447
$SILENCE,5444.9743562906215,-6583.013425232581,7617.675676068745,11060.157246608407,-187500.02235174447,-187500.02235174447,-187500.02235174447,-187500.02235174447
$SILENCE,5568.8253723174785,-6590.21068694719,7817.410864521368,11023.858013612988,-187500.02235174447,-187500.02235174447,-187500.02235174447,-187500.02235174447
$SILENCE,5711.27303973115,-6539.360468311366,8350.522321524897,10987.245856195195,-187500.02235174447,-187500.02235174447,-187500.02235174447,-187500.02235174447
$SILENCE,5621.217861320718,-6530.442122273698,8215.584840248208,11023.746254890711,-187500.02235174447,-187500.02235174447,-187500.02235174447,-187500.02235174447
$SILENCE,5456.641966896292,-6577.358433885388,7674.113830818395,11067.66743274539,-187500.02235174447,-187500.02235174447,-187500.02235174447,-187500.02235174447
$SILENCE,5538.114075435887,-6602.235925464145,7724.606421542933,11032.195214294818,-187500.02235174447,-187500.02235174447,-187500.02235174447,-187500.02235174447
$SILENCE,5713.08353103203,-6553.956157440682,8292.698358619018,10984.764812560656,-187500.02235174447,-187500.02235174447,-187500.02235174447,-187500.02235174447
$SILENCE,5652.264434369139,-6531.090322862902,8286.506925404898,11010.46931868426,-187500.02235174447,-187500.02235174447,-187500.02235174447,-187500.02235174447
$SILENCE,5470.611807180859,-6569.892951237315,7754.513055624135,11055.910415161898,-187500.02235174447,-187500.02235174447,-187500.02235174447,-187500.02235174447
$SILENCE,5504.854679686389,-6602.057111508502,7651.9185485742755,11037.8055021531,-187500.02235174447,-187500.02235174447,-187500.02235174447,-187500.02235174447
$SILENCE,5688.228391197728,-6560.9522534551925,8220.234003094913,10988.02816725113,-187500.02235174447,-187500.02235174447,-187500.02235174447,-187500.02235174447
$SILENCE,5672.403356123371,-6531.760875196562,8334.049085861336,11001.662731368868,-187500.02235174447,-187500.02235174447,-187500.02235174447,-187500.02235174447
$SILENCE,5501.680731973735,-6562.874503478349,7839.650850254399,11049.406057525404,-187500.02235174447,-187500.02235174447,-187500.02235174447,-187500.02235174447
$SILENCE,5477.831420639923,-6603.35351268691,7594.8098414909655,11047.439104013338,-187500.02235174447,-187500.02235174447,-187500.02235174447,-187500.02235174447
$SILENCE,5668.3800421214155,-6571.479925093642,8125.708475793419,10991.515039386159,-187500.02235174447,-187500.02235174447,-187500.02235174447,-187500.02235174447
$SILENCE,5685.6355888409125,-6531.380895540821,8372.203513646546,10995.895981299398,-187500.02235174447,-187500.02235174447,-187500.02235174447,-187500.02235174447
$SILENCE,5519.159796137786,-6552.123314395347,7939.8984241364515,11045.025115612163,-187500.02235174447,-187500.02235174447,-187500.02235174447,-187500.02235174447
$SILENCE,5455.256158740063,-6598.726701584662,7572.078117379919,11055.552787250614,-187500.02235174447,-187500.02235174447,-187500.02235174447,-187500.02235174447
$SILENCE,5629.1080271134415,-6580.487678109131,8019.850614053084,10998.175859233841,-187500.02235174447,-187500.02235174447,-187500.02235174447,-187500.02235174447
$SILENCE,5695.962094779265,-6537.035886888014,8381.434784106586,10984.630702093924,-187500.02235174447,-187500.02235174447,-187500.02235174447,-187500.02235174447
$SILENCE,5555.280215177562,-6550.0893056499135,8040.101294529592,11029.647115426913,-187500.02235174447,-187500.02235174447,-187500.02235174447,-187500.02235174447
$SILENCE,5457.714850630146,-6601.252448708111,7578.269550594038,11049.048429614119,-187500.02235174447,-187500.02235174447,-187500.02235174447,-187500.02235174447
$SILENCE,5628.6386404798795,-6600.000751018614,7910.148252266437,10997.594713878003,-187500.02235174447,-187500.02235174447,-187500.02235174447,-187500.02235174447
$SILENCE,5735.010592342686,-6552.503294051086,8368.56017930033,10972.538408343604,-187500.02235174447,-187500.02235174447,-187500.02235174447,-187500.02235174447
$SILENCE,5609.34908501495,-6550.893968450305,8126.401379871533,11012.145699518407,-187500.02235174447,-187500.02235174447,-187500.02235174447,-187500.02235174447
$SILENCE,5469.650682169281,-6595.128070727357,7615.127577200839,11053.13879884944,-187500.02235174447,-187500.02235174447,-187500.02235174447,-187500.02235174447
$SILENCE,5588.740776627157,-6602.079463252958,7814.63924820891,11016.347827476005,-187500.02235174447,-187500.02235174447,-187500.02235174447,-187500.02235174447
$SILENCE,5726.6063364274905,-6548.189407371213,8346.454304034032,10983.60252184898,-187500.02235174447,-187500.02235174447,-187500.02235174447,-187500.02235174447
$SILENCE,5624.995306133665,-6537.617032243852,8216.858889682162,11016.236068753728,-187500.02235174447,-187500.02235174447,-187500.02235174447,-187500.02235174447
$SILENCE,5460.598225664881,-6582.745204299117,7676.460763986202,11060.827798942066,-187500.02235174447,-187500.02235174447,-187500.02235174447,-187500.02235174447
$SILENCE,5533.4872643336375,-6603.197050475723,7715.598668527445,11031.882289872443,-187500.02235174447,-187500.02235174447,-187500.02235174447,-187500.02235174447
$SILENCE,5694.643341856402,-6555.856055719382,8285.724614348963,10988.184629462317,-187500.02235174447,-187500.02235174447,-187500.02235174447,-187500.02235174447
$SILENCE,5640.485065041193,-6537.281756077023,8285.4563934155,11008.882344827933,-187500.02235174447,-187500.02235174447,-187500.02235174447,-187500.02235174447
$SILENCE,5475.640949683303,-6576.01732921807,7754.4683521352235,11052.110618604496,-187500.02235174447,-187500.02235174447,-187500.02235174447,-187500.02235174447
$SILENCE,5504.18412735273,-6610.126091256869,7640.519158902069,11036.911432374887,-187500.02235174447,-187500.02235174447,-187500.02235174447,-187500.02235174447
$SILENCE,5691.1564697213735,-6571.167000671268,8210.086311112203,10987.022338750641,-187500.02235174447,-187500.02235174447,-187500.02235174447,-187500.02235174447
$SILENCE,5672.179838678818,-6539.427523544732,8337.670068463096,10995.918333043854,-187500.02235174447,-187500.02235174447,-187500.02235174447,-187500.02235174447
$SILENCE,5496.875106915844,-6565.512009324076,7846.535187546634,11046.880310401953,-187500.02235174447,-187500.02235174447,-187500.02235174447,-187500.02235174447
$SILENCE,5466.253217012074,-6606.125128999368,7589.244257121594,11046.321516790571,-187500.02235174447,-187500.02235174447,-187500.02235174447,-187500.02235174447
$SILENCE,5663.797934508078,-6578.699538552706,8119.070007690193,10990.956245774776,-187500.02235174447,-187500.02235174447,-187500.02235174447,-187500.02235174447
$SILENCE,5686.730824319223,-6540.209834600668,8373.097583424758,10986.620007350446,-187500.02235174447,-187500.02235174447,-187500.02235174447,-187500.02235174447
$SILENCE,5523.317220606473,-6559.544093554508,7946.71570619532,11034.340981762527,-187500.02235174447,-187500.02235174447,-187500.02235174447,-187500.02235174447
$SILENCE,5452.663356383247,-6605.141652243335,7574.693271481189,11049.495464503225,-187500.02235174447,-187500.02235174447,-187500.02235174447,-187500.02235174447
$SILENCE,5637.579338262002,-6588.78017530205,8020.454111153378,10999.382853434427,-187500.02235174447,-187500.02235174447,-187500.02235174447,-187500.02235174447
$SILENCE,5702.757025093678,-6541.372125312344,8388.699101054563,10984.250722438184,-187500.02235174447,-187500.02235174447,-187500.02235174447,-187500.02235174447
$SILENCE,5558.275348934573,-6551.519817295053,8050.4278004679445,11030.56353694958,-187500.02235174447,-187500.02235174447,-187500.02235174447,-187500.02235174447
$SILENCE,5448.774152848024,-6601.654780108307,7581.622312262334,11050.054258114607,-187500.02235174447,-187500.02235174447,-187500.02235174447,-187500.02235174447
$SILENCE,5603.604686689936,-6595.955085272203,7907.063711531605,11000.209867979273,-187500.02235174447,-187500.02235174447,-187500.02235174447,-187500.02235174447
$SILENCE,5710.1107490194745,-6544.702535236184,8372.538789813374,10981.546161359092,-187500.02235174447,-187500.02235174447,-187500.02235174447,-187500.02235174447
$SILENCE,5587.712596382213,-6547.854131204383,8137.644307332553,11017.46541469877,-187500.02235174447,-187500.02235174447,-187500.02235174447,-187500.02235174447
$SILENCE,5450.4281819377165,-6596.089195738936,7616.289867912516,11049.830740670055,-187500.02235174447,-187500.02235174447,-187500.02235174447,-187500.02235174447
$SILENCE,5564.556189126514,-6607.108605755402,7800.065910824051,11010.55872566208,-187500.02235174447,-187500.02235174447,-187500.02235174447,-187500.02235174447
$SILENCE,5707.137967006918,-6556.8395324754165,8337.826530674283,10974.08067871102,-187500.02235174447,-187500.02235174447,-187500.02235174447,-187500.02235174447
$SILENCE,5616.456939751737,-6544.031982902526,8221.753921717873,11003.719091858757,-187500.02235174447,-187500.02235174447,-187500.02235174447,-187500.02235174447
$SILENCE,5455.1220482733315,-6584.242771177623,7683.590970467445,11051.864749415488,-187500.02235174447,-187500.02235174447,-187500.02235174447,-187500.02235174447
$SILENCE,5527.117017163875,-6608.650876122818,7711.441244058758,11022.89688860141,-187500.02235174447,-187500.02235174447,-187500.02235174447,-187500.02235174447
$SILENCE,5695.582115123524,-6564.528532568042,8284.808192826295,10973.097201954986,-187500.02235174447,-187500.02235174447,-187500.02235174447,-187500.02235174447
$SILENCE,5637.378172561905,-6541.729753223629,8294.397091197621,10998.265266211662,-187500.02235174447,-187500.02235174447,-187500.02235174447,-187500.02235174447
$SILENCE,5474.635121182814,-6578.610131574886,7761.330337683004,11045.628612712457,-187500.02235174447,-187500.02235174447,-187500.02235174447,-187500.02235174447
$SILENCE,5499.691426717213,-6613.277687225067,7633.7018768432,11031.479958472248,-187500.02235174447,-187500.02235174447,-187500.02235174447,-187500.02235174447
$SILENCE,5685.993216752197,-6573.960968728182,8204.34191278719,10979.981539247221,-187500.02235174447,-187500.02235174447,-187500.02235174447,-187500.02235174447
$SILENCE,5673.096260201485,-6543.696706735695,8345.157902855624,10989.749251574189,-187500.02235174447,-187500.02235174447,-187500.02235174447,-187500.02235174447
$SILENCE,5502.485394774127,-6571.725794282651,7857.21932139627,11039.079551587052,-187500.02235174447,-187500.02235174447,-187500.02235174447,-187500.02235174447
$SILENCE,5470.634158925314,-6613.300038969522,7589.557181543968,11041.47118824377,-187500.02235174447,-187500.02235174447,-187500.02235174447,-187500.02235174447
$SILENCE,5660.780449006611,-6584.622750833363,8105.815423228196,10982.93196951532,-187500.02235174447,-187500.02235174447,-187500.02235174447,-187500.02235174447
$SILENCE,5688.764833064656,-6545.686011992218,8366.839094977271,10980.808553792067,-187500.02235174447,-187500.02235174447,-187500.02235174447,-187500.02235174447
$SILENCE,5527.653459030803,-6566.719003524662,7949.107342852038,11027.680161914846,-187500.02235174447,-187500.02235174447,-187500.02235174447,-187500.02235174447
$SILENCE,5453.333908716906,-6613.255335480611,7563.293881808982,11043.840473156033,-187500.02235174447,-187500.02235174447,-187500.02235174447,-187500.02235174447
$SILENCE,5630.426780036304,-6597.631466106352,7996.649503308476,10989.838658552011,-187500.02235174447,-187500.02235174447,-187500.02235174447,-187500.02235174447
$SILENCE,5692.966961022254,-6545.931881181226,8375.779792759395,10979.22157993574,-187500.02235174447,-187500.02235174447,-187500.02235174447,-187500.02235174447
$SILENCE,5549.245244174629,-6555.163151641268,8043.990498064816,11023.99212407972,-187500.02235174447,-187500.02235174447,-187500.02235174447,-187500.02235174447
$SILENCE,5437.352411431362,-6604.694617354228,7571.7428412130885,11048.914319147387,-187500.02235174447,-187500.02235174447,-187500.02235174447,-187500.02235174447
$SILENCE,5586.818526604,-6602.8617743088935,7888.914095033896,11000.478088912736,-187500.02235174447,-187500.02235174447,-187500.02235174447,-187500.02235174447
$SILENCE,5693.346940677994,-6551.005727172581,8364.447458320554,10974.661824066858,-187500.02235174447,-187500.02235174447,-187500.02235174447,-187500.02235174447
$SILENCE,5581.319997467995,-6552.056259161981,8138.270156177302,11010.491670428715,-187500.02235174447,-187500.02235174447,-187500.02235174447,-187500.02235174447
$SILENCE,5438.604109120859,-6599.576067873963,7614.434673122725,11052.065915115585,-187500.02235174447,-187500.02235174447,-187500.02235174447,-187500.02235174447
$SILENCE,5545.065467961486,-6608.06973076698,7782.184515259804,11016.236068753728,-187500.02235174447,-187500.02235174447,-187500.02235174447,-187500.02235174447
$SILENCE,5692.899905788888,-6560.505218566087,8323.297896778333,10979.042765980097,-187500.02235174447,-187500.02235174447,-187500.02235174447,-187500.02235174447
$SILENCE,5605.459881479726,-6550.156360883279,8220.166947861546,11011.117519273463,-187500.02235174447,-187500.02235174447,-187500.02235174447,-187500.02235174447
$SILENCE,5442.515664400538,-6593.675207337762,7673.42092674028,11054.457551772304,-187500.02235174447,-187500.02235174447,-187500.02235174447,-187500.02235174447
$SILENCE,5511.291982089518,-6617.591573904941,7680.238208799149,11027.903679359399,-187500.02235174447,-187500.02235174447,-187500.02235174447,-187500.02235174447
$SILENCE,5683.4004143953825,-6567.098983180402,8259.260148913878,10986.441193394803,-187500.02235174447,-187500.02235174447,-187500.02235174447,-187500.02235174447
$SILENCE,5628.25866082414,-6542.802636957484,8283.936474792537,11005.283713970628,-187500.02235174447,-187500.02235174447,-187500.02235174447,-187500.02235174447
$SILENCE,5456.597263407381,-6580.867657764871,7757.82111380352,11050.993031381731,-187500.02235174447,-187500.02235174447,-187500.02235174447,-187500.02235174447
$SILENCE,5476.914999117255,-6615.401102948321,7619.88849876982,11041.337077777038,-187500.02235174447,-187500.02235174447,-187500.02235174447,-187500.02235174447
$SILENCE,5661.4510013402705,-6573.916265239271,8184.650025922064,10988.922237029343,-187500.02235174447,-187500.02235174447,-187500.02235174447,-187500.02235174447
$SILENCE,5645.983594177198,-6542.042677646003,8334.585527728263,10995.113670243463,-187500.02235174447,-187500.02235174447,-187500.02235174447,-187500.02235174447
$SILENCE,5471.707042659169,-6569.982358215137,7849.820893981564,11042.94640337782,-187500.02235174447,-187500.02235174447,-187500.02235174447,-187500.02235174447
$SILENCE,5445.868426068834,-6613.568259902985,7572.659262735756,11048.221415069273,-187500.02235174447,-187500.02235174447,-187500.02235174447,-187500.02235174447
$SILENCE,5637.959317917743,-6586.1873729452345,8090.683292231953,10995.180725476828,-187500.02235174447,-187500.02235174447,-187500.02235174447,-187500.02235174447
$SILENCE,5666.904826987366,-6544.188445113712,8362.592263530763,10989.548085874092,-187500.02235174447,-187500.02235174447,-187500.02235174447,-187500.02235174447
$SILENCE,5499.937295906222,-6562.136895911324,7948.637956218477,11037.738446919733,-187500.02235174447,-187500.02235174447,-187500.02235174447,-187500.02235174447
$SILENCE,5421.795597290468,-6610.662533123796,7555.44841950517,11054.681069216856,-187500.02235174447,-187500.02235174447,-187500.02235174447,-187500.02235174447
$SILENCE,5601.905954111333,-6597.720873084173,7980.19861938937,10998.801708078588,-187500.02235174447,-187500.02235174447,-187500.02235174447,-187500.02235174447
$SILENCE,5671.531638089614,-6549.083477149425,8365.945025199058,10981.434402636814,-187500.02235174447,-187500.02235174447,-187500.02235174447,-187500.02235174447
$SILENCE,5530.358020109895,-6556.906587708782,8043.856387598084,11023.500385701704,-187500.02235174447,-187500.02235174447,-187500.02235174447,-187500.02235174447
$SILENCE,5413.994838475566,-6603.219402220178,7568.054803377963,11053.317612805082,-187500.02235174447,-187500.02235174447,-187500.02235174447,-187500.02235174447
$SILENCE,5556.844837289434,-6603.912306298293,7869.468077357778,11007.697702371801,-187500.02235174447,-187500.02235174447,-187500.02235174447,-187500.02235174447
$SILENCE,5672.828039268022,-6555.409020830277,8351.930481425581,10981.903789270376,-187500.02235174447,-187500.02235174447,-187500.02235174447,-187500.02235174447
$SILENCE,5559.571750112981,-6554.58200628543,8139.521853866799,11021.153452533896,-187500.02235174447,-187500.02235174447,-187500.02235174447,-187500.02235174447
$SILENCE,5416.542937343471,-6601.230096963656,7612.780644033032,11059.441990785837,-187500.02235174447,-187500.02235174447,-187500.02235174447,-187500.02235174447
$SILENCE,5523.071351417465,-6611.668361624284,7764.459581906746,11016.03490305363,-187500.02235174447,-187500.02235174447,-187500.02235174447,-187500.02235174447
$SILENCE,5668.581207821514,-6560.326404610444,8309.708036149506,10976.628777578924,-187500.02235174447,-187500.02235174447,-187500.02235174447,-187500.02235174447
$SILENCE,5580.604741645425,-6546.289509092511,8217.641200738097,11009.217620994761,-187500.02235174447,-187500.02235174447,-187500.02235174447,-187500.02235174447
$SILENCE,5416.520585599016,-6588.310788668488,7677.511295975602,11054.636365727945,-187500.02235174447,-187500.02235174447,-187500.02235174447,-187500.02235174447
$SILENCE,5478.747842162591,-6614.104701769913,7677.399537253325,11027.501347959203,-187500.02235174447,-187500.02235174447,-187500.02235174447,-187500.02235174447
$SILENCE,5652.934986702799,-6568.194218658712,8250.788837765318,10979.109821213464,-187500.02235174447,-187500.02235174447,-187500.02235174447,-187500.02235174447
$SILENCE,5609.080864081486,-6546.289509092511,8283.69060560353,10996.454774910782,-187500.02235174447,-187500.02235174447,-187500.02235174447,-187500.02235174447
$SILENCE,5436.368934675328,-6581.068823464969,7762.514980139134,11045.650964456912,-187500.02235174447,-187500.02235174447,-187500.02235174447,-187500.02235174447
$SILENCE,5448.0812487699095,-6615.7140273706955,7610.813690520966,11035.637382940935,-187500.02235174447,-187500.02235174447,-187500.02235174447,-187500.02235174447
$SILENCE,5646.207111621751,-6579.481849608642,8173.787078116785,10982.440231137303,-187500.02235174447,-187500.02235174447,-187500.02235174447,-187500.02235174447
$SILENCE,5638.07107664002,-6544.657831747274,8334.27260330589,10994.13019348743,-187500.02235174447,-187500.02235174447,-187500.02235174447,-187500.02235174447
$SILENCE,5465.068574555943,-6573.133954183335,7857.688708029832,11041.359429521493,-187500.02235174447,-187500.02235174447,-187500.02235174447,-187500.02235174447
$SILENCE,5427.964678760133,-6618.664457638795,7567.004271388563,11040.443007998825,-187500.02235174447,-187500.02235174447,-187500.02235174447,-187500.02235174447
$SILENCE,5612.478329238693,-6588.042567735025,8073.137172834537,10987.067042239552,-187500.02235174447,-187500.02235174447,-187500.02235174447,-187500.02235174447
$SILENCE,5652.040916924586,-6546.311860836967,8357.786638472871,10983.155486959873,-187500.02235174447,-187500.02235174447,-187500.02235174447,-187500.02235174447
$SILENCE,5496.249258071096,-6566.651948291296,7959.277386579202,11027.858975870487,-187500.02235174447,-187500.02235174447,-187500.02235174447,-187500.02235174447
$SILENCE,5425.036600236488,-6611.623658135374,7591.345321100393,11045.8074266681,-187500.02235174447,-187500.02235174447,-187500.02235174447,-187500.02235174447
$SILENCE,5576.693186365746,-6598.2796666955555,7968.0169186612275,10998.019397022654,-187500.02235174447,-187500.02235174447,-187500.02235174447,-187500.02235174447
$SILENCE,5662.88151298541,-6549.329346338433,8382.686481796085,10975.980576989721,-187500.02235174447,-187500.02235174447,-187500.02235174447,-187500.02235174447
$SILENCE,5515.270592602563,-6556.750125497595,8048.617309167065,11023.366275234972,-187500.02235174447,-187500.02235174447,-187500.02235174447,-187500.02235174447
$SILENCE,5395.107614410832,-6605.991018532636,7561.237521319094,11052.021211626676,-187500.02235174447,-187500.02235174447,-187500.02235174447,-187500.02235174447
$SILENCE,5538.8293312584565,-6606.303942955011,7852.1454754049155,11009.865821583966,-187500.02235174447,-187500.02235174447,-187500.02235174447,-187500.02235174447
$SILENCE,5661.9203879738325,-6558.2476923761005,8342.766266198905,10977.008757234664,-187500.02235174447,-187500.02235174447,-187500.02235174447,-187500.02235174447
$SILENCE,5548.507636607604,-6557.800657486994,8136.504368365332,11005.50723141518,-187500.02235174447,-187500.02235174447,-187500.02235174447,-187500.02235174447
$SILENCE,5406.596411060859,-6604.135823742846,7616.178109190239,11045.650964456912,-187500.02235174447,-187500.02235174447,-187500.02235174447,-187500.02235174447
$SILENCE,5511.09081638942,-6614.194108747734,7759.542198126579,11011.36338846247,-187500.02235174447,-187500.02235174447,-187500.02235174447,-187500.02235174447
$SILENCE,5660.9816147067095,-6563.075669178447,8308.36693148219,10974.46065836676,-187500.02235174447,-187500.02235174447,-187500.02235174447,-187500.02235174447
$SILENCE,5574.033328775565,-6546.468323048154,8223.564413018754,11002.154469746885,-187500.02235174447,-187500.02235174447,-187500.02235174447,-187500.02235174447
$SILENCE,5412.206698919142,-6589.338968913433,7686.407290268814,11046.925013890865,-187500.02235174447,-187500.02235174447,-187500.02235174447,-187500.02235174447
$SILENCE,5470.164772291752,-6615.781082604061,7671.141048805839,11021.935763589832,-187500.02235174447,-187500.02235174447,-187500.02235174447,-187500.02235174447
$SILENCE,5645.290690099084,-6571.904608238293,8241.892843472106,10973.41012637736,-187500.02235174447,-187500.02235174447,-187500.02235174447,-187500.02235174447
$SILENCE,5603.9846663456765,-6548.100000393391,8285.590503882231,10990.106879485475,-187500.02235174447,-187500.02235174447,-187500.02235174447,-187500.02235174447
$SILENCE,5435.452513152661,-6581.448803120709,7773.690852366788,11038.252537042206,-187500.02235174447,-187500.02235174447,-187500.02235174447,-187500.02235174447
$SILENCE,5439.02879226551,-6617.613925649396,7609.584344575924,11028.887156115432,-187500.02235174447,-187500.02235174447,-187500.02235174447,-187500.02235174447
$SILENCE,5622.536614243581,-6581.0241199760585,8162.052412277748,10974.192437433296,-187500.02235174447,-187500.02235174447,-187500.02235174447,-187500.02235174447
$SILENCE,5617.239250807674,-6546.736543981618,8334.138492839158,10985.860048038967,-187500.02235174447,-187500.02235174447,-187500.02235174447,-187500.02235174447
$SILENCE,5451.009327293555,-6574.497410595109,7869.2222081687705,11033.89394687342,-187500.02235174447,-187500.02235174447,-187500.02235174447,-187500.02235174447
$SILENCE,5413.145472186265,-6620.720818128684,7570.044108634485,11035.816196896578,-187500.02235174447,-187500.02235174447,-187500.02235174447,-187500.02235174447
$SILENCE,5599.648427921346,-6595.820974805471,8067.571588465165,10979.623911335935,-187500.02235174447,-187500.02235174447,-187500.02235174447,-187500.02235174447
$SILENCE,5638.518111529125,-6552.279776606533,8361.809952474827,10976.673481067835,-187500.02235174447,-187500.02235174447,-187500.02235174447,-187500.02235174447
$SILENCE,5484.939275376711,-6569.334157625933,7967.3687180720235,11019.164147277374,-187500.02235174447,-187500.02235174447,-187500.02235174447,-187500.02235174447
$SILENCE,5398.728597012591,-6617.658629138306,7563.092716108885,11039.66069694289,-187500.02235174447,-187500.02235174447,-187500.02235174447,-187500.02235174447
$SILENCE,5568.288930450551,-6602.124166741868,7965.401764559957,10991.000949263687,-187500.02235174447,-187500.02235174447,-187500.02235174447,-187500.02235174447
$SILENCE,5649.314004101039,-6554.738468496617,8367.509647310932,10975.690004311802,-187500.02235174447,-187500.02235174447,-187500.02235174447,-187500.02235174447
$SILENCE,5512.208403612185,-6561.667509277762,8065.492876230822,11016.41488270937,-187500.02235174447,-187500.02235174447,-187500.02235174447,-187500.02235174447
$SILENCE,5386.032806161977,-6608.740283100639,7582.02464366253,11045.583909223546,-187500.02235174447,-187500.02235174447,-187500.02235174447,-187500.02235174447
$SILENCE,5530.335668365439,-6611.400140690821,7860.84030399803,11000.723958101746,-187500.02235174447,-187500.02235174447,-187500.02235174447,-187500.02235174447
$SILENCE,5673.967978235242,-6561.734564511128,8376.27153113741,10964.044745450587,-187500.02235174447,-187500.02235174447,-187500.02235174447,-187500.02235174447
$SILENCE,5547.52415985157,-6555.230206874634,8165.204008245946,11005.060196526074,-187500.02235174447,-187500.02235174447,-187500.02235174447,-187500.02235174447
$SILENCE,5390.771375986502,-6604.78402433205,7613.294734155505,11048.08730460254,-187500.02235174447,-187500.02235174447,-187500.02235174447,-187500.02235174447
$SILENCE,5489.499031245593,-6619.290306483545,7742.957203740741,11012.168051262863,-187500.02235174447,-187500.02235174447,-187500.02235174447,-187500.02235174447
$SILENCE,5644.061344154042,-6568.9318262257375,8295.872306331672,10969.40916411986,-187500.02235174447,-187500.02235174447,-187500.02235174447,-187500.02235174447
$SILENCE,5568.95948278421,-6555.9007592082935,8223.877337441128,10996.566533633058,-187500.02235174447,-187500.02235174447,-187500.02235174447,-187500.02235174447
$SILENCE,5406.618762805315,-6596.893858539326,7689.08949960345,11043.035810355641,-187500.02235174447,-187500.02235174447,-187500.02235174447,-187500.02235174447
$SILENCE,5449.310594714952,-6621.458425695709,7660.613377167389,11018.761815877178,-187500.02235174447,-187500.02235174447,-187500.02235174447,-187500.02235174447
$SILENCE,5627.275184068106,-6578.721890297162,8233.399180579088,10968.537446086102,-187500.02235174447,-187500.02235174447,-187500.02235174447,-187500.02235174447
$SILENCE,5594.596933674447,-6557.375974342343,8289.569114395275,10987.625835850935,-187500.02235174447,-187500.02235174447,-187500.02235174447,-187500.02235174447
$SILENCE,5426.735332815091,-6590.9482945142145,7779.368195458436,11040.599470210012,-187500.02235174447,-187500.02235174447,-187500.02235174447,-187500.02235174447
$SILENCE,5424.857786280845,-6625.817015864493,7603.482318339625,11033.335153262038,-187500.02235174447,-187500.02235174447,-187500.02235174447,-187500.02235174447
$SILENCE,5609.237326292673,-6587.64023633483,8155.302185452246,10976.204094434273,-187500.02235174447,-187500.02235174447,-187500.02235174447,-187500.02235174447
$SILENCE,5614.221765306207,-6554.58200628543,8337.781827185372,10981.993196248199,-187500.02235174447,-187500.02235174447,-187500.02235174447,-187500.02235174447
$SILENCE,5449.087077270398,-6582.275817665555,7875.2124756827925,11027.747217148211,-187500.02235174447,-187500.02235174447,-187500.02235174447,-187500.02235174447
$SILENCE,5402.573097058904,-6627.560451932008,7560.835189918899,11029.89298461592,-187500.02235174447,-187500.02235174447,-187500.02235174447,-187500.02235174447
$SILENCE,5588.204334760229,-6602.079463252958,8050.964242334872,10975.667652567347,-187500.02235174447,-187500.02235174447,-187500.02235174447,-187500.02235174447
$SILENCE,5629.130378857896,-6555.341965596911,8357.563121028319,10974.125382199929,-187500.02235174447,-187500.02235174447,-187500.02235174447,-187500.02235174447
$SILENCE,5470.3882897363055,-6569.647082048307,7972.710784996842,11022.606315923491,-187500.02235174447,-187500.02235174447,-187500.02235174447,-187500.02235174447
$SILENCE,5382.590637515859,-6616.853966337916,7556.744820683578,11041.18061556585,-187500.02235174447,-187500.02235174447,-187500.02235174447,-187500.02235174447
$SILENCE,5550.072258719476,-6605.991018532636,7951.1637033419265,10988.139925973408,-187500.02235174447,-187500.02235174447,-187500.02235174447,-187500.02235174447
$SILENCE,5631.142035858874,-6556.616015030863,8365.833266476782,10973.611292077458,-187500.02235174447,-187500.02235174447,-187500.02235174447,-187500.02235174447
$SILENCE,5507.067502387465,-6564.908512223782,8068.890341388028,11011.743368118212,-187500.02235174447,-187500.02235174447,-187500.02235174447,-187500.02235174447
$SILENCE,5386.368082328807,-6615.758730859606,7575.319120325938,11041.8064644106,-187500.02235174447,-187500.02235174447,-187500.02235174447,-187500.02235174447
$SILENCE,5517.237546114629,-6618.485643683153,7837.50508278669,10998.13115574493,-187500.02235174447,-187500.02235174447,-187500.02235174447,-187500.02235174447
$SILENCE,5637.087599883986,-6566.5848930579305,8338.474731263486,10969.297405397583,-187500.02235174447,-187500.02235174447,-187500.02235174447,-187500.02235174447
$SILENCE,5530.469778832171,-6562.516875567064,8158.274967464801,11004.121423258952,-187500.02235174447,-187500.02235174447,-187500.02235174447,-187500.02235174447
$SILENCE,5376.801535701935,-6607.153309244312,7628.404513407292,11045.136874334441,-187500.02235174447,-187500.02235174447,-187500.02235174447,-187500.02235174447
$SILENCE,5473.8528101268785,-6622.151329773824,7743.851273518953,11012.682141385334,-187500.02235174447,-187500.02235174447,-187500.02235174447,-187500.02235174447
$SILENCE,5632.214919592729,-6574.855038506394,8296.431099943055,10966.50343734067,-187500.02235174447,-187500.02235174447,-187500.02235174447,-187500.02235174447
$SILENCE,5551.189845942241,-6557.86771272036,8235.76846549135,10991.760908575166,-187500.02235174447,-187500.02235174447,-187500.02235174447,-187500.02235174447
$SILENCE,5387.35155908484,-6598.816108562482,7698.678397974778,11035.905603874398,-187500.02235174447,-187500.02235174447,-187500.02235174447,-187500.02235174447
$SILENCE,5441.085152755399,-6627.9851350766585,7655.606586409401,11013.799728608099,-187500.02235174447,-187500.02235174447,-187500.02235174447,-187500.02235174447
$SILENCE,5618.580355474992,-6583.415756632777,8228.839424710206,10965.810533262556,-187500.02235174447,-187500.02235174447,-187500.02235174447,-187500.02235174447
$SILENCE,5580.560038156515,-6556.213683630667,8294.575905153264,10983.758984060167,-187500.02235174447,-187500.02235174447,-187500.02235174447,-187500.02235174447
$SILENCE,5410.195041918164,-6589.696596824718,7784.620855405433,11030.854109627498,-187500.02235174447,-187500.02235174447,-187500.02235174447,-187500.02235174447
$SILENCE,5410.820890762912,-6629.661515910807,7595.636856035812,11023.410978723881,-187500.02235174447,-187500.02235174447,-187500.02235174447,-187500.02235174447
$SILENCE,5604.1634803013185,-6596.06684399448,8146.003859758838,10970.191475175796,-187500.02235174447,-187500.02235174447,-187500.02235174447,-187500.02235174447
$SILENCE,5610.466672237715,-6560.192294143712,8339.301745808334,10974.281844411116,-187500.02235174447,-187500.02235174447,-187500.02235174447,-187500.02235174447
$SILENCE,5440.481655655105,-6584.980378744648,7880.599246096522,11021.712246145278,-187500.02235174447,-187500.02235174447,-187500.02235174447,-187500.02235174447
$SILENCE,5386.323378839896,-6627.828672865471,7557.393021272782,11030.876461371954,-187500.02235174447,-187500.02235174447,-187500.02235174447,-187500.02235174447
talvez,5568.333633939461,-6603.8005475760165,8047.276204499746,10977.74636480169,-187500.02235174447,-187500.02235174447,-187500.02235174447,-187500.02235174447
talvez,5612.187756560774,-6558.91824470976,8360.714716996517,10968.246873408185,-187500.02235174447,-187500.02235174447,-187500.02235174447,-187500.02235174447
talvez,5455.591434906893,-6573.938616983726,7980.556247300655,11014.738501875223,-187500.02235174447,-187500.02235174447,-187500.02235174447,-187500.02235174447
talvez,5364.0833931068655,-6622.844233851938,7555.135495082795,11034.27392652916,-187500.02235174447,-187500.02235174447,-187500.02235174447,-187500.02235174447
talvez,5535.990659712632,-6616.742207615639,7933.081142077583,10980.674443325335,-187500.02235174447,-187500.02235174447,-187500.02235174447,-187500.02235174447
talvez,5625.442341022771,-6566.7637070135725,8358.121914639702,10963.50830358366,-187500.02235174447,-187500.02235174447,-187500.02235174447,-187500.02235174447
talvez,5490.996598124099,-6568.417736103265,8077.74163219233,11008.904696572388,-187500.02235174447,-187500.02235174447,-187500.02235174447,-187500.02235174447
talvez,5359.814209915902,-6615.490509926142,7578.850695949876,11041.135912076941,-187500.02235174447,-187500.02235174447,-187500.02235174447,-187500.02235174447
talvez,5492.8964964028,-6619.156196016812,7829.614916993966,10996.477126655236,-187500.02235174447,-187500.02235174447,-187500.02235174447,-187500.02235174447
talvez,5614.042951350564,-6567.546018069508,8333.378533527677,10961.206073904763,-187500.02235174447,-187500.02235174447,-187500.02235174447,-187500.02235174447
talvez,5502.619505240858,-6560.3487563549,8163.61703438962,11001.394510435404,-187500.02235174447,-187500.02235174447,-187500.02235174447,-187500.02235174447
talvez,5351.320547022885,-6603.688788853739,7629.32093492996,11043.348734778016,-187500.02235174447,-187500.02235174447,-187500.02235174447,-187500.02235174447
talvez,5448.215359236641,-6622.866585596394,7726.081636676984,11007.742405860712,-187500.02235174447,-187500.02235174447,-187500.02235174447,-187500.02235174447
talvez,5611.248983293651,-6576.240846662623,8286.529277149353,10967.17398967433,-187500.02235174447,-187500.02235174447,-187500.02235174447,-187500.02235174447
talvez,5537.28706089104,-6560.147590654802,8237.087218414214,10992.610274864468,-187500.02235174447,-187500.02235174447,-187500.02235174447,-187500.02235174447
talvez,5367.994948386544,-6599.531364385052,7700.980627653674,11036.397342252416,-187500.02235174447,-187500.02235174447,-187500.02235174447,-187500.02235174447
talvez,5411.782015774491,-6627.605155420918,7647.582310149945,11013.889135585921,-187500.02235174447,-187500.02235174447,-187500.02235174447,-187500.02235174447
talvez,5594.507526696626,-6583.572218843963,8224.234965352412,10966.235216407207,-187500.02235174447,-187500.02235174447,-187500.02235174447,-187500.02235174447
talvez,5561.583407113959,-6554.403192329788,8300.722634878473,10984.071908482541,-187500.02235174447,-187500.02235174447,-187500.02235174447,-187500.02235174447
talvez,5393.54299229896,-6588.199029946212,7790.789936875098,11033.066932328575,-187500.02235174447,-187500.02235174447,-187500.02235174447,-187500.02235174447
talvez,5386.837468962368,-6627.538100187552,7588.394890832293,11027.970734592764,-187500.02235174447,-187500.02235174447,-187500.02235174447,-187500.02235174447
talvez,5574.480363664671,-6593.138765470835,8136.102036965137,10970.88437925391,-187500.02235174447,-187500.02235174447,-187500.02235174447,-187500.02235174447
talvez,5584.538648669559,-6555.476076063643,8343.749742954938,10976.137039200907,-187500.02235174447,-187500.02235174447,-187500.02235174447,-187500.02235174447
talvez,5422.622611835314,-6581.135878698335,7892.80329856912,11023.388626979426,-187500.02235174447,-187500.02235174447,-187500.02235174447,-187500.02235174447
talvez,5371.638282732759,-6627.1581205318125,7562.422163775225,11034.22922304025,-187500.02235174447,-187500.02235174447,-187500.02235174447,-187500.02235174447
talvez,5557.001299500621,-6604.426396420765,8041.174178263448,10978.931007257821,-187500.02235174447,-187500.02235174447,-187500.02235174447,-187500.02235174447
talvez,5605.951619857743,-6560.214645888168,8362.771077486406,10966.838713507499,-187500.02235174447,-187500.02235174447,-187500.02235174447,-187500.02235174447
talvez,5452.238673238597,-6574.117430939368,7985.875962481018,11010.961057062275,-187500.02235174447,-187500.02235174447,-187500.02235174447,-187500.02235174447
talvez,5351.320547022885,-6620.83257685096,7554.062611348941,11037.09024633053,-187500.02235174447,-187500.02235174447,-187500.02235174447,-187500.02235174447
talvez,5516.544642036515,-6612.003637791114,7932.3211827661025,10989.659844596368,-187500.02235174447,-187500.02235174447,-187500.02235174447,-187500.02235174447
talvez,5609.3267332704945,-6560.929901710738,8361.944062941559,10966.346975129483,-187500.02235174447,-187500.02235174447,-187500.02235174447,-187500.02235174447
talvez,5481.407699752772,-6565.310843623977,8084.067175873181,11006.423652937849,-187500.02235174447,-187500.02235174447,-187500.02235174447,-187500.02235174447
talvez,5354.226273802075,-6614.797605848027,7579.565951772446,11039.034848098141,-187500.02235174447,-187500.02235174447,-187500.02235174447,-187500.02235174447
talvez,5481.60886545287,-6619.558527417008,7821.83650992352,10999.18168773433,-187500.02235174447,-187500.02235174447,-187500.02235174447,-187500.02235174447
talvez,5613.618268205913,-6569.937654726226,8338.586489985764,10968.515094341648,-187500.02235174447,-187500.02235174447,-187500.02235174447,-187500.02235174447
talvez,5513.907136190789,-6562.271006378056,8173.317691483223,10998.265266211662,-187500.02235174447,-187500.02235174447,-187500.02235174447,-187500.02235174447
talvez,5355.366212769296,-6605.409873176798,7636.428789666747,11036.687914930335,-187500.02235174447,-187500.02235174447,-187500.02235174447,-187500.02235174447
talvez,5442.180388233708,-6622.754826874117,7727.57920355549,11007.65299888289,-187500.02235174447,-187500.02235174447,-187500.02235174447,-187500.02235174447
talvez,5613.640619950369,-6576.933750740737,8291.334902207243,10968.783315275112,-187500.02235174447,-187500.02235174447,-187500.02235174447,-187500.02235174447
talvez,5544.305508650006,-6560.661680777273,8250.542968576308,10998.980522034231,-187500.02235174447,-187500.02235174447,-187500.02235174447,-187500.02235174447
talvez,5376.510963024016,-6599.888992296338,7714.346970837948,11045.740371434733,-187500.02235174447,-187500.02235174447,-187500.02235174447,-187500.02235174447
talvez,5407.535184327982,-6625.906422842315,7645.436542682236,11025.869670613965,-187500.02235174447,-187500.02235174447,-187500.02235174447,-187500.02235174447
talvez,5585.075090536487,-6581.851134520904,8216.098930370681,10968.425687363826,-187500.02235174447,-187500.02235174447,-187500.02235174447,-187500.02235174447
talvez,5557.224816945174,-6556.034869675025,8300.968504067481,10978.12634445743,-187500.02235174447,-187500.02235174447,-187500.02235174447,-187500.02235174447
talvez,5389.743195741558,-6590.903591025304,7796.355521244469,11024.237993268729,-187500.02235174447,-187500.02235174447,-187500.02235174447,-187500.02235174447
talvez,5383.931742183178,-6631.36024848941,7586.629103020323,11017.264248998672,-187500.02235174447,-187500.02235174447,-187500.02235174447,-187500.02235174447
talvez,5573.5192386530925,-6597.899687039815,8131.4305223739775,10958.568568059036,-187500.02235174447,-187500.02235174447,-187500.02235174447,-187500.02235174447
talvez,5586.0809190369755,-6560.7734394995505,8348.220091846,10960.826094249021,-187500.02235174447,-187500.02235174447,-187500.02235174447,-187500.02235174447
talvez,5421.527376357005,-6586.142669456323,7903.80035684113,11008.994103550209,-187500.02235174447,-187500.02235174447,-187500.02235174447,-187500.02235174447
talvez,5366.229160574575,-6631.7402281451505,7562.891550408787,11011.586905907025,-187500.02235174447,-187500.02235174447,-187500.02235174447,-187500.02235174447
talvez,5552.307433165006,-6610.282553468055,8038.894300329006,10950.20901563275,-187500.02235174447,-187500.02235174447,-187500.02235174447,-187500.02235174447
talvez,5609.9749338596985,-6567.68012853624,8377.187952660079,10939.45782654975,-187500.02235174447,-187500.02235174447,-187500.02235174447,-187500.02235174447
talvez,5468.734260646613,-6584.175715944257,8013.055683738671,10987.60348410648,-187500.02235174447,-187500.02235174447,-187500.02235174447,-187500.02235174447
talvez,5378.857896191824,-6632.164911289801,7578.336605827404,11015.6996268868,-187500.02235174447,-187500.02235174447,-187500.02235174447,-187500.02235174447
talvez,5539.566938825481,-6622.97834431867,7946.626299217499,10964.000041961675,-187500.02235174447,-187500.02235174447,-187500.02235174447,-187500.02235174447
talvez,5629.175082346807,-6574.363300128377,8382.3288538848,10939.591937016481,-187500.02235174447,-187500.02235174447,-187500.02235174447,-187500.02235174447
talvez,5497.568010993959,-6575.592646073419,8113.325609365179,10985.502420127681,-187500.02235174447,-187500.02235174447,-187500.02235174447,-187500.02235174447
talvez,5352.885169134756,-6618.284477983056,7603.035283450518,11017.778339121145,-187500.02235174447,-187500.02235174447,-187500.02235174447,-187500.02235174447
talvez,5477.831420639923,-6624.587669919452,7833.459417040279,10971.800800776578,-187500.02235174447,-187500.02235174447,-187500.02235174447,-187500.02235174447
talvez,5612.165404816318,-6575.145611184313,8352.802199459338,10937.35676257095,-187500.02235174447,-187500.02235174447,-187500.02235174447,-187500.02235174447
talvez,5513.4153978127715,-6569.714137281673,8196.921133628028,10968.515094341648,-187500.02235174447,-187500.02235174447,-187500.02235174447,-187500.02235174447
talvez,5358.473105248583,-6615.110530270402,7655.807752109498,11010.22344949525,-187500.02235174447,-187500.02235174447,-187500.02235174447,-187500.02235174447
talvez,5446.382516191306,-6635.875300869382,7735.491721092668,10982.261417181662,-187500.02235174447,-187500.02235174447,-187500.02235174447,-187500.02235174447
talvez,5610.019637348609,-6588.310788668488,8301.951980823515,10936.395637559372,-187500.02235174447,-187500.02235174447,-187500.02235174447,-187500.02235174447
talvez,5543.903177249811,-6568.529494825541,8269.229026940946,10956.534559313603,-187500.02235174447,-187500.02235174447,-187500.02235174447,-187500.02235174447
talvez,5374.9686926566,-6606.326294699466,7729.43439834528,11000.70160635729,-187500.02235174447,-187500.02235174447,-187500.02235174447,-187500.02235174447
talvez,5412.07258845241,-6637.529329959075,7651.1585892627945,10979.959187502765,-187500.02235174447,-187500.02235174447,-187500.02235174447,-187500.02235174447
talvez,5594.842802863455,-6597.765576573083,8228.526500287831,10925.666800220824,-187500.02235174447,-187500.02235174447,-187500.02235174447,-187500.02235174447
talvez,5575.888523565355,-6571.882256493838,8326.673010191085,10939.994268416676,-187500.02235174447,-187500.02235174447,-187500.02235174447,-187500.02235174447
talvez,5408.45160585065,-6605.991018532636,7825.658658225377,10991.336225430516,-187500.02235174447,-187500.02235174447,-187500.02235174447,-187500.02235174447
talvez,5393.654751021237,-6644.525425973586,7601.023626449541,10989.41397540736,-187500.02235174447,-187500.02235174447,-187500.02235174447,-187500.02235174447
talvez,5582.214067246207,-6610.617829634885,8143.321650424201,10934.160463113842,-187500.02235174447,-187500.02235174447,-187500.02235174447,-187500.02235174447
talvez,5592.093538295453,-6570.474096593153,8367.733164755484,10934.942774169776,-187500.02235174447,-187500.02235174447,-187500.02235174447,-187500.02235174447
talvez,5423.4272746357055,-6591.395329403321,7923.38048498398,10983.960149760265,-187500.02235174447,-187500.02235174447,-187500.02235174447,-187500.02235174447
talvez,5363.390489028751,-6636.881129369871,7572.614559246846,10995.56070513257,-187500.02235174447,-187500.02235174447,-187500.02235174447,-187500.02235174447
talvez,5549.3346511524505,-6618.105664027413,8040.995364307805,10940.865986450433,-187500.02235174447,-187500.02235174447,-187500.02235174447,-187500.02235174447
talvez,5604.878736123888,-6571.055241948991,8384.89930449716,10932.752303213156,-187500.02235174447,-187500.02235174447,-187500.02235174447,-187500.02235174447
talvez,5452.618652894336,-6582.566390343474,8021.571698376143,10976.561722345557,-187500.02235174447,-187500.02235174447,-187500.02235174447,-187500.02235174447
talvez,5350.426477244673,-6631.0920275559465,7572.279283080016,11001.372158690949,-187500.02235174447,-187500.02235174447,-187500.02235174447,-187500.02235174447
talvez,5513.795377468512,-6625.906422842315,7928.14140655296,10955.864006979944,-187500.02235174447,-187500.02235174447,-187500.02235174447,-187500.02235174447
talvez,5609.550250715048,-6578.096041452413,8372.829362491293,10928.460768277737,-187500.02235174447,-187500.02235174447,-187500.02235174447,-187500.02235174447
talvez,5483.1287840758305,-6582.074651965458,8111.090434919648,10965.721126284734,-187500.02235174447,-187500.02235174447,-187500.02235174447,-187500.02235174447
talvez,5343.765657396992,-6627.962783332203,7596.9779607031305,11005.395472692904,-187500.02235174447,-187500.02235174447,-187500.02235174447,-187500.02235174447
talvez,5469.315406002451,-6632.813111879005,7813.49930924169,10967.464562352248,-187500.02235174447,-187500.02235174447,-187500.02235174447,-187500.02235174447
talvez,5609.952582115243,-6581.851134520904,8338.832359174772,10933.333448568994,-187500.02235174447,-187500.02235174447,-187500.02235174447,-187500.02235174447
talvez,5511.739016978624,-6573.089250694425,8192.76370915934,10968.135114685907,-187500.02235174447,-187500.02235174447,-187500.02235174447,-187500.02235174447
talvez,5355.545026724938,-6617.055132038014,7656.187731765239,11015.61021990898,-187500.02235174447,-187500.02235174447,-187500.02235174447,-187500.02235174447
talvez,5425.9306700147,-6632.07550431198,7717.185642383772,10989.615141107457,-187500.02235174447,-187500.02235174447,-187500.02235174447,-187500.02235174447
talvez,5584.96333181421,-6582.052300221003,8280.49430614642,10951.25954762215,-187500.02235174447,-187500.02235174447,-187500.02235174447,-187500.02235174447
talvez,5526.737037508135,-6568.216570403168,8257.092029701715,10980.607388091968,-187500.02235174447,-187500.02235174447,-187500.02235174447,-187500.02235174447
talvez,5365.536256496461,-6605.633390621351,7720.940735452264,11028.596583437513,-187500.02235174447,-187500.02235174447,-187500.02235174447,-187500.02235174447
talvez,5382.322416582396,-6629.460350210709,7626.124635472851,11015.140833275418,-187500.02235174447,-187500.02235174447,-187500.02235174447,-187500.02235174447
talvez,5551.681584320258,-6586.656759578796,8190.886162625095,10970.325585642528,-187500.02235174447,-187500.02235174447,-187500.02235174447,-187500.02235174447
talvez,5523.384275839839,-6556.705422008685,8300.744986622929,10998.578190634036,-187500.02235174447,-187500.02235174447,-187500.02235174447,-187500.02235174447
talvez,5369.8948466652455,-6593.071710237469,7801.272905024637,11051.75299069321,-187500.02235174447,-187500.02235174447,-187500.02235174447,-187500.02235174447
talvez,5345.687907420148,-6634.064809568502,7558.577663728913,11050.590699981536,-187500.02235174447,-187500.02235174447,-187500.02235174447,-187500.02235174447
talvez,5528.055790430998,-6596.759748072594,8094.572495767176,11000.36633019046,-187500.02235174447,-187500.02235174447,-187500.02235174447,-187500.02235174447
talvez,5549.133485452353,-6552.950328940193,8336.820702173794,11006.334245960028,-187500.02235174447,-187500.02235174447,-187500.02235174447,-187500.02235174447
talvez,5382.747099727047,-6569.937654726226,7907.309580720614,11058.726734963268,-187500.02235174447,-187500.02235174447,-187500.02235174447,-187500.02235174447
talvez,5314.7754448384585,-6613.747073858628,7542.439704232181,11070.014365913197,-187500.02235174447,-187500.02235174447,-187500.02235174447,-187500.02235174447
talvez,5492.784737680524,-6599.039626007036,7987.6193985485315,11015.118481530963,-187500.02235174447,-187500.02235174447,-187500.02235174447,-187500.02235174447
talvez,5557.8506657899225,-6559.566445298964,8342.69921096554,11006.825984338044,-187500.02235174447,-187500.02235174447,-187500.02235174447,-187500.02235174447
talvez,5411.692608796669,-6572.77632627205,7999.82345102113,11055.642194228434,-187500.02235174447,-187500.02235174447,-187500.02235174447,-187500.02235174447
talvez,5303.308999932886,-6618.8879750833485,7547.424143245715,11087.538133566159,-187500.02235174447,-187500.02235174447,-187500.02235174447,-187500.02235174447
talvez,5448.282414470007,-6613.300038969522,7877.3805948949575,11032.016400339175,-187500.02235174447,-187500.02235174447,-187500.02235174447,-187500.02235174447
talvez,5538.963441725188,-6559.2982243655,8323.566117711796,11002.154469746885,-187500.02235174447,-187500.02235174447,-187500.02235174447,-187500.02235174447
talvez,5424.388399647284,-6565.020270946058,8082.681367716953,11054.435200027849,-187500.02235174447,-187500.02235174447,-187500.02235174447,-187500.02235174447
talvez,5285.472307857551,-6609.768463345584,7562.153942841762,11086.152325409928,-187500.02235174447,-187500.02235174447,-187500.02235174447,-187500.02235174447
talvez,5395.822870233402,-6614.797605848027,7765.085430751495,11038.654868442401,-187500.02235174447,-187500.02235174447,-187500.02235174447,-187500.02235174447
talvez,5529.195729398219,-6565.579064557442,8298.018073799381,11006.736577360223,-187500.02235174447,-187500.02235174447,-187500.02235174447,-187500.02235174447
talvez,5429.283431682996,-6562.271006378056,8165.785153601784,11046.902662146409,-187500.02235174447,-187500.02235174447,-187500.02235174447,-187500.02235174447
talvez,5270.943673961601,-6606.773329588572,7623.263612182572,11095.696520292346,-187500.02235174447,-187500.02235174447,-187500.02235174447,-187500.02235174447
talvez,5347.565453954394,-6623.291268741044,7671.431621483758,11062.705345476312,-187500.02235174447,-187500.02235174447,-187500.02235174447,-187500.02235174447
talvez,5510.040284400021,-6571.9269599827485,8239.098875415191,11017.174842020851,-187500.02235174447,-187500.02235174447,-187500.02235174447,-187500.02235174447
talvez,5450.65169938227,-6552.324480095444,8231.074599155736,11037.827853897556,-187500.02235174447,-187500.02235174447,-187500.02235174447,-187500.02235174447
talvez,5282.007787466978,-6590.523611369564,7700.354778808925,11083.33600560856,-187500.02235174447,-187500.02235174447,-187500.02235174447,-187500.02235174447
talvez,5298.682188830637,-6620.854928595416,7588.149021643284,11068.941482179342,-187500.02235174447,-187500.02235174447,-187500.02235174447,-187500.02235174447
talvez,5480.938313119211,-6579.079518208447,8158.543188398265,11021.958115334286,-187500.02235174447,-187500.02235174447,-187500.02235174447,-187500.02235174447
talvez,5455.703193629169,-6550.446933561198,8273.54291362082,11036.822025397067,-187500.02235174447,-187500.02235174447,-187500.02235174447,-187500.02235174447
talvez,5289.0485869704,-6583.751032799606,7783.011529804651,11083.514819564203,-187500.02235174447,-187500.02235174447,-187500.02235174447,-187500.02235174447
talvez,5274.9222844746455,-6621.726646629173,7540.562157697936,11083.850095731032,-187500.02235174447,-187500.02235174447,-187500.02235174447,-187500.02235174447
talvez,5460.017080309043,-6588.221381690667,8065.112896575081,11030.675295671857,-187500.02235174447,-187500.02235174447,-187500.02235174447,-187500.02235174447
talvez,5481.966493364155,-6549.284642849522,8311.920858850583,11027.188423536829,-187500.02235174447,-187500.02235174447,-187500.02235174447,-187500.02235174447
talvez,5320.586898396838,-6571.010538460081,7882.208571697304,11071.62369151398,-187500.02235174447,-187500.02235174447,-187500.02235174447,-187500.02235174447
talvez,5254.179865620121,-6617.7703878605835,7509.9849712830755,11085.370014353994,-187500.02235174447,-187500.02235174447,-187500.02235174447,-187500.02235174447
talvez,5429.752818316558,-6598.391425417832,7954.963499899328,11029.580060193546,-187500.02235174447,-187500.02235174447,-187500.02235174447,-187500.02235174447
talvez,5492.382406280328,-6550.938671939215,8320.615687443697,11019.566478677569,-187500.02235174447,-187500.02235174447,-187500.02235174447,-187500.02235174447
talvez,5344.279747519463,-6562.338061611422,7980.422136833923,11067.890950189943,-187500.02235174447,-187500.02235174447,-187500.02235174447,-187500.02235174447
talvez,5232.99041187649,-6613.009466291603,7516.802253341944,11095.24948540324,-187500.02235174447,-187500.02235174447,-187500.02235174447,-187500.02235174447
talvez,5390.190230630664,-6610.8413470794385,7847.943347447318,11051.66358371539,-187500.02235174447,-187500.02235174447,-187500.02235174447,-187500.02235174447
talvez,5492.002426624587,-6560.818142988461,8312.859632117705,11031.971696850265,-187500.02235174447,-187500.02235174447,-187500.02235174447,-187500.02235174447
talvez,5373.225256589086,-6558.605320287385,8077.831039170152,11062.14655186493,-187500.02235174447,-187500.02235174447,-187500.02235174447,-187500.02235174447
talvez,5237.192539834087,-6602.392387675332,7559.427030018214,11095.584761570068,-187500.02235174447,-187500.02235174447,-187500.02235174447,-187500.02235174447
talvez,5358.853084904324,-6613.635315136352,7748.098104965461,11056.022173884176,-187500.02235174447,-187500.02235174447,-187500.02235174447,-187500.02235174447
talvez,5503.0218366410545,-6562.382765100332,8282.885942803137,11019.387664721926,-187500.02235174447,-187500.02235174447,-187500.02235174447,-187500.02235174447
talvez,5413.324286141907,-6550.782209728028,8161.359508199634,11051.507121504203,-187500.02235174447,-187500.02235174447,-187500.02235174447,-187500.02235174447
talvez,5251.341194074296,-6594.457518393698,7617.429806879736,11088.655720788924,-187500.02235174447,-187500.02235174447,-187500.02235174447,-187500.02235174447
talvez,5315.758921594492,-6619.402065205821,7647.157627005295,11060.827798942066,-187500.02235174447,-187500.02235174447,-187500.02235174447,-187500.02235174447
talvez,5488.090871344909,-6570.876427993349,8220.47987228392,11021.265211256172,-187500.02235174447,-187500.02235174447,-187500.02235174447,-187500.02235174447
talvez,5432.904414284756,-6547.787075971017,8225.956049675471,11041.962926621787,-187500.02235174447,-187500.02235174447,-187500.02235174447,-187500.02235174447
talvez,5270.5189908169505,-6587.975512501659,7702.701711976732,11089.773308011689,-187500.02235174447,-187500.02235174447,-187500.02235174447,-187500.02235174447
talvez,5294.815337039869,-6623.73830363015,7585.7126814976555,11079.893836962443,-187500.02235174447,-187500.02235174447,-187500.02235174447,-187500.02235174447
talvez,5482.726452675635,-6583.393404888321,8153.849322062651,11028.820100882067,-187500.02235174447,-187500.02235174447,-187500.02235174447,-187500.02235174447
talvez,5463.123972788331,-6550.58104402793,8282.997701525415,11041.739409177233,-187500.02235174447,-187500.02235174447,-187500.02235174447,-187500.02235174447
talvez,5291.529630604939,-6580.264160664578,7793.203925276271,11093.14842142444,-187500.02235174447,-187500.02235174447,-187500.02235174447,-187500.02235174447
talvez,5267.657967526671,-6622.4642541961975,7530.436817459681,11087.448726588336,-187500.02235174447,-187500.02235174447,-187500.02235174447,-187500.02235174447
talvez,5456.641966896292,-6593.1164137263795,8051.0760010571485,11024.573269435557,-187500.02235174447,-187500.02235174447,-187500.02235174447,-187500.02235174447
talvez,5485.699234688192,-6551.273948106044,8314.446605974032,11030.027095082653,-187500.02235174447,-187500.02235174447,-187500.02235174447,-187500.02235174447
talvez,5331.405142713206,-6570.496448337609,7898.972380038784,11080.922017207387,-187500.02235174447,-187500.02235174447,-187500.02235174447,-187500.02235174447
talvez,5262.002976179478,-6618.2621262386,7520.132663265785,11091.114412679008,-187500.02235174447,-187500.02235174447,-187500.02235174447,-187500.02235174447
talvez,5436.212472464142,-6600.224268463167,7959.2103313458365,11034.89977537391,-187500.02235174447,-187500.02235174447,-187500.02235174447,-187500.02235174447
talvez,5501.300752317996,-6553.062087662469,8331.545690482342,11019.074740299553,-187500.02235174447,-187500.02235174447,-187500.02235174447,-187500.02235174447
talvez,5359.993023871544,-6565.467305835165,7996.1354131860035,11064.627595499469,-187500.02235174447,-187500.02235174447,-187500.02235174447,-187500.02235174447
talvez,5250.983566163011,-6616.585745404452,7528.8274918588995,11095.584761570068,-187500.02235174447,-187500.02235174447,-187500.02235174447,-187500.02235174447
talvez,5401.9472482141555,-6616.898669826826,7849.575024792555,11050.881272659455,-187500.02235174447,-187500.02235174447,-187500.02235174447,-187500.02235174447
talvez,5505.569935508959,-6564.461477334676,8321.643867688641,11023.500385701704,-187500.02235174447,-187500.02235174447,-187500.02235174447,-187500.02235174447
talvez,5387.686835251669,-6560.371108099354,8092.69494923293,11072.7636304812,-187500.02235174447,-187500.02235174447,-187500.02235174447,-187500.02235174447
talvez,5250.022441151434,-6604.694617354228,7572.636910991301,11105.687750063867,-187500.02235174447,-187500.02235174447,-187500.02235174447,-187500.02235174447
talvez,5363.099916350832,-6618.440940194242,7748.701602065755,11058.257348329706,-187500.02235174447,-187500.02235174447,-187500.02235174447,-187500.02235174447
talvez,5503.647685485803,-6569.691785537218,8288.049195772313,11017.510118187682,-187500.02235174447,-187500.02235174447,-187500.02235174447,-187500.02235174447
talvez,5414.106597197842,-6557.711250509174,8175.1058310396475,11044.779246423155,-187500.02235174447,-187500.02235174447,-187500.02235174447,-187500.02235174447
talvez,5257.309109843864,-6599.017274262581,7635.981754777641,11092.343758624049,-187500.02235174447,-187500.02235174447,-187500.02235174447,-187500.02235174447
talvez,5324.811378098891,-6624.1629867748015,7656.27713874306,11067.66743274539,-187500.02235174447,-187500.02235174447,-187500.02235174447,-187500.02235174447
talvez,5501.256048829085,-6578.2078001746895,8230.538157288809,11018.158318776885,-187500.02235174447,-187500.02235174447,-187500.02235174447,-187500.02235174447
talvez,5452.104562771865,-6554.58200628543,8249.045401697804,11040.554766721103,-187500.02235174447,-187500.02235174447,-187500.02235174447,-187500.02235174447
talvez,5280.353758377285,-6591.484736381142,7723.019447686607,11090.130935922973,-187500.02235174447,-187500.02235174447,-187500.02235174447,-187500.02235174447
talvez,5304.0913109888215,-6628.07454205448,7590.2277338776275,11080.005595684719,-187500.02235174447,-187500.02235174447,-187500.02235174447,-187500.02235174447
talvez,5492.18124058023,-6588.735471813139,8158.18556048698,11033.446911984314,-187500.02235174447,-187500.02235174447,-187500.02235174447,-187500.02235174447
talvez,5475.708004916669,-6554.9619859411705,8303.762472124396,11040.778284165655,-187500.02235174447,-187500.02235174447,-187500.02235174447,-187500.02235174447
talvez,5311.28857270343,-6583.639274077329,7821.948268645796,11086.420546343392,-187500.02235174447,-187500.02235174447,-187500.02235174447,-187500.02235174447
talvez,5277.112755431265,-6627.716914143195,7544.7419339110775,11088.499258577736,-187500.02235174447,-187500.02235174447,-187500.02235174447,-187500.02235174447
talvez,5457.647795396781,-6598.9278672847595,8056.216902281869,11028.350714248505,-187500.02235174447,-187500.02235174447,-187500.02235174447,-187500.02235174447
talvez,5487.532077733526,-6556.995994686604,8327.902356136126,11018.650057154902,-187500.02235174447,-187500.02235174447,-187500.02235174447,-187500.02235174447
talvez,5338.53534919445,-6578.252503663601,7923.827519873085,11062.682993731856,-187500.02235174447,-187500.02235174447,-187500.02235174447,-187500.02235174447
talvez,5262.807638979869,-6624.922946086282,7537.947003596664,11080.564389296102,-187500.02235174447,-187500.02235174447,-187500.02235174447,-187500.02235174447
talvez,5437.821798064923,-6607.935620300248,7961.825485447108,11028.7530456487,-187500.02235174447,-187500.02235174447,-187500.02235174447,-187500.02235174447
talvez,5515.963496680677,-6562.114544166869,8348.063629634813,11011.832775096032,-187500.02235174447,-187500.02235174447,-187500.02235174447,-187500.02235174447
talvez,5373.247608333541,-6572.284587894033,8023.471596654845,11053.496426760725,-187500.02235174447,-187500.02235174447,-187500.02235174447,-187500.02235174447
talvez,5249.128371373221,-6620.519652428586,7548.0276403460075,11085.48177307627,-187500.02235174447,-187500.02235174447,-187500.02235174447,-187500.02235174447
talvez,5395.331131855385,-6619.69263788374,7859.163923163882,11041.784112666144,-187500.02235174447,-187500.02235174447,-187500.02235174447,-187500.02235174447
talvez,5510.844947200411,-6569.244750648111,8334.74198993945,11009.195269250307,-187500.02235174447,-187500.02235174447,-187500.02235174447,-187500.02235174447
talvez,5398.236858634575,-6566.696651780207,8112.4091878425115,11042.342906277527,-187500.02235174447,-187500.02235174447,-187500.02235174447,-187500.02235174447
talvez,5254.224569109031,-6614.64114363684,7590.942989700197,11081.05612767412,-187500.02235174447,-187500.02235174447,-187500.02235174447,-187500.02235174447
talvez,5362.876398906279,-6626.934603087259,7754.602462601956,11047.215586568784,-187500.02235174447,-187500.02235174447,-187500.02235174447,-187500.02235174447
talvez,5516.477586803149,-6575.927922240248,8298.621570899675,11015.99019956472,-187500.02235174447,-187500.02235174447,-187500.02235174447,-187500.02235174447
talvez,5434.9831265191,-6564.930863968238,8198.865735395639,11045.539205734636,-187500.02235174447,-187500.02235174447,-187500.02235174447,-187500.02235174447
talvez,5275.838705997313,-6605.298114454522,7678.785345409554,11076.85399971652,-187500.02235174447,-187500.02235174447,-187500.02235174447,-187500.02235174447
talvez,5332.790950869436,-6628.163949032301,7682.115755333395,11050.121313347974,-187500.02235174447,-187500.02235174447,-187500.02235174447,-187500.02235174447
talvez,5502.172470351752,-6586.612056089885,8233.287421856812,10997.259437711173,-187500.02235174447,-187500.02235174447,-187500.02235174447,-187500.02235174447
talvez,5457.9383680747,-6560.996956944104,8281.902466047104,11011.8998303294,-187500.02235174447,-187500.02235174447,-187500.02235174447,-187500.02235174447
talvez,5274.028214696434,-6600.850117307916,7715.352799338437,11058.614976240991,-187500.02235174447,-187500.02235174447,-187500.02235174447,-187500.02235174447
talvez,5308.069921501866,-6635.495321213642,7581.398794817781,11055.396325039426,-187500.02235174447,-187500.02235174447,-187500.02235174447,-187500.02235174447
talvez,5502.507746518582,-6595.776271316561,8155.6151098746195,11011.050464040098,-187500.02235174447,-187500.02235174447,-187500.02235174447,-187500.02235174447
talvez,5490.035473112521,-6562.449820333698,8324.750760167928,11024.41680722437,-187500.02235174447,-187500.02235174447,-187500.02235174447,-187500.02235174447
talvez,5314.037837271433,-6590.680073580751,7844.79175147912,11062.23595884275,-187500.02235174447,-187500.02235174447,-187500.02235174447,-187500.02235174447
$SILENCE,5273.089441429311,-6633.528367701575,7544.92074786672,11053.205854082806,-187500.02235174447,-187500.02235174447,-187500.02235174447,-187500.02235174447
$SILENCE,5456.306690729462,-6607.220364477678,8049.332564989635,10992.409109164371,-187500.02235174447,-187500.02235174447,-187500.02235174447,-187500.02235174447
$SILENCE,5497.903287160789,-6567.009576202581,8332.797388171839,10992.27499869764,-187500.02235174447,-187500.02235174447,-187500.02235174447,-187500.02235174447
$SILENCE,5342.446904474128,-6585.472117122665,7932.231775788281,11035.7044381743,-187500.02235174447,-187500.02235174447,-187500.02235174447,-187500.02235174447
$SILENCE,5262.271197112942,-6629.460350210709,7541.63504143179,11053.630537227456,-187500.02235174447,-187500.02235174447,-187500.02235174447,-187500.02235174447
$SILENCE,5438.425295165217,-6616.78691110455,7963.971252914817,11003.026187780642,-187500.02235174447,-187500.02235174447,-187500.02235174447,-187500.02235174447
$SILENCE,5508.274496588051,-6571.323462882455,8356.110257638724,10984.630702093924,-187500.02235174447,-187500.02235174447,-187500.02235174447,-187500.02235174447
$SILENCE,5367.994948386544,-6576.464364107176,8036.97205030585,11029.445949726814,-187500.02235174447,-187500.02235174447,-187500.02235174447,-187500.02235174447
$SILENCE,5250.380069062719,-6624.699428641728,7553.213245059639,11059.330232063561,-187500.02235174447,-187500.02235174447,-187500.02235174447,-187500.02235174447
$SILENCE,5404.83062324889,-6627.247527509633,7849.127989903449,11016.101958286996,-187500.02235174447,-187500.02235174447,-187500.02235174447,-187500.02235174447
$SILENCE,5527.2064241416965,-6576.866695507371,8335.524300995387,10985.636530594413,-187500.02235174447,-187500.02235174447,-187500.02235174447,-187500.02235174447
$SILENCE,5407.7587017725355,-6572.686919294229,8126.960173482916,11021.488728700726,-187500.02235174447,-187500.02235174447,-187500.02235174447,-187500.02235174447
$SILENCE,5265.623958781238,-6619.156196016812,7601.828289249932,11060.492522775236,-187500.02235174447,-187500.02235174447,-187500.02235174447,-187500.02235174447
$SILENCE,5372.4205937886945,-6631.851986867427,7750.288575922082,11020.192327522318,-187500.02235174447,-187500.02235174447,-187500.02235174447,-187500.02235174447
$SILENCE,5525.530043307548,-6583.1922391882235,8303.002512812915,10977.992233990697,-187500.02235174447,-187500.02235174447,-187500.02235174447,-187500.02235174447
$SILENCE,5441.174559733219,-6569.982358215137,8214.176680347524,11007.854164582988,-187500.02235174447,-187500.02235174447,-187500.02235174447,-187500.02235174447
$SILENCE,5274.296435629897,-6611.623658135374,7675.499638974624,11052.065915115585,-187500.02235174447,-187500.02235174447,-187500.02235174447,-187500.02235174447
$SILENCE,5326.823035099868,-6637.283460770066,7666.000147581119,11022.069874056564,-187500.02235174447,-187500.02235174447,-187500.02235174447,-187500.02235174447
$SILENCE,5507.447482043205,-6592.78113755955,8241.736381260918,10969.811495520056,-187500.02235174447,-187500.02235174447,-187500.02235174447,-187500.02235174447
$SILENCE,5466.856714112368,-6568.73066052564,8282.505963147398,10994.778394076633,-187500.02235174447,-187500.02235174447,-187500.02235174447,-187500.02235174447
$SILENCE,5296.603476596293,-6603.822899320472,7757.418782403324,11043.28167954465,-187500.02235174447,-187500.02235174447,-187500.02235174447,-187500.02235174447
$SILENCE,5306.952334279101,-6639.809207893516,7598.319065370449,11030.98822009423,-187500.02235174447,-187500.02235174447,-187500.02235174447,-187500.02235174447
$SILENCE,5489.7001969456915,-6601.49831789712,8160.219569232413,10975.555893845069,-187500.02235174447,-187500.02235174447,-187500.02235174447,-187500.02235174447
$SILENCE,5484.581647465426,-6567.255445391589,8323.856690389715,10980.763850303156,-187500.02235174447,-187500.02235174447,-187500.02235174447,-187500.02235174447
$SILENCE,5318.821110584869,-6593.965780015681,7848.300975358603,11030.27296427166,-187500.02235174447,-187500.02235174447,-187500.02235174447,-187500.02235174447
$SILENCE,5281.225476411042,-6636.925832858781,7553.168541570729,11035.145644562917,-187500.02235174447,-187500.02235174447,-187500.02235174447,-187500.02235174447
$SILENCE,5471.528228703526,-6610.215498234689,8066.364594264579,10985.949455016787,-187500.02235174447,-187500.02235174447,-187500.02235174447,-187500.02235174447
$SILENCE,5507.827461698945,-6567.277797136045,8361.854655963738,10982.663748581857,-187500.02235174447,-187500.02235174447,-187500.02235174447,-187500.02235174447
$SILENCE,5348.973613855078,-6584.645102577818,7960.663194735432,11023.813310124078,-187500.02235174447,-187500.02235174447,-187500.02235174447,-187500.02235174447
$SILENCE,5260.28189185642,-6630.823806622482,7554.174370071218,11041.270022543673,-187500.02235174447,-187500.02235174447,-187500.02235174447,-187500.02235174447
$SILENCE,5430.557481116949,-6618.21742274969,7964.239473848281,10989.995120763198,-187500.02235174447,-187500.02235174447,-187500.02235174447,-187500.02235174447
$SILENCE,5510.084987888931,-6570.0494134485025,8361.564083285819,10970.16912343134,-187500.02235174447,-187500.02235174447,-187500.02235174447,-187500.02235174447
$SILENCE,5380.668387492703,-6580.01829147557,8053.199416780403,11015.18553676433,-187500.02235174447,-187500.02235174447,-187500.02235174447,-187500.02235174447
$SILENCE,5263.61230178026,-6629.616812421896,7566.624291732824,11045.740371434733,-187500.02235174447,-187500.02235174447,-187500.02235174447,-187500.02235174447
$SILENCE,5402.818966247913,-6631.516710700597,7847.988050936228,11000.209867979273,-187500.02235174447,-187500.02235174447,-187500.02235174447,-187500.02235174447
$SILENCE,5520.23267987164,-6580.06299496448,8341.693382465051,10969.878550753421,-187500.02235174447,-187500.02235174447,-187500.02235174447,-187500.02235174447
$SILENCE,5410.552669829449,-6575.637349562329,8146.450894647944,11004.814327337066,-187500.02235174447,-187500.02235174447,-187500.02235174447,-187500.02235174447
$SILENCE,5261.779458734925,-6621.145501273335,7618.659152824778,11045.986240623743,-187500.02235174447,-187500.02235174447,-187500.02235174447,-187500.02235174447
$SILENCE,5356.908483136712,-6634.511844457608,7752.657860834344,11012.235106496228,-187500.02235174447,-187500.02235174447,-187500.02235174447,-187500.02235174447
$SILENCE,5513.258935601585,-6585.986207245137,8304.857707602705,10969.230350164218,-187500.02235174447,-187500.02235174447,-187500.02235174447,-187500.02235174447
$SILENCE,5435.564271874938,-6570.831724504438,8227.58772702071,10996.119498743952,-187500.02235174447,-187500.02235174447,-187500.02235174447,-187500.02235174447
$SILENCE,5267.546208804394,-6611.73541685765,7686.675511202277,11039.481882987247,-187500.02235174447,-187500.02235174447,-187500.02235174447,-187500.02235174447
$SILENCE,5324.140825765232,-6638.423399737287,7665.620167925378,11017.376007720948,-187500.02235174447,-187500.02235174447,-187500.02235174447,-187500.02235174447
$SILENCE,5509.23562159963,-6594.144593971324,8246.474951085444,10971.040841465097,-187500.02235174447,-187500.02235174447,-187500.02235174447,-187500.02235174447
$SILENCE,5466.074403056432,-6568.373032614355,8298.26394298839,10988.631664351424,-187500.02235174447,-187500.02235174447,-187500.02235174447,-187500.02235174447
$SILENCE,5291.775499793947,-6601.945352786226,7775.903675067863,11034.51979571817,-187500.02235174447,-187500.02235174447,-187500.02235174447,-187500.02235174447
$SILENCE,5295.485889373528,-6640.122132315891,7596.933257214219,11028.104845059497,-187500.02235174447,-187500.02235174447,-187500.02235174447,-187500.02235174447
$SILENCE,5490.348397534895,-6604.851079565416,8154.3857639295775,10973.901864755377,-187500.02235174447,-187500.02235174447,-187500.02235174447,-187500.02235174447
$SILENCE,5484.671054443247,-6567.814239002972,8336.552481240331,10979.914484013854,-187500.02235174447,-187500.02235174447,-187500.02235174447,-187500.02235174447
$SILENCE,5312.361456437285,-6594.122242226868,7864.975376722262,11027.188423536829,-187500.02235174447,-187500.02235174447,-187500.02235174447,-187500.02235174447
$SILENCE,5273.447069340596,-6639.384524748865,7556.856579405854,11035.793845152122,-187500.02235174447,-187500.02235174447,-187500.02235174447,-187500.02235174447
$SILENCE,5461.067612298442,-6611.847175579927,8061.715431417875,10984.787164305111,-187500.02235174447,-187500.02235174447,-187500.02235174447,-187500.02235174447
$SILENCE,5501.680731973735,-6565.735526768628,8366.213246132524,10981.255588681173,-187500.02235174447,-187500.02235174447,-187500.02235174447,-187500.02235174447
$SILENCE,5347.923081865679,-6583.0804804659465,7970.475610551312,11026.160243291884,-187500.02235174447,-187500.02235174447,-187500.02235174447,-187500.02235174447
$SILENCE,5259.052545911378,-6631.136731044857,7547.982936857097,11044.511025489692,-187500.02235174447,-187500.02235174447,-187500.02235174447,-187500.02235174447
$SILENCE,5428.165844460231,-6618.910326827804,7950.068467863616,10993.325530687038,-187500.02235174447,-187500.02235174447,-187500.02235174447,-187500.02235174447
$SILENCE,5510.643781500314,-6568.708308781184,8362.927539697594,10974.259492666662,-187500.02235174447,-187500.02235174447,-187500.02235174447,-187500.02235174447
$SILENCE,5375.505134523527,-6576.956102485193,8067.660995442987,11019.722940888756,-187500.02235174447,-187500.02235174447,-187500.02235174447,-187500.02235174447
$SILENCE,5250.201255107076,-6626.621678664885,7575.140306370296,11050.925976148364,-187500.02235174447,-187500.02235174447,-187500.02235174447,-187500.02235174447
$SILENCE,5386.278675350985,-6628.7450943881395,7841.729562488743,11003.115594758463,-187500.02235174447,-187500.02235174447,-187500.02235174447,-187500.02235174447
$SILENCE,5514.153005379797,-6576.7996402740055,8344.464998777508,10973.097201954986,-187500.02235174447,-187500.02235174447,-187500.02235174447,-187500.02235174447
$SILENCE,5407.199908161153,-6571.122297182357,8160.04075527677,11009.7987663506,-187500.02235174447,-187500.02235174447,-187500.02235174447,-187500.02235174447
$SILENCE,5255.632729009715,-6617.390408204843,7627.13046397334,11050.657755214901,-187500.02235174447,-187500.02235174447,-187500.02235174447,-187500.02235174447
$SILENCE,5348.526578965972,-6632.410780478809,7744.34301189697,11018.27007749916,-187500.02235174447,-187500.02235174447,-187500.02235174447,-187500.02235174447
$SILENCE,5508.989752410621,-6583.862791521882,8298.330998221756,10974.550065344582,-187500.02235174447,-187500.02235174447,-187500.02235174447,-187500.02235174447
$SILENCE,5438.31353644294,-6568.127163425346,8231.566337533754,10999.874591812444,-187500.02235174447,-187500.02235174447,-187500.02235174447,-187500.02235174447
$SILENCE,5272.955330962579,-6609.008504034103,7693.917476405797,11048.266118558184,-187500.02235174447,-187500.02235174447,-187500.02235174447,-187500.02235174447
$SILENCE,5317.614116384282,-6637.596385192441,7654.064316041985,11028.440121226326,-187500.02235174447,-187500.02235174447,-187500.02235174447,-187500.02235174447
$SILENCE,5495.42224352625,-6592.311750925988,8229.420570066044,10981.143829958895,-187500.02235174447,-187500.02235174447,-187500.02235174447,-187500.02235174447
$SILENCE,5459.301824486473,-6565.9366924687265,8293.368910952677,10997.594713878003,-187500.02235174447,-187500.02235174447,-187500.02235174447,-187500.02235174447
$SILENCE,5285.919342746656,-6600.1572132298015,7777.423593690824,11043.907528389398,-187500.02235174447,-187500.02235174447,-187500.02235174447,-187500.02235174447
$SILENCE,5286.969874736056,-6637.819902636994,7588.908980954765,11037.336115519538,-187500.02235174447,-187500.02235174447,-187500.02235174447,-187500.02235174447
$SILENCE,5473.696347915691,-6601.364207430388,8145.46741789191,10983.55781836007,-187500.02235174447,-187500.02235174447,-187500.02235174447,-187500.02235174447
$SILENCE,5473.696347915691,-6564.193256401212,8342.296879565345,10996.432423166327,-187500.02235174447,-187500.02235174447,-187500.02235174447,-187500.02235174447
$SILENCE,5299.062168486377,-6588.511954368586,7879.079327473561,11047.707324946801,-187500.02235174447,-187500.02235174447,-187500.02235174447,-187500.02235174447
$SILENCE,5252.861112697257,-6635.540024702553,7553.436762504192,11048.601394725012,-187500.02235174447,-187500.02235174447,-187500.02235174447,-187500.02235174447
$SILENCE,5447.1424755027865,-6613.501204669619,8044.124608531548,10983.535466615614,-187500.02235174447,-187500.02235174447,-187500.02235174447,-187500.02235174447
$SILENCE,5497.053920871487,-6569.423564603754,8357.60782451723,10975.690004311802,-187500.02235174447,-187500.02235174447,-187500.02235174447,-187500.02235174447
$SILENCE,5344.43620973065,-6584.354529899899,7970.4309070624,11023.679199657345,-187500.02235174447,-187500.02235174447,-187500.02235174447,-187500.02235174447
$SILENCE,5246.446162038585,-6630.488530455653,7540.316288508927,11044.220452811773,-187500.02235174447,-187500.02235174447,-187500.02235174447,-187500.02235174447
$SILENCE,5412.050236707954,-6617.725684371672,7931.42711298789,10992.207943464273,-187500.02235174447,-187500.02235174447,-187500.02235174447,-187500.02235174447
$SILENCE,5496.763348193568,-6567.769535514061,8356.110257638724,10972.560760088058,-187500.02235174447,-187500.02235174447,-187500.02235174447,-187500.02235174447
$SILENCE,5363.055212861921,-6573.782154772539,8067.102201831603,11014.805557108588,-187500.02235174447,-187500.02235174447,-187500.02235174447,-187500.02235174447
$SILENCE,5241.215853836043,-6623.35832397441,7570.513495268046,11047.617917968979,-187500.02235174447,-187500.02235174447,-187500.02235174447,-187500.02235174447
$SILENCE,5381.428346804184,-6629.88503335536,7831.0677803835615,11005.7978040931,-187500.02235174447,-187500.02235174447,-187500.02235174447,-187500.02235174447
$SILENCE,5506.665170987269,-6578.54307634152,8340.061705119813,10971.97961473222,-187500.02235174447,-187500.02235174447,-187500.02235174447,-187500.02235174447
$SILENCE,5395.711111511125,-6572.329291382944,8160.04075527677,11007.116557015963,-187500.02235174447,-187500.02235174447,-187500.02235174447,-187500.02235174447
$SILENCE,5241.886406169701,-6620.07261753948,7615.7087225566775,11043.549900478114,-187500.02235174447,-187500.02235174447,-187500.02235174447,-187500.02235174447
$SILENCE,5345.956128353611,-6637.283460770066,7721.208956385727,11008.211792494272,-187500.02235174447,-187500.02235174447,-187500.02235174447,-187500.02235174447
$SILENCE,5516.8799182033445,-6587.550829357008,8290.127908006658,10966.771658274134,-187500.02235174447,-187500.02235174447,-187500.02235174447,-187500.02235174447
$SILENCE,5447.477751669616,-6571.010538460081,8238.987116692915,10996.924161544342,-187500.02235174447,-187500.02235174447,-187500.02235174447,-187500.02235174447
$SILENCE,5280.152592677187,-6611.467195924187,7697.091424118451,11045.986240623743,-187500.02235174447,-187500.02235174447,-187500.02235174447,-187500.02235174447
$SILENCE,5322.978535053556,-6637.3728677478875,7644.944804304219,11026.048484569608,-187500.02235174447,-187500.02235174447,-187500.02235174447,-187500.02235174447
$SILENCE,5501.0325313845315,-6591.127108469857,8227.38656132061,10980.473277625237,-187500.02235174447,-187500.02235174447,-187500.02235174447,-187500.02235174447
$SILENCE,5460.3523564758725,-6562.539227311519,8301.728463378962,11001.662731368868,-187500.02235174447,-187500.02235174447,-187500.02235174447,-187500.02235174447
$SILENCE,5278.789136265414,-6592.959951515192,7784.77731761662,11049.987202881242,-187500.02235174447,-187500.02235174447,-187500.02235174447,-187500.02235174447
$SILENCE,5265.0428134254,-6631.3155450005,7580.504725039569,11042.789941166633,-187500.02235174447,-187500.02235174447,-187500.02235174447,-187500.02235174447
$SILENCE,5455.658490140258,-6596.804451561506,8135.1856154424695,10987.670539339846,-187500.02235174447,-187500.02235174447,-187500.02235174447,-187500.02235174447
$SILENCE,5465.068574555943,-6560.505218566087,8338.765303941405,10994.443117909805,-187500.02235174447,-187500.02235174447,-187500.02235174447,-187500.02235174447
$SILENCE,5300.447976642607,-6586.1873729452345,7878.721699562276,11042.991106866732,-187500.02235174447,-187500.02235174447,-187500.02235174447,-187500.02235174447
$SILENCE,5247.161417861154,-6629.2144810217005,7546.306556022949,11053.965813394287,-187500.02235174447,-187500.02235174447,-187500.02235174447,-187500.02235174447
$SILENCE,5430.155149716753,-6607.220364477678,8031.607631636576,10999.941647045809,-187500.02235174447,-187500.02235174447,-187500.02235174447,-187500.02235174447
$SILENCE,5477.473792728638,-6563.142724411813,8358.256025106433,10991.827963808533,-187500.02235174447,-187500.02235174447,-187500.02235174447,-187500.02235174447
$SILENCE,5320.318677463374,-6576.9784542296475,7982.2773316237135,11042.074685344063,-187500.02235174447,-187500.02235174447,-187500.02235174447,-187500.02235174447
$SILENCE,5223.803844905358,-6624.699428641728,7543.6243466883125,11061.744220464734,-187500.02235174447,-187500.02235174447,-187500.02235174447,-187500.02235174447
$SILENCE,5396.783995244979,-6617.971553560681,7919.647743659943,11008.435309938826,-187500.02235174447,-187500.02235174447,-187500.02235174447,-187500.02235174447
$SILENCE,5489.096699845398,-6567.970701214159,8353.740972726462,10985.904751527876,-187500.02235174447,-187500.02235174447,-187500.02235174447,-187500.02235174447
$SILENCE,5351.63347144526,-6569.557675070486,8077.719280447875,11030.496481716214,-187500.02235174447,-187500.02235174447,-187500.02235174447,-187500.02235174447
$SILENCE,5218.215908791532,-6618.195071005234,7575.0285476480185,11066.371031566981,-187500.02235174447,-187500.02235174447,-187500.02235174447,-187500.02235174447
$SILENCE,5350.091201077843,-6624.006524563614,7820.227184322737,11024.215641524273,-187500.02235174447,-187500.02235174447,-187500.02235174447,-187500.02235174447
$SILENCE,5481.27358928604,-6572.441050105221,8332.395056771644,10989.816306807556,-187500.02235174447,-187500.02235174447,-187500.02235174447,-187500.02235174447
$SILENCE,5376.734480468569,-6563.366241856366,8159.839589576673,11024.215641524273,-187500.02235174447,-187500.02235174447,-187500.02235174447,-187500.02235174447
$SILENCE,5222.50744372695,-6609.2096697342,7618.905022013787,11066.929825178364,-187500.02235174447,-187500.02235174447,-187500.02235174447,-187500.02235174447
$SILENCE,5311.1991657256085,-6627.672210654285,7713.341142337459,11034.408036995894,-187500.02235174447,-187500.02235174447,-187500.02235174447,-187500.02235174447
$SILENCE,5473.472830471138,-6577.760765285584,8283.73530909244,10991.760908575166,-187500.02235174447,-187500.02235174447,-187500.02235174447,-187500.02235174447
$SILENCE,5405.948210471655,-6561.622805788852,8242.384581850121,11017.711283887778,-187500.02235174447,-187500.02235174447,-187500.02235174447,-187500.02235174447
$SILENCE,5235.806731677858,-6602.750015586617,7692.576371738479,11061.632461742456,-187500.02235174447,-187500.02235174447,-187500.02235174447,-187500.02235174447
$SILENCE,5276.643368797704,-6632.9695740901925,7624.98469650563,11043.259327800195,-187500.02235174447,-187500.02235174447,-187500.02235174447,-187500.02235174447
$SILENCE,5465.202685022675,-6588.266085179578,8206.733549443907,10992.856144053478,-187500.02235174447,-187500.02235174447,-187500.02235174447,-187500.02235174447
$SILENCE,5435.787789319491,-6558.605320287385,8296.811079598794,11008.882344827933,-187500.02235174447,-187500.02235174447,-187500.02235174447,-187500.02235174447
$SILENCE,5262.539418046405,-6591.618846847874,7791.438137464302,11057.09505761803,-187500.02235174447,-187500.02235174447,-187500.02235174447,-187500.02235174447
$SILENCE,5249.217778351042,-6630.935565344759,7573.6874429807,11052.580005238058,-187500.02235174447,-187500.02235174447,-187500.02235174447,-187500.02235174447
$SILENCE,5441.778056833513,-6597.430300406254,8120.902850735528,10995.180725476828,-187500.02235174447,-187500.02235174447,-187500.02235174447,-187500.02235174447
$SILENCE,5453.356260461362,-6559.611148787874,8336.619536473696,10998.689949356312,-187500.02235174447,-187500.02235174447,-187500.02235174447,-187500.02235174447
$SILENCE,5286.008749724478,-6582.745204299117,7885.494278132234,11048.556691236103,-187500.02235174447,-187500.02235174447,-187500.02235174447,-187500.02235174447
$SILENCE,5224.899080383669,-6628.521576943586,7537.8128931299325,11058.972604152275,-187500.02235174447,-187500.02235174447,-187500.02235174447,-187500.02235174447
$SILENCE,5410.083283195888,-6605.611038876897,8016.140224473504,11005.171955248352,-187500.02235174447,-187500.02235174447,-187500.02235174447,-187500.02235174447
$SILENCE,5467.236693768107,-6559.879369721338,8353.942138426559,10998.354673189482,-187500.02235174447,-187500.02235174447,-187500.02235174447,-187500.02235174447
$SILENCE,5311.042703514422,-6573.558637327986,7984.378395602513,11043.594603967023,-187500.02235174447,-187500.02235174447,-187500.02235174447,-187500.02235174447
$SILENCE,5214.416112234129,-6622.9336408297595,7539.8692536198205,11065.43225829986,-187500.02235174447,-187500.02235174447,-187500.02235174447,-187500.02235174447
$SILENCE,5384.736404983569,-6616.585745404452,7906.236696986759,11013.732673374734,-187500.02235174447,-187500.02235174447,-187500.02235174447,-187500.02235174447
$SILENCE,5480.670092185747,-6565.802582001995,8349.628251746684,10991.917370786354,-187500.02235174447,-187500.02235174447,-187500.02235174447,-187500.02235174447
$SILENCE,5352.840465645846,-6568.77536401455,8081.4743735163665,11033.55867070659,-187500.02235174447,-187500.02235174447,-187500.02235174447,-187500.02235174447
$SILENCE,5216.293658768375,-6615.69167562624,7570.893474923787,11064.068801888085,-187500.02235174447,-187500.02235174447,-187500.02235174447,-187500.02235174447
$SILENCE,5341.932814351656,-6621.2349082511555,7800.177669546327,11023.366275234972,-187500.02235174447,-187500.02235174447,-187500.02235174447,-187500.02235174447
$SILENCE,5481.340644519406,-6570.8093727599835,8326.494196235442,10992.498516142192,-187500.02235174447,-187500.02235174447,-187500.02235174447,-187500.02235174447
$SILENCE,5386.479841051083,-6564.573236056953,8177.341005485178,11022.27103975666,-187500.02235174447,-187500.02235174447,-187500.02235174447,-187500.02235174447
$SILENCE,5227.625993207216,-6608.986152289647,7627.979830262641,11064.560540266102,-187500.02235174447,-187500.02235174447,-187500.02235174447,-187500.02235174447
$SILENCE,5309.679247102648,-6628.968611832692,7702.701711976732,11033.357505006494,-187500.02235174447,-187500.02235174447,-187500.02235174447,-187500.02235174447
$SILENCE,5473.673996171236,-6581.068823464969,8274.794611310317,10986.016510250152,-187500.02235174447,-187500.02235174447,-187500.02235174447,-187500.02235174447
$SILENCE,5409.815062262423,-6561.622805788852,8245.379715607132,11010.89400182891,-187500.02235174447,-187500.02235174447,-187500.02235174447,-187500.02235174447
$SILENCE,5238.600699734771,-6600.492489396631,7706.322694578493,11059.419639041382,-187500.02235174447,-187500.02235174447,-187500.02235174447,-187500.02235174447
$SILENCE,5273.759993762969,-6631.829635122971,7620.2237749366495,11043.058162100097,-187500.02235174447,-187500.02235174447,-187500.02235174447,-187500.02235174447
$SILENCE,5461.805219865468,-6589.316617168977,8198.396348762077,10990.777431819133,-187500.02235174447,-187500.02235174447,-187500.02235174447,-187500.02235174447
$SILENCE,5438.3358881873955,-6560.505218566087,8308.07635880427,11005.7978040931,-187500.02235174447,-187500.02235174447,-187500.02235174447,-187500.02235174447
$SILENCE,5266.942711704101,-6592.9375997707375,7800.40118699088,11053.42937152736,-187500.02235174447,-187500.02235174447,-187500.02235174447,-187500.02235174447
$SILENCE,5253.598720264283,-6632.947222345737,7572.771021458033,11052.959984893798,-187500.02235174447,-187500.02235174447,-187500.02235174447,-187500.02235174447
$SILENCE,5445.711963857647,-6599.777233574061,8116.410150100011,10996.812402822066,-187500.02235174447,-187500.02235174447,-187500.02235174447,-187500.02235174447
$SILENCE,5456.530208174016,-6561.801619744494,8339.726428952985,10996.454774910782,-187500.02235174447,-187500.02235174447,-187500.02235174447,-187500.02235174447
$SILENCE,5289.965008493067,-6583.058128721492,7894.0549962586165,11044.578080723059,-187500.02235174447,-187500.02235174447,-187500.02235174447,-187500.02235174447
$SILENCE,5229.458836252551,-6630.488530455653,7540.942137353675,11059.129066363463,-187500.02235174447,-187500.02235174447,-187500.02235174447,-187500.02235174447
$SILENCE,5412.497271597061,-6609.723759856673,8010.909916270962,11006.714225615768,-187500.02235174447,-187500.02235174447,-187500.02235174447,-187500.02235174447
$SILENCE,5467.41550772375,-6563.656814534284,8366.101487410246,10995.694815599301,-187500.02235174447,-187500.02235174447,-187500.02235174447,-187500.02235174447
$SILENCE,5322.285630975442,-6576.39730887381,8004.450262123378,11040.621821954468,-187500.02235174447,-187500.02235174447,-187500.02235174447,-187500.02235174447
$SILENCE,5215.399588990163,-6625.213518764201,7545.63600368929,11061.364240808993,-187500.02235174447,-187500.02235174447,-187500.02235174447,-187500.02235174447
$SILENCE,5377.919122924701,-6618.150367516323,7897.497164904734,11009.977580306242,-187500.02235174447,-187500.02235174447,-187500.02235174447,-187500.02235174447
$SILENCE,5479.641911940803,-6568.06010819198,8350.209397102522,10985.278902683129,-187500.02235174447,-187500.02235174447,-187500.02235174447,-187500.02235174447
$SILENCE,5350.58293945586,-6569.669433792763,8093.298446333224,11025.75791189169,-187500.02235174447,-187500.02235174447,-187500.02235174447,-187500.02235174447
$SILENCE,5213.611449433738,-6618.0609605385025,7571.921655168731,11063.9123396769,-187500.02235174447,-187500.02235174447,-187500.02235174447,-187500.02235174447
$SILENCE,5338.110666049799,-6626.97930657617,7786.498401939679,11020.885231600432,-187500.02235174447,-187500.02235174447,-187500.02235174447,-187500.02235174447
$SILENCE,5480.379519507828,-6575.793811773517,8331.635097460163,10987.491725384203,-187500.02235174447,-187500.02235174447,-187500.02235174447,-187500.02235174447
$SILENCE,5382.545934026949,-6566.473134335653,8180.537304942287,11020.013513566675,-187500.02235174447,-187500.02235174447,-187500.02235174447,-187500.02235174447
$SILENCE,5224.69791468357,-6609.232021478656,7632.7854553205325,11062.392421053937,-187500.02235174447,-187500.02235174447,-187500.02235174447,-187500.02235174447
$SILENCE,5299.777424308947,-6629.437998466254,7688.6648164588,11030.205909038295,-187500.02235174447,-187500.02235174447,-187500.02235174447,-187500.02235174447
$SILENCE,5468.51074320206,-6580.599436831408,8263.506980360387,10985.010681749663,-187500.02235174447,-187500.02235174447,-187500.02235174447,-187500.02235174447
$SILENCE,5410.999704718555,-6561.7122127666735,8247.681945286029,11009.999932050698,-187500.02235174447,-187500.02235174447,-187500.02235174447,-187500.02235174447
$SILENCE,5240.0535631243665,-6601.118338241379,7711.463595803213,11056.37980179546,-187500.02235174447,-187500.02235174447,-187500.02235174447,-187500.02235174447
$SILENCE,5266.562732048361,-6631.539062445052,7618.301524913493,11041.828816155055,-187500.02235174447,-187500.02235174447,-187500.02235174447,-187500.02235174447
$SILENCE,5445.622556879825,-6588.042567735025,8192.942523114983,10991.626798108435,-187500.02235174447,-187500.02235174447,-187500.02235174447,-187500.02235174447
$SILENCE,5425.1930624476745,-6556.951291197693,8306.779957625862,11004.032016281131,-187500.02235174447,-187500.02235174447,-187500.02235174447,-187500.02235174447
$SILENCE,5260.036022667411,-6588.199029946212,7808.894849883896,11057.028002384664,-187500.02235174447,-187500.02235174447,-187500.02235174447,-187500.02235174447
$SILENCE,5243.316917814841,-6629.348591488432,7564.567931242935,11054.792827939133,-187500.02235174447,-187500.02235174447,-187500.02235174447,-187500.02235174447
$SILENCE,5439.252309710063,-6597.966742273181,8104.876649961073,10999.852240067989,-187500.02235174447,-187500.02235174447,-187500.02235174447,-187500.02235174447
$SILENCE,5459.525341931027,-6559.253520876589,8344.710867966518,11000.79101333511,-187500.02235174447,-187500.02235174447,-187500.02235174447,-187500.02235174447
$SILENCE,5290.993188738012,-6580.264160664578,7904.873240574985,11048.154359835908,-187500.02235174447,-187500.02235174447,-187500.02235174447,-187500.02235174447
$SILENCE,5224.586155961294,-6627.247527509633,7541.29976526496,11062.638290242945,-187500.02235174447,-187500.02235174447,-187500.02235174447,-187500.02235174447
$SILENCE,5404.607105804337,-6606.661570866296,7999.264657409747,11008.41295819437,-187500.02235174447,-187500.02235174447,-187500.02235174447,-187500.02235174447
$SILENCE,5468.242522268596,-6559.030003432036,8356.17731287209,10995.717167343757,-187500.02235174447,-187500.02235174447,-187500.02235174447,-187500.02235174447
$SILENCE,5322.419741442173,-6570.563503570975,8006.417215635445,11041.493539988225,-187500.02235174447,-187500.02235174447,-187500.02235174447,-187500.02235174447
$SILENCE,5216.092493068278,-6618.2621262386,7548.429971746204,11065.342851322039,-187500.02235174447,-187500.02235174447,-187500.02235174447,-187500.02235174447
$SILENCE,5368.710204209114,-6612.227155235667,7885.963664765795,11012.7491966187,-187500.02235174447,-187500.02235174447,-187500.02235174447,-187500.02235174447
$SILENCE,5472.981092093121,-6562.561579055975,8343.481522021475,10986.329434672527,-187500.02235174447,-187500.02235174447,-187500.02235174447,-187500.02235174447
$SILENCE,5350.359422011307,-6564.3497186124,8096.003007412316,11030.09415031602,-187500.02235174447,-187500.02235174447,-187500.02235174447,-187500.02235174447
$SILENCE,5210.102225554255,-6611.623658135374,7576.950797671176,11067.399211811926,-187500.02235174447,-187500.02235174447,-187500.02235174447,-187500.02235174447
$SILENCE,5330.511072934994,-6620.340838472944,7780.105803025461,11026.964906092277,-187500.02235174447,-187500.02235174447,-187500.02235174447,-187500.02235174447
$SILENCE,5468.577798435426,-6569.602378559396,8315.094806563236,10990.665673096857,-187500.02235174447,-187500.02235174447,-187500.02235174447,-187500.02235174447
$SILENCE,5379.863724692313,-6559.901721465793,8180.470249708921,11022.829833368043,-187500.02235174447,-187500.02235174447,-187500.02235174447,-187500.02235174447
$SILENCE,5220.7416559149815,-6604.851079565416,7636.22762396665,11064.851112944021,-187500.02235174447,-187500.02235174447,-187500.02235174447,-187500.02235174447
$SILENCE,5295.9329242626345,-6627.091065298447,7684.976778623674,11036.643211441424,-187500.02235174447,-187500.02235174447,-187500.02235174447,-187500.02235174447
$SILENCE,5464.956815833666,-6578.140744941324,8260.243625669913,10989.659844596368,-187500.02235174447,-187500.02235174447,-187500.02235174447,-187500.02235174447
$SILENCE,5405.925858727201,-6557.085401664424,8252.688736044018,11009.597600650502,-187500.02235174447,-187500.02235174447,-187500.02235174447,-187500.02235174447
$SILENCE,5237.75133344547,-6596.536230628041,7720.471348818702,11057.989127396242,-187500.02235174447,-187500.02235174447,-187500.02235174447,-187500.02235174447
$SILENCE,5262.785287235414,-6627.873376354382,7614.099396955896,11044.80159816761,-187500.02235174447,-187500.02235174447,-187500.02235174447,-187500.02235174447
$SILENCE,5446.69544061368,-6586.142669456323,8190.081499824703,10991.872667297444,-187500.02235174447,-187500.02235174447,-187500.02235174447,-187500.02235174447
$SILENCE,5425.081303725398,-6555.63253827483,8309.462166960499,11000.120461001452,-187500.02235174447,-187500.02235174447,-187500.02235174447,-187500.02235174447
talvez,5254.649252253682,-6585.315654911477,7814.169861575349,11052.624708726968,-187500.02235174447,-187500.02235174447,-187500.02235174447,-187500.02235174447
talvez,5236.142007844688,-6626.487568198153,7562.332756797405,11055.865711672988,-187500.02235174447,-187500.02235174447,-187500.02235174447,-187500.02235174447
talvez,5431.183329961697,-6596.379768416855,8094.79601321173,10999.069929012052,-187500.02235174447,-187500.02235174447,-187500.02235174447,-187500.02235174447
talvez,5454.0715162839315,-6558.158285398279,8345.202606344534,10999.159335989874,-187500.02235174447,-187500.02235174447,-187500.02235174447,-187500.02235174447
talvez,5290.52380210445,-6578.185448430235,7915.557374424622,11048.444932513827,-187500.02235174447,-187500.02235174447,-187500.02235174447,-187500.02235174447
talvez,5213.566745944828,-6623.447730952231,7538.9304803526975,11059.799618697121,-187500.02235174447,-187500.02235174447,-187500.02235174447,-187500.02235174447
talvez,5394.012378932522,-6606.438053421743,7986.345349114579,11005.015493037165,-187500.02235174447,-187500.02235174447,-187500.02235174447,-187500.02235174447
talvez,5465.537961189504,-6558.672375520751,8354.478580293488,10987.98346376222,-187500.02235174447,-187500.02235174447,-187500.02235174447,-187500.02235174447
talvez,5318.932869307145,-6569.311805881478,8011.424006393434,11035.458568985292,-187500.02235174447,-187500.02235174447,-187500.02235174447,-187500.02235174447
talvez,5206.145966785666,-6617.658629138306,7546.150093811762,11066.751011222723,-187500.02235174447,-187500.02235174447,-187500.02235174447,-187500.02235174447
talvez,5362.094087850343,-6613.791777347538,7877.17942919486,11018.739464132723,-187500.02235174447,-187500.02235174447,-187500.02235174447,-187500.02235174447
talvez,5469.2707025135405,-6563.187427900723,8349.069458135302,10991.537391130614,-187500.02235174447,-187500.02235174447,-187500.02235174447,-187500.02235174447
talvez,5348.526578965972,-6563.1203726673575,8113.280905876269,11029.445949726814,-187500.02235174447,-187500.02235174447,-187500.02235174447,-187500.02235174447
talvez,5209.498728453962,-6610.349608701421,7590.093623410896,11064.694650732834,-187500.02235174447,-187500.02235174447,-187500.02235174447,-187500.02235174447
talvez,5327.426532200162,-6621.011390806603,7774.741384356187,11022.852185112499,-187500.02235174447,-187500.02235174447,-187500.02235174447,-187500.02235174447
talvez,5470.343586247395,-6569.557675070486,8314.156033296113,10985.837696294511,-187500.02235174447,-187500.02235174447,-187500.02235174447,-187500.02235174447
talvez,5377.628550246782,-6558.135933653824,8195.892953383083,11017.778339121145,-187500.02235174447,-187500.02235174447,-187500.02235174447,-187500.02235174447
talvez,5214.1702430451205,-6600.73835858564,7649.549263662013,11061.341889064537,-187500.02235174447,-187500.02235174447,-187500.02235174447,-187500.02235174447
talvez,5290.836726526824,-6624.699428641728,7679.455897743213,11036.822025397067,-187500.02235174447,-187500.02235174447,-187500.02235174447,-187500.02235174447
talvez,5464.062746055454,-6577.0902129519245,8257.136733190624,10991.626798108435,-187500.02235174447,-187500.02235174447,-187500.02235174447,-187500.02235174447
talvez,5401.813137747424,-6553.509122551575,8266.032727483836,11013.866783841466,-187500.02235174447,-187500.02235174447,-187500.02235174447,-187500.02235174447
talvez,5227.514234484939,-6589.718948569173,7733.457712347235,11060.939557664342,-187500.02235174447,-187500.02235174447,-187500.02235174447,-187500.02235174447
talvez,5250.447124296084,-6624.83353910846,7608.26559165306,11051.685935459845,-187500.02235174447,-187500.02235174447,-187500.02235174447,-187500.02235174447
talvez,5440.526359144015,-6585.8968002673155,8180.5596566867425,10999.98635053472,-187500.02235174447,-187500.02235174447,-187500.02235174447,-187500.02235174447
talvez,5424.634268836292,-6552.257424862079,8317.352332753222,11007.18361224933,-187500.02235174447,-187500.02235174447,-187500.02235174447,-187500.02235174447
talvez,5254.13516213121,-6581.806431031994,7826.1951000923045,11052.177673837861,-187500.02235174447,-187500.02235174447,-187500.02235174447,-187500.02235174447
talvez,5228.095379840777,-6625.638201908851,7556.096620094374,11056.357450051004,-187500.02235174447,-187500.02235174447,-187500.02235174447,-187500.02235174447
talvez,5422.913184513233,-6595.597457360918,8079.082736859648,11002.243876724706,-187500.02235174447,-187500.02235174447,-187500.02235174447,-187500.02235174447
talvez,5448.885911570301,-6552.7938667290055,8347.03544938987,11003.27205696965,-187500.02235174447,-187500.02235174447,-187500.02235174447,-187500.02235174447
talvez,5281.717214789059,-6573.357471627888,7927.448502474846,11051.596528482025,-187500.02235174447,-187500.02235174447,-187500.02235174447,-187500.02235174447
talvez,5200.446271949562,-6620.385541961854,7536.941175096175,11063.979394910264,-187500.02235174447,-187500.02235174447,-187500.02235174447,-187500.02235174447
talvez,5387.619780018304,-6605.946315043726,7974.5883315310875,11009.910525072877,-187500.02235174447,-187500.02235174447,-187500.02235174447,-187500.02235174447
talvez,5457.379574463317,-6556.973642942148,8356.579644272286,10992.565571375559,-187500.02235174447,-187500.02235174447,-187500.02235174447,-187500.02235174447
talvez,5312.584973881838,-6565.467305835165,8026.198509478392,11036.66556318588,-187500.02235174447,-187500.02235174447,-187500.02235174447,-187500.02235174447
talvez,5199.21692600452,-6615.199937248223,7552.632099703801,11066.303976333616,-187500.02235174447,-187500.02235174447,-187500.02235174447,-187500.02235174447
talvez,5349.599462699826,-6614.149405258823,7869.51278084669,11017.197193765307,-187500.02235174447,-187500.02235174447,-187500.02235174447,-187500.02235174447
talvez,5467.907246101767,-6562.405116844788,8344.93438541107,10988.408146906871,-187500.02235174447,-187500.02235174447,-187500.02235174447,-187500.02235174447
talvez,5351.208788300609,-6559.946424954704,8118.2206414008915,11029.04361832662,-187500.02235174447,-187500.02235174447,-187500.02235174447,-187500.02235174447
talvez,5205.967152830023,-6606.907440055304,7592.172335645239,11070.439049057848,-187500.02235174447,-187500.02235174447,-187500.02235174447,-187500.02235174447
talvez,5319.022276284966,-6619.73734137265,7763.677270850811,11031.256441027695,-187500.02235174447,-187500.02235174447,-187500.02235174447,-187500.02235174447
talvez,5468.644853668792,-6569.2223989036565,8309.50687044941,10991.26917019715,-187500.02235174447,-187500.02235174447,-187500.02235174447,-187500.02235174447
talvez,5374.92398916769,-6555.766648741562,8198.955142373461,11019.767644377667,-187500.02235174447,-187500.02235174447,-187500.02235174447,-187500.02235174447
talvez,5202.949667328557,-6595.68686433874,7652.857321841398,11061.94538616483,-187500.02235174447,-187500.02235174447,-187500.02235174447,-187500.02235174447
talvez,5273.536476318416,-6619.960858817203,7670.13522030535,11041.940574877332,-187500.02235174447,-187500.02235174447,-187500.02235174447,-187500.02235174447
talvez,5454.004461050566,-6575.235018162134,8248.419552853054,10996.70064409979,-187500.02235174447,-187500.02235174447,-187500.02235174447,-187500.02235174447
talvez,5403.489518581572,-6552.346831839899,8268.44671588501,11015.6996268868,-187500.02235174447,-187500.02235174447,-187500.02235174447,-187500.02235174447
talvez,5228.475359496518,-6588.199029946212,7735.29055539257,11058.391458796437,-187500.02235174447,-187500.02235174447,-187500.02235174447,-187500.02235174447
talvez,5243.249862581475,-6622.911289085304,7594.9216002132425,11047.483807502247,-187500.02235174447,-187500.02235174447,-187500.02235174447,-187500.02235174447
talvez,5432.859710795845,-6583.862791521882,8166.790982102273,10996.566533633058,-187500.02235174447,-187500.02235174447,-187500.02235174447,-187500.02235174447
talvez,5422.488501368583,-6550.2681196055555,8317.799367642328,11009.865821583966,-187500.02235174447,-187500.02235174447,-187500.02235174447,-187500.02235174447
talvez,5253.151685375176,-6579.593608330919,7833.682934484832,11061.52070302018,-187500.02235174447,-187500.02235174447,-187500.02235174447,-187500.02235174447
talvez,5219.691123925581,-6623.537137930052,7551.939195625687,11063.353546065515,-187500.02235174447,-187500.02235174447,-187500.02235174447,-187500.02235174447
talvez,5409.59154481787,-6595.440995149732,8072.64543445652,11007.854164582988,-187500.02235174447,-187500.02235174447,-187500.02235174447,-187500.02235174447
talvez,5441.375725433317,-6551.743334739606,8354.500932037941,11005.283713970628,-187500.02235174447,-187500.02235174447,-187500.02235174447,-187500.02235174447
talvez,5283.415947367662,-6570.764669271072,7939.518444480711,11051.931804648853,-187500.02235174447,-187500.02235174447,-187500.02235174447,-187500.02235174447
talvez,5204.335475484786,-6618.7091611277065,7542.082076320896,11070.95313918032,-187500.02235174447,-187500.02235174447,-187500.02235174447,-187500.02235174447
talvez,5382.21065786012,-6602.817070819983,7977.136430398993,11018.225374010251,-187500.02235174447,-187500.02235174447,-187500.02235174447,-187500.02235174447
talvez,5468.108411801864,-6552.972680684648,8400.053787237857,11000.947475546298,-187500.02235174447,-187500.02235174447,-187500.02235174447,-187500.02235174447
talvez,5308.248735457509,-6562.1815994002345,8035.16155900497,11044.399266767416,-187500.02235174447,-187500.02235174447,-187500.02235174447,-187500.02235174447
talvez,5198.725187626504,-6610.506070912608,7564.389117287293,11068.829723457065,-187500.02235174447,-187500.02235174447,-187500.02235174447,-187500.02235174447
talvez,5338.401238727718,-6608.226192978167,7847.429257324846,11027.7025136593,-187500.02235174447,-187500.02235174447,-187500.02235174447,-187500.02235174447
talvez,5458.161885519253,-6559.052355176492,8326.762417168906,10999.27109471215,-187500.02235174447,-187500.02235174447,-187500.02235174447,-187500.02235174447
talvez,5345.643203931237,-6555.67724176374,8117.75125476733,11034.832720140545,-187500.02235174447,-187500.02235174447,-187500.02235174447,-187500.02235174447
talvez,5197.74171087047,-6602.370035930877,7589.601885032879,11075.423488071381,-187500.02235174447,-187500.02235174447,-187500.02235174447,-187500.02235174447
talvez,5312.696732604115,-6615.937544815248,7749.930948010797,11043.28167954465,-187500.02235174447,-187500.02235174447,-187500.02235174447,-187500.02235174447
talvez,5464.710946644658,-6564.327366867944,8302.175498268069,11003.450870925293,-187500.02235174447,-187500.02235174447,-187500.02235174447,-187500.02235174447
talvez,5374.186381600664,-6548.882311449327,8204.163098831546,11029.84828112701,-187500.02235174447,-187500.02235174447,-187500.02235174447,-187500.02235174447
talvez,5206.235373763487,-6590.657721836295,7656.411249209792,11075.781115982667,-187500.02235174447,-187500.02235174447,-187500.02235174447,-187500.02235174447
talvez,5273.759993762969,-6617.7703878605835,7657.685298643744,11051.23890057074,-187500.02235174447,-187500.02235174447,-187500.02235174447,-187500.02235174447
talvez,5453.8927023282895,-6570.92113148226,8241.445808583,11006.89303957141,-187500.02235174447,-187500.02235174447,-187500.02235174447,-187500.02235174447
talvez,5396.359312100329,-6545.015459658559,8272.358271164689,11025.310877002583,-187500.02235174447,-187500.02235174447,-187500.02235174447,-187500.02235174447
talvez,5225.815501906336,-6581.761727543084,7743.493645607668,11070.439049057848,-187500.02235174447,-187500.02235174447,-187500.02235174447,-187500.02235174447
talvez,5244.166284104143,-6619.02208555008,7587.746690243089,11062.101848376018,-187500.02235174447,-187500.02235174447,-187500.02235174447,-187500.02235174447
talvez,5432.099751484365,-6582.924018254759,8152.75408658434,11007.541240160614,-187500.02235174447,-187500.02235174447,-187500.02235174447,-187500.02235174447
talvez,5422.980239746599,-6547.451799804187,8314.714826907495,11017.063083298575,-187500.02235174447,-187500.02235174447,-187500.02235174447,-187500.02235174447
talvez,5251.27413884093,-6573.960968728182,7833.7723414626535,11068.539150779146,-187500.02235174447,-187500.02235174447,-187500.02235174447,-187500.02235174447
talvez,5205.430710963096,-6616.876318082371,7540.025715831008,11075.311729349105,-187500.02235174447,-187500.02235174447,-187500.02235174447,-187500.02235174447
talvez,5397.566306300915,-6588.958989257692,8055.367535992567,11019.477071699748,-187500.02235174447,-187500.02235174447,-187500.02235174447,-187500.02235174447
talvez,5426.936498515189,-6545.082514891925,8340.84401617575,11010.871650084455,-187500.02235174447,-187500.02235174447,-187500.02235174447,-187500.02235174447
talvez,5265.378089592229,-6562.874503478349,7931.985906599272,11057.586795996047,-187500.02235174447,-187500.02235174447,-187500.02235174447,-187500.02235174447
talvez,5189.538620655372,-6611.824823835472,7525.318267979416,11077.90453170592,-187500.02235174447,-187500.02235174447,-187500.02235174447,-187500.02235174447
talvez,5370.9677303991,-6599.084329495947,7946.648650961954,11031.502310216703,-187500.02235174447,-187500.02235174447,-187500.02235174447,-187500.02235174447
talvez,5450.159961004253,-6549.888139949816,8353.875083193194,11018.091263543518,-187500.02235174447,-187500.02235174447,-187500.02235174447,-187500.02235174447
talvez,5310.975648281056,-6556.571311541952,8038.469617184355,11058.994955896731,-187500.02235174447,-187500.02235174447,-187500.02235174447,-187500.02235174447
talvez,5182.78839382987,-6604.538155143042,7545.568948455924,11087.828706244078,-187500.02235174447,-187500.02235174447,-187500.02235174447,-187500.02235174447
talvez,5325.52663392146,-6607.376826688866,7830.285469327626,11036.777321908155,-187500.02235174447,-187500.02235174447,-187500.02235174447,-187500.02235174447
talvez,5451.881045327312,-6558.91824470976,8327.500024735931,11010.13404251743,-187500.02235174447,-187500.02235174447,-187500.02235174447,-187500.02235174447
talvez,5350.694698178137,-6555.274910363545,8137.621955588098,11055.619842483979,-187500.02235174447,-187500.02235174447,-187500.02235174447,-187500.02235174447
talvez,5191.438518934074,-6598.816108562482,7601.31419912746,11103.094947707052,-187500.02235174447,-187500.02235174447,-187500.02235174447,-187500.02235174447
talvez,5297.09521497431,-6611.422492435276,7727.57920355549,11060.626633241967,-187500.02235174447,-187500.02235174447,-187500.02235174447,-187500.02235174447
talvez,5455.189103506697,-6560.214645888168,8279.376718923655,11014.805557108588,-187500.02235174447,-187500.02235174447,-187500.02235174447,-187500.02235174447
talvez,5369.023128631488,-6545.909529436771,8192.71900567043,11043.192272566828,-187500.02235174447,-187500.02235174447,-187500.02235174447,-187500.02235174447
talvez,5197.74171087047,-6591.440032892231,7644.430714181747,11090.645026045446,-187500.02235174447,-187500.02235174447,-187500.02235174447,-187500.02235174447
talvez,5259.23135986702,-6615.289344226044,7629.6785628412445,11072.964796181297,-187500.02235174447,-187500.02235174447,-187500.02235174447,-187500.02235174447
talvez,5441.196911477675,-6569.758840770583,8214.53430825881,11023.835661868532,-187500.02235174447,-187500.02235174447,-187500.02235174447,-187500.02235174447
talvez,5390.59256203086,-6543.026154402037,8263.506980360387,11046.969717379776,-187500.02235174447,-187500.02235174447,-187500.02235174447,-187500.02235174447
talvez,5210.571612187817,-6575.793811773517,7736.072866448506,11098.19991567134,-187500.02235174447,-187500.02235174447,-187500.02235174447,-187500.02235174447
talvez,5215.846623879269,-6612.182451746757,7562.444515519681,11090.846191745542,-187500.02235174447,-187500.02235174447,-187500.02235174447,-187500.02235174447
talvez,5414.218355920119,-6575.167962928768,8126.870766505095,11038.699571931313,-187500.02235174447,-187500.02235174447,-187500.02235174447,-187500.02235174447
talvez,5415.961791987633,-6539.025192144536,8303.047216301826,11047.170883079873,-187500.02235174447,-187500.02235174447,-187500.02235174447,-187500.02235174447
talvez,5245.708554471559,-6568.641253547818,7834.152321118394,11096.881162748476,-187500.02235174447,-187500.02235174447,-187500.02235174447,-187500.02235174447
talvez,5196.244143991965,-6616.049303537525,7526.458206946637,11101.284456406172,-187500.02235174447,-187500.02235174447,-187500.02235174447,-187500.02235174447
talvez,5383.261189849519,-6590.613018347385,8033.976916548839,11049.18254008085,-187500.02235174447,-187500.02235174447,-187500.02235174447,-187500.02235174447
talvez,5419.2027949336525,-6543.853168946883,8325.890699135149,11043.795769667122,-187500.02235174447,-187500.02235174447,-187500.02235174447,-187500.02235174447
talvez,5250.670641740638,-6556.325442352944,7919.08895004856,11083.62657828648,-187500.02235174447,-187500.02235174447,-187500.02235174447,-187500.02235174447
talvez,5171.6125216022165,-6604.359341187399,7499.904334533732,11107.34177915356,-187500.02235174447,-187500.02235174447,-187500.02235174447,-187500.02235174447
talvez,5340.345840495329,-6590.411852647288,7905.4990894197335,11060.134894863952,-187500.02235174447,-187500.02235174447,-187500.02235174447,-187500.02235174447
talvez,5419.716885056125,-6541.953270668182,8320.034542087858,11040.934746376843,-187500.02235174447,-187500.02235174447,-187500.02235174447,-187500.02235174447
talvez,5275.8610577417685,-6549.217587616156,8016.430797151423,11084.900627720432,-187500.02235174447,-187500.02235174447,-187500.02235174447,-187500.02235174447
talvez,5152.993518470946,-6608.270896467077,7526.0111720575305,11113.667322834412,-187500.02235174447,-187500.02235174447,-187500.02235174447,-187500.02235174447
talvez,5299.688017331126,-6611.400140690821,7800.557649202067,11068.38268856796,-187500.02235174447,-187500.02235174447,-187500.02235174447,-187500.02235174447
talvez,5418.353428644351,-6553.86675046286,8303.40484421311,11043.840473156033,-187500.02235174447,-187500.02235174447,-187500.02235174447,-187500.02235174447
talvez,5314.507223904994,-6543.719058480151,8114.84552798814,11082.508991063714,-187500.02235174447,-187500.02235174447,-187500.02235174447,-187500.02235174447
talvez,5161.844809275247,-6587.975512501659,7582.02464366253,11127.860680563532,-187500.02235174447,-187500.02235174447,-187500.02235174447,-187500.02235174447
talvez,5252.414077808151,-6602.59355337543,7704.892182933353,11088.611017300012,-187500.02235174447,-187500.02235174447,-187500.02235174447,-187500.02235174447
talvez,5409.680951795692,-6556.571311541952,8263.216407682468,11042.633478955446,-187500.02235174447,-187500.02235174447,-187500.02235174447,-187500.02235174447
talvez,5335.540215437439,-6549.664622505263,8184.828839877706,11060.984261153253,-187500.02235174447,-187500.02235174447,-187500.02235174447,-187500.02235174447
talvez,5167.298634922342,-6590.054224736003,7638.060467011985,11105.039549474663,-187500.02235174447,-187500.02235174447,-187500.02235174447,-187500.02235174447
talvez,5218.350019258263,-6607.645047622329,7608.958495731175,11090.041528945152,-187500.02235174447,-187500.02235174447,-187500.02235174447,-187500.02235174447
talvez,5405.009437204532,-6563.053317433992,8196.787023161296,11044.868653400976,-187500.02235174447,-187500.02235174447,-187500.02235174447,-187500.02235174447
talvez,5370.3642332988065,-6540.72392472314,8260.176570436546,11066.974528667275,-187500.02235174447,-187500.02235174447,-187500.02235174447,-187500.02235174447
talvez,5194.634818391182,-6578.476021108154,7737.928061238296,11110.538078610669,-187500.02235174447,-187500.02235174447,-187500.02235174447,-187500.02235174447
talvez,5196.333550969786,-6615.535213415053,7551.939195625687,11100.882125005975,-187500.02235174447,-187500.02235174447,-187500.02235174447,-187500.02235174447
talvez,5383.551762527438,-6576.77728852955,8103.759062738307,11039.034848098141,-187500.02235174447,-187500.02235174447,-187500.02235174447,-187500.02235174447
talvez,5379.707262481125,-6537.8852531773155,8292.45248943001,11040.71122893229,-187500.02235174447,-187500.02235174447,-187500.02235174447,-187500.02235174447
talvez,5221.099283826266,-6568.1718669142565,7833.794693207109,11085.772345754189,-187500.02235174447,-187500.02235174447,-187500.02235174447,-187500.02235174447
talvez,5172.573646613794,-6613.009466291603,7513.941230051664,11093.90838073592,-187500.02235174447,-187500.02235174447,-187500.02235174447,-187500.02235174447
talvez,5359.747154682535,-6587.528477612553,8010.887564526506,11044.46632200078,-187500.02235174447,-187500.02235174447,-187500.02235174447,-187500.02235174447
talvez,5406.238783149574,-6548.748200982595,8330.472806748487,11040.934746376843,-187500.02235174447,-187500.02235174447,-187500.02235174447,-187500.02235174447
talvez,5254.9621766760565,-6564.595587801407,7939.1384648249705,11087.471078332792,-187500.02235174447,-187500.02235174447,-187500.02235174447,-187500.02235174447
talvez,5159.184951685065,-6612.584783146952,7503.838241557866,11101.440918617358,-187500.02235174447,-187500.02235174447,-187500.02235174447,-187500.02235174447
talvez,5327.404180455706,-6598.883163795849,7900.961685295307,11050.61305172599,-187500.02235174447,-187500.02235174447,-187500.02235174447,-187500.02235174447
talvez,5421.21445193463,-6546.0436399035025,8328.818777658795,11038.90073763141,-187500.02235174447,-187500.02235174447,-187500.02235174447,-187500.02235174447
talvez,5283.304188645386,-6552.547997539998,8033.619288637554,11076.496371805237,-187500.02235174447,-187500.02235174447,-187500.02235174447,-187500.02235174447
talvez,5154.982823727468,-6603.577030131463,7531.174425026707,11109.91222976592,-187500.02235174447,-187500.02235174447,-187500.02235174447,-187500.02235174447
talvez,5293.071900972355,-6606.706274355206,7793.986236332207,11065.566368766591,-187500.02235174447,-187500.02235174447,-187500.02235174447,-187500.02235174447
talvez,5426.958850259644,-6554.693765007707,8317.777015897873,11033.692781173324,-187500.02235174447,-187500.02235174447,-187500.02235174447,-187500.02235174447
talvez,5318.57524139586,-6548.8599597048715,8135.431484631477,11069.656738001911,-187500.02235174447,-187500.02235174447,-187500.02235174447,-187500.02235174447
talvez,5156.860370261714,-6593.7646143155835,7579.11891688334,11107.118261709007,-187500.02235174447,-187500.02235174447,-187500.02235174447,-187500.02235174447
talvez,5250.715345229548,-6609.4331871787535,7688.642464714345,11071.064897902597,-187500.02235174447,-187500.02235174447,-187500.02235174447,-187500.02235174447
talvez,5419.135739700287,-6559.991128443615,8255.706221545484,11026.964906092277,-187500.02235174447,-187500.02235174447,-187500.02235174447,-187500.02235174447
talvez,5346.805494642913,-6547.474151548642,8199.491584240388,11050.590699981536,-187500.02235174447,-187500.02235174447,-187500.02235174447,-187500.02235174447
talvez,5177.848658305247,-6588.154326457301,7661.306281245504,11099.406909871926,-187500.02235174447,-187500.02235174447,-187500.02235174447,-187500.02235174447
talvez,5228.31889728533,-6615.646972137329,7620.134367958828,11088.588665555557,-187500.02235174447,-187500.02235174447,-187500.02235174447,-187500.02235174447
talvez,5418.64400132227,-6573.849210005905,8195.960008616448,11030.340019505027,-187500.02235174447,-187500.02235174447,-187500.02235174447,-187500.02235174447
talvez,5381.204829359631,-6548.368221326855,8255.706221545484,11035.078589329552,-187500.02235174447,-187500.02235174447,-187500.02235174447,-187500.02235174447
talvez,5212.493862210973,-6585.852096778405,7739.96206998373,11079.960892195808,-187500.02235174447,-187500.02235174447,-187500.02235174447,-187500.02235174447
talvez,5219.087626825289,-6628.320411243488,7547.155922312251,11077.256331116716,-187500.02235174447,-187500.02235174447,-187500.02235174447,-187500.02235174447
