WORD,Channel_1,Channel_2,Channel_3,Channel_4,Channel_5,Channel_6,Channel_7,Channel_8
não,-2313.0926267019067,-12412.527193132306,6408.267487080991,8163.438220433977,-187500.02235174447,-187500.02235174447,-187500.02235174447,-187500.02235174447
não,-2272.2559895820605,-12412.79541406577,6524.764779182051,8147.9261097819945,-187500.02235174447,-187500.02235174447,-187500.02235174447,-187500.02235174447
não,-2232.8051606184436,-12397.998559236356,6699.443662100275,8140.304164922734,-187500.02235174447,-187500.02235174447,-187500.02235174447,-187500.02235174447
não,-2265.416355778737,-12397.909152258535,6609.4331871787535,8151.904720295039,-187500.02235174447,-187500.02235174447,-187500.02235174447,-187500.02235174447
não,-2310.1868999227167,-12410.381425664596,6426.171234389692,8164.488752423376,-187500.02235174447,-187500.02235174447,-187500.02235174447,-187500.02235174447
não,-2279.8108792079543,-12415.187050722487,6487.079738030403,8153.894025551561,-187500.02235174447,-187500.02235174447,-187500.02235174447,-187500.02235174447
não,-2231.4640559511254,-12402.334797660686,6686.971388694214,8141.377048656589,-187500.02235174447,-187500.02235174447,-187500.02235174447,-187500.02235174447
não,-2259.917826642731,-12399.630236581594,6637.506978214619,8152.396458673055,-187500.02235174447,-187500.02235174447,-187500.02235174447,-187500.02235174447
não,-2304.7554260200773,-12411.655475098549,6444.946699732149,8166.031022790793,-187500.02235174447,-187500.02235174447,-187500.02235174447,-187500.02235174447
não,-2291.478489813625,-12418.986847279888,6448.500627100543,8155.011612774327,-187500.02235174447,-187500.02235174447,-187500.02235174447,-187500.02235174447
não,-2239.510683955036,-12404.637027339582,6663.658519227329,8139.633612589075,-187500.02235174447,-187500.02235174447,-187500.02235174447,-187500.02235174447
não,-2253.860503895343,-12397.998559236356,6666.161914606323,8149.736601082874,-187500.02235174447,-187500.02235174447,-187500.02235174447,-187500.02235174447
não,-2302.944934719197,-12408.705044830447,6477.960226292637,8164.846380334661,-187500.02235174447,-187500.02235174447,-187500.02235174447,-187500.02235174447
não,-2306.5882690654125,-12416.550507134261,6423.086693654859,8159.973700043404,-187500.02235174447,-187500.02235174447,-187500.02235174447,-187500.02235174447
não,-2247.9372916146867,-12406.581629107193,6632.008449078614,8139.454798633433,-187500.02235174447,-187500.02235174447,-187500.02235174447,-187500.02235174447
não,-2242.304652011949,-12397.21624818042,6682.65750201434,8140.907662023028,-187500.02235174447,-187500.02235174447,-187500.02235174447,-187500.02235174447
não,-2292.305504358471,-12404.637027339582,6509.05150282997,8154.3857639295775,-187500.02235174447,-187500.02235174447,-187500.02235174447,-187500.02235174447
não,-2309.538699333513,-12417.779853079302,6407.239306836046,8160.085458765681,-187500.02235174447,-187500.02235174447,-187500.02235174447,-187500.02235174447
não,-2255.983919618597,-12411.655475098549,6594.122242226868,8142.159359712525,-187500.02235174447,-187500.02235174447,-187500.02235174447,-187500.02235174447
não,-2240.181236288695,-12399.540829603771,6693.341635863976,8147.56848187071,-187500.02235174447,-187500.02235174447,-187500.02235174447,-187500.02235174447
não,-2285.734091488611,-12404.97230350641,6541.193311356701,8165.695746623964,-187500.02235174447,-187500.02235174447,-187500.02235174447,-187500.02235174447
não,-2316.892423259309,-12417.422225168017,6398.4103677762,8162.387688444578,-187500.02235174447,-187500.02235174447,-187500.02235174447,-187500.02235174447
não,-2272.635969237801,-12413.465966399428,6552.771514984551,8138.448970132944,-187500.02235174447,-187500.02235174447,-187500.02235174447,-187500.02235174447
não,-2238.8401316213767,-12399.227905181397,6701.589429567985,8136.169092198503,-187500.02235174447,-187500.02235174447,-187500.02235174447,-187500.02235174447
não,-2274.4017570497704,-12402.290094171774,6582.119355454369,8152.999955773349,-187500.02235174447,-187500.02235174447,-187500.02235174447,-187500.02235174447
não,-2313.31614414646,-12415.209402466942,6410.122681870781,8159.23609247638,-187500.02235174447,-187500.02235174447,-187500.02235174447,-187500.02235174447
não,-2275.2287715946163,-12418.562164135237,6514.460624988154,8144.2827754357795,-187500.02235174447,-187500.02235174447,-187500.02235174447,-187500.02235174447
não,-2236.7837711314883,-12406.469870384917,6695.442699842775,8135.453836375933,-187500.02235174447,-187500.02235174447,-187500.02235174447,-187500.02235174447
não,-2269.9090564142534,-12407.386291907584,6611.444844179731,8146.875577792594,-187500.02235174447,-187500.02235174447,-187500.02235174447,-187500.02235174447
não,-2313.4279028687365,-12419.210364724442,6424.047818666437,8157.09032500867,-187500.02235174447,-187500.02235174447,-187500.02235174447,-187500.02235174447
não,-2291.0985101578844,-12421.691408358982,6473.422822168211,8146.0485632477485,-187500.02235174447,-187500.02235174447,-187500.02235174447,-187500.02235174447
não,-2242.438762478681,-12405.50874537334,6680.824658969004,8136.929051509983,-187500.02235174447,-187500.02235174447,-187500.02235174447,-187500.02235174447
não,-2264.835210422899,-12401.664245327025,6642.603175950429,8144.305127180234,-187500.02235174447,-187500.02235174447,-187500.02235174447,-187500.02235174447
não,-2312.7126470461667,-12411.610771609638,6449.238234667568,8157.872636064606,-187500.02235174447,-187500.02235174447,-187500.02235174447,-187500.02235174447
não,-2295.0100654375633,-12421.445539169972,6441.102199685836,8152.932900539983,-187500.02235174447,-187500.02235174447,-187500.02235174447,-187500.02235174447
não,-2235.2862042529828,-12412.862469299134,6654.918987145304,8141.488807378866,-187500.02235174447,-187500.02235174447,-187500.02235174447,-187500.02235174447
não,-2246.01504159153,-12407.07336748521,6665.044327383558,8142.382877157078,-187500.02235174447,-187500.02235174447,-187500.02235174447,-187500.02235174447
não,-2296.172356149239,-12416.751672834358,6480.28480771599,8154.095191251659,-187500.02235174447,-187500.02235174447,-187500.02235174447,-187500.02235174447
não,-2302.8108242524654,-12424.0830450157,6417.811681963406,8152.6199761176085,-187500.02235174447,-187500.02235174447,-187500.02235174447,-187500.02235174447
não,-2250.7312596716,-12413.465966399428,6624.386504219354,8140.974717256394,-187500.02235174447,-187500.02235174447,-187500.02235174447,-187500.02235174447
não,-2248.3843265037926,-12403.541791861271,6683.328054347999,8140.080647478181,-187500.02235174447,-187500.02235174447,-187500.02235174447,-187500.02235174447
não,-2297.379350349826,-12412.50484138785,6512.180747053712,8145.981508014383,-187500.02235174447,-187500.02235174447,-187500.02235174447,-187500.02235174447
não,-2316.1324639478285,-12424.41832118253,6404.110062612303,8145.221548702902,-187500.02235174447,-187500.02235174447,-187500.02235174447,-187500.02235174447
não,-2260.1189923428287,-12417.60103912366,6585.963855500681,8135.744409053852,-187500.02235174447,-187500.02235174447,-187500.02235174447,-187500.02235174447
não,-2239.1977595326616,-12406.581629107193,6693.766319008627,8137.309031165723,-187500.02235174447,-187500.02235174447,-187500.02235174447,-187500.02235174447
não,-2285.376463577326,-12409.956742519946,6546.378916070333,8149.8036563162395,-187500.02235174447,-187500.02235174447,-187500.02235174447,-187500.02235174447
não,-2317.3618098928705,-12419.45623391345,6396.26460030849,8152.374106928601,-187500.02235174447,-187500.02235174447,-187500.02235174447,-187500.02235174447
não,-2267.740937202089,-12419.433882168994,6541.260366590067,8132.168129941003,-187500.02235174447,-187500.02235174447,-187500.02235174447,-187500.02235174447
não,-2236.493198453569,-12406.380463407097,6698.1249091774125,8126.84841476064,-187500.02235174447,-187500.02235174447,-187500.02235174447,-187500.02235174447
não,-2275.899323928276,-12409.062672741733,6584.063957221981,8140.281813178279,-187500.02235174447,-187500.02235174447,-187500.02235174447,-187500.02235174447
não,-2321.2510134280938,-12421.736111847891,6403.819489934384,8150.831836561184,-187500.02235174447,-187500.02235174447,-187500.02235174447,-187500.02235174447
não,-2288.0586729119627,-12423.188975237486,6495.819270112428,8137.174920698992,-187500.02235174447,-187500.02235174447,-187500.02235174447,-187500.02235174447
não,-2242.1928932896726,-12409.666169842027,6684.378586337399,8126.602545571631,-187500.02235174447,-187500.02235174447,-187500.02235174447,-187500.02235174447
não,-2266.466887768136,-12410.895515787068,6614.372922703376,8143.120484724103,-187500.02235174447,-187500.02235174447,-187500.02235174447,-187500.02235174447
não,-2310.7456935340992,-12422.876050815112,6425.925365200683,8156.106848252636,-187500.02235174447,-187500.02235174447,-187500.02235174447,-187500.02235174447
não,-2288.148079889784,-12425.692370616482,6461.844618540361,8143.008726001826,-187500.02235174447,-187500.02235174447,-187500.02235174447,-187500.02235174447
não,-2234.9956315750637,-12413.130690232598,6675.08026064399,8131.743446796352,-187500.02235174447,-187500.02235174447,-187500.02235174447,-187500.02235174447
não,-2255.983919618597,-12407.654512841049,6649.241644053655,8139.857130033628,-187500.02235174447,-187500.02235174447,-187500.02235174447,-187500.02235174447
não,-2306.78943476551,-12416.975190278912,6456.010813237526,8156.173903486003,-187500.02235174447,-187500.02235174447,-187500.02235174447,-187500.02235174447
não,-2299.3910073508036,-12423.747768848869,6431.4015425922325,8153.201121473447,-187500.02235174447,-187500.02235174447,-187500.02235174447,-187500.02235174447
não,-2242.7293351566,-12413.622428610615,6645.419495751798,8133.688048563964,-187500.02235174447,-187500.02235174447,-187500.02235174447,-187500.02235174447
não,-2249.837189893388,-12408.302713430252,6665.737231461672,8132.65986831902,-187500.02235174447,-187500.02235174447,-187500.02235174447,-187500.02235174447
não,-2300.4862428291135,-12417.64574261257,6481.111822260836,8142.092304479159,-187500.02235174447,-187500.02235174447,-187500.02235174447,-187500.02235174447
não,-2310.857452256376,-12426.944068305978,6407.105196369314,8143.276946935291,-187500.02235174447,-187500.02235174447,-187500.02235174447,-187500.02235174447
não,-2252.429992250203,-12416.662265856537,6613.8364808364495,8131.698743307441,-187500.02235174447,-187500.02235174447,-187500.02235174447,-187500.02235174447
não,-2245.009213091041,-12407.609809352138,6688.7371765061835,8138.225452688391,-187500.02235174447,-187500.02235174447,-187500.02235174447,-187500.02235174447
não,-2294.428920081725,-12413.533021632795,6524.2059855706675,8154.028136018293,-187500.02235174447,-187500.02235174447,-187500.02235174447,-187500.02235174447
não,-2319.3287634049375,-12422.853699070656,6401.1149288552915,8157.403249431044,-187500.02235174447,-187500.02235174447,-187500.02235174447,-187500.02235174447
não,-2266.466887768136,-12416.461100156439,6577.291378652022,8139.387743400067,-187500.02235174447,-187500.02235174447,-187500.02235174447,-187500.02235174447
não,-2243.243425279072,-12401.284265671286,6698.348426621965,8139.253632933335,-187500.02235174447,-187500.02235174447,-187500.02235174447,-187500.02235174447
não,-2281.8672396978427,-12407.699216329958,6561.309881366477,8148.797827815752,-187500.02235174447,-187500.02235174447,-187500.02235174447,-187500.02235174447
não,-2317.7864930375213,-12422.138443248086,6405.741739957541,8150.250691205346,-187500.02235174447,-187500.02235174447,-187500.02235174447,-187500.02235174447
não,-2282.984826920608,-12420.685579858493,6531.425599029732,8135.99027824286,-187500.02235174447,-187500.02235174447,-187500.02235174447,-187500.02235174447
não,-2249.524265471013,-12404.681730828492,6691.151164907356,8132.682220063475,-187500.02235174447,-187500.02235174447,-187500.02235174447,-187500.02235174447
não,-2284.705911243667,-12406.156945962543,6589.718948569173,8152.061182506226,-187500.02235174447,-187500.02235174447,-187500.02235174447,-187500.02235174447
não,-2331.9351472777307,-12419.009199024344,6413.542498772443,8166.1204297686145,-187500.02235174447,-187500.02235174447,-187500.02235174447,-187500.02235174447
não,-2294.40656833727,-12420.0820827582,6500.647246914774,8156.03979301927,-187500.02235174447,-187500.02235174447,-187500.02235174447,-187500.02235174447
não,-2240.047125821963,-12405.799318051259,6702.751720279661,8137.443141632455,-187500.02235174447,-187500.02235174447,-187500.02235174447,-187500.02235174447
não,-2265.6175214788345,-12406.246352940363,6634.869472368893,8141.578214356687,-187500.02235174447,-187500.02235174447,-187500.02235174447,-187500.02235174447
não,-2310.6562865562782,-12415.634085611593,6452.367478891311,8158.878464565095,-187500.02235174447,-187500.02235174447,-187500.02235174447,-187500.02235174447
não,-2291.50084155808,-12420.059731013744,6476.060328013937,8149.736601082874,-187500.02235174447,-187500.02235174447,-187500.02235174447,-187500.02235174447
não,-2243.757515401544,-12406.425166896006,6673.761507721128,8139.521853866799,-187500.02235174447,-187500.02235174447,-187500.02235174447,-187500.02235174447
não,-2262.7564981885553,-12406.134594218087,6656.438905768265,8149.781304571785,-187500.02235174447,-187500.02235174447,-187500.02235174447,-187500.02235174447
não,-2316.311277903471,-12419.947972291468,6450.668746312707,8155.548054641254,-187500.02235174447,-187500.02235174447,-187500.02235174447,-187500.02235174447
não,-2313.31614414646,-12421.467890914428,6428.719333257596,8147.814351059717,-187500.02235174447,-187500.02235174447,-187500.02235174447,-187500.02235174447
não,-2257.7720591750217,-12408.682693085992,6628.78979787705,8132.972792741394,-187500.02235174447,-187500.02235174447,-187500.02235174447,-187500.02235174447
não,-2253.145248072773,-12400.099623215154,6674.9461501772585,8141.980545756883,-187500.02235174447,-187500.02235174447,-187500.02235174447,-187500.02235174447
não,-2286.7399199890997,-12402.558315105238,6550.938671939215,8171.529551926798,-187500.02235174447,-187500.02235174447,-187500.02235174447,-187500.02235174447
não,-2285.890553699798,-12399.093794714665,6443.471484598099,8174.658796150541,-187500.02235174447,-187500.02235174447,-187500.02235174447,-187500.02235174447
não,-2250.127762571307,-12415.969361778423,6593.049358493014,8127.809539772218,-187500.02235174447,-187500.02235174447,-187500.02235174447,-187500.02235174447
não,-2256.6544719522562,-12425.93823980549,6667.8382954404715,8122.243955402846,-187500.02235174447,-187500.02235174447,-187500.02235174447,-187500.02235174447
não,-2285.398815321781,-12407.721568074414,6548.904663193783,8163.214702989424,-187500.02235174447,-187500.02235174447,-187500.02235174447,-187500.02235174447
não,-2283.767137976544,-12395.159887690532,6450.154656190236,8171.306034482245,-187500.02235174447,-187500.02235174447,-187500.02235174447,-187500.02235174447
não,-2249.054878837452,-12409.040320997277,6573.201009416701,8132.972792741394,-187500.02235174447,-187500.02235174447,-187500.02235174447,-187500.02235174447
não,-2243.8245706349103,-12419.389178680085,6672.733327476183,8128.457740361422,-187500.02235174447,-187500.02235174447,-187500.02235174447,-187500.02235174447
não,-2296.529984060524,-12438.589327167194,6570.0494134485025,8140.3712201561,-187500.02235174447,-187500.02235174447,-187500.02235174447,-187500.02235174447
não,-2302.296734129993,-12416.997542023366,6406.45699578011,8167.573293158209,-187500.02235174447,-187500.02235174447,-187500.02235174447,-187500.02235174447
não,-2258.01792836403,-12404.301751172752,6519.310953534956,8149.021345260304,-187500.02235174447,-187500.02235174447,-187500.02235174447,-187500.02235174447
não,-2246.149152058262,-12415.254105955853,6673.090955387468,8112.878574476073,-187500.02235174447,-187500.02235174447,-187500.02235174447,-187500.02235174447
não,-2245.277434024505,-12410.73905357588,6599.643123107329,8138.89600502205,-187500.02235174447,-187500.02235174447,-187500.02235174447,-187500.02235174447
não,-2308.59992606639,-12450.569862195238,6401.740777700041,8128.368333383601,-187500.02235174447,-187500.02235174447,-187500.02235174447,-187500.02235174447
não,-2255.11220158484,-12458.102400076676,6511.890174375793,8137.443141632455,-187500.02235174447,-187500.02235174447,-187500.02235174447,-187500.02235174447
não,-2234.7497623860554,-12461.008126855866,6651.476818499186,8088.202248597414,-187500.02235174447,-187500.02235174447,-187500.02235174447,-187500.02235174447
não,-2235.6438321642677,-12426.966420050434,6687.619589283418,8132.011667729816,-187500.02235174447,-187500.02235174447,-187500.02235174447,-187500.02235174447
não,-2243.8245706349103,-12411.141384976076,6534.040753131003,8156.308013952735,-187500.02235174447,-187500.02235174447,-187500.02235174447,-187500.02235174447
não,-2280.3473210748816,-12459.84583614419,6408.60276324782,8071.952530378406,-187500.02235174447,-187500.02235174447,-187500.02235174447,-187500.02235174447
não,-2263.628216222312,-12498.179077885043,6533.325497308433,8023.672762354942,-187500.02235174447,-187500.02235174447,-187500.02235174447,-187500.02235174447
não,-2237.342564742871,-12466.730173436425,6591.73060557015,8070.611425711087,-187500.02235174447,-187500.02235174447,-187500.02235174447,-187500.02235174447
não,-2265.1034313563623,-12495.8991999506,6481.111822260836,8089.833925942651,-187500.02235174447,-187500.02235174447,-187500.02235174447,-187500.02235174447
não,-2276.9722076621306,-12530.656162578603,6369.889541851228,8063.123591318559,-187500.02235174447,-187500.02235174447,-187500.02235174447,-187500.02235174447
não,-2211.794520830455,-12492.32292083775,6563.880331978838,8053.4229342249555,-187500.02235174447,-187500.02235174447,-187500.02235174447,-187500.02235174447
não,-2217.047180777452,-12483.046946888799,6629.50505369962,8022.130491987526,-187500.02235174447,-187500.02235174447,-187500.02235174447,-187500.02235174447
não,-2247.3561462588486,-12479.627129987137,6475.210961724635,8045.979803321338,-187500.02235174447,-187500.02235174447,-187500.02235174447,-187500.02235174447
não,-2241.1870647891838,-12499.587237785727,6412.246097594035,8093.4102050555,-187500.02235174447,-187500.02235174447,-187500.02235174447,-187500.02235174447
não,-2181.7537762825223,-12504.258752376885,6600.82776556346,8067.54923672071,-187500.02235174447,-187500.02235174447,-187500.02235174447,-187500.02235174447
não,-2170.6226075437794,-12508.706749523491,6681.674025258306,8041.218881752358,-187500.02235174447,-187500.02235174447,-187500.02235174447,-187500.02235174447
não,-2196.14829971174,-12482.175228855041,6552.503294051086,8085.900018918517,-187500.02235174447,-187500.02235174447,-187500.02235174447,-187500.02235174447
não,-2229.027715805497,-12491.540609781816,6419.733931986562,8077.272245558768,-187500.02235174447,-187500.02235174447,-187500.02235174447,-187500.02235174447
não,-2193.153165954729,-12512.171269914064,6574.2738931505555,8041.509454430277,-187500.02235174447,-187500.02235174447,-187500.02235174447,-187500.02235174447
não,-2152.182418368151,-12488.925455680544,6699.577772567007,8034.848634582596,-187500.02235174447,-187500.02235174447,-187500.02235174447,-187500.02235174447
não,-2178.6915872921454,-12495.161592383576,6582.342872898922,8066.11872507557,-187500.02235174447,-187500.02235174447,-187500.02235174447,-187500.02235174447
não,-2200.1269102247848,-12506.270409377863,6452.792162035962,8111.135138408558,-187500.02235174447,-187500.02235174447,-187500.02235174447,-187500.02235174447
não,-2178.9374564811537,-12490.937112681522,6561.958081955681,8087.062309630193,-187500.02235174447,-187500.02235174447,-187500.02235174447,-187500.02235174447
não,-2136.826769927355,-12460.359926266663,6714.508737863152,8064.531751219243,-187500.02235174447,-187500.02235174447,-187500.02235174447,-187500.02235174447
não,-2197.176479956684,-12503.834069232234,6614.1270535143685,8060.128457561548,-187500.02235174447,-187500.02235174447,-187500.02235174447,-187500.02235174447
não,-2228.826550105399,-12501.71065350898,6425.70184775613,8124.70264729293,-187500.02235174447,-187500.02235174447,-187500.02235174447,-187500.02235174447
não,-2216.890718566265,-12506.51627856687,6474.182781479691,8118.354751867623,-187500.02235174447,-187500.02235174447,-187500.02235174447,-187500.02235174447
não,-2163.179476640162,-12480.923531165545,6693.2522288861555,8098.975789424871,-187500.02235174447,-187500.02235174447,-187500.02235174447,-187500.02235174447
não,-2162.6877382621456,-12473.547455495294,6661.289234315066,8121.551051324732,-187500.02235174447,-187500.02235174447,-187500.02235174447,-187500.02235174447
não,-2208.888794051265,-12482.823429444246,6476.887342558783,8137.2419759323575,-187500.02235174447,-187500.02235174447,-187500.02235174447,-187500.02235174447
não,-2195.0307124889746,-12489.484249291927,6477.200266981157,8132.883385763573,-187500.02235174447,-187500.02235174447,-187500.02235174447,-187500.02235174447
não,-2136.290328060428,-12474.687394462515,6693.296932375066,8124.255612403824,-187500.02235174447,-187500.02235174447,-187500.02235174447,-187500.02235174447
não,-2148.7402497220337,-12465.32201353574,6704.2939906470765,8138.448970132944,-187500.02235174447,-187500.02235174447,-187500.02235174447,-187500.02235174447
não,-2200.7527590695336,-12474.530932251328,6521.2108518136565,8153.3799354290895,-187500.02235174447,-187500.02235174447,-187500.02235174447,-187500.02235174447
não,-2211.727465597089,-12485.840914945713,6455.675537070696,8139.812426544718,-187500.02235174447,-187500.02235174447,-187500.02235174447,-187500.02235174447
não,-2145.342784564827,-12474.888560162612,6665.424307039298,8127.876595005584,-187500.02235174447,-187500.02235174447,-187500.02235174447,-187500.02235174447
não,-2134.9715751375647,-12461.119885578142,6727.673915347328,8141.6452695900525,-187500.02235174447,-187500.02235174447,-187500.02235174447,-187500.02235174447
não,-2180.636189059757,-12465.165551324553,6562.58393080043,8164.153476256547,-187500.02235174447,-187500.02235174447,-187500.02235174447,-187500.02235174447
não,-2195.343636911349,-12479.47066777595,6459.94472026166,8165.114601268126,-187500.02235174447,-187500.02235174447,-187500.02235174447,-187500.02235174447
não,-2136.1115141047853,-12471.625205472137,6643.564300962008,8155.905682552539,-187500.02235174447,-187500.02235174447,-187500.02235174447,-187500.02235174447
não,-2117.2019382955955,-12457.431847743017,6748.997479557691,8158.230263975891,-187500.02235174447,-187500.02235174447,-187500.02235174447,-187500.02235174447
não,-2170.8461249883326,-12462.013955356355,6600.671303352274,8167.394479202567,-187500.02235174447,-187500.02235174447,-187500.02235174447,-187500.02235174447
não,-2210.051084762941,-12469.568844982248,6452.389830635766,8176.290473495779,-187500.02235174447,-187500.02235174447,-187500.02235174447,-187500.02235174447
não,-2161.8830754617543,-12463.958557123966,6597.720873084173,8164.622862890109,-187500.02235174447,-187500.02235174447,-187500.02235174447,-187500.02235174447
não,-2129.8753774017546,-12448.491149960893,6753.981918571225,8160.800714588251,-187500.02235174447,-187500.02235174447,-187500.02235174447,-187500.02235174447
não,-2169.3262063653715,-12448.155873794065,6639.675097426784,8174.122354283614,-187500.02235174447,-187500.02235174447,-187500.02235174447,-187500.02235174447
não,-2209.3358289403714,-12460.091705333198,6462.85044704085,8185.901723611561,-187500.02235174447,-187500.02235174447,-187500.02235174447,-187500.02235174447
não,-2169.1026889208188,-12462.148065823087,6552.749163240095,8174.1670577725245,-187500.02235174447,-187500.02235174447,-187500.02235174447,-187500.02235174447
não,-2138.257281572495,-12442.456178957962,6733.373610183431,8158.677298864997,-187500.02235174447,-187500.02235174447,-187500.02235174447,-187500.02235174447
não,-2167.605122042313,-12433.02374279782,6671.526333275597,8179.352662486156,-187500.02235174447,-187500.02235174447,-187500.02235174447,-187500.02235174447
não,-2212.6438871197565,-12444.378428981117,6490.879534587805,8193.724834170918,-187500.02235174447,-187500.02235174447,-187500.02235174447,-187500.02235174447
não,-2204.641962604757,-12442.41147546905,6519.690933190695,8183.934770099494,-187500.02235174447,-187500.02235174447,-187500.02235174447,-187500.02235174447
não,-2160.541970794436,-12421.423187425517,6724.723485079227,8170.166095515025,-187500.02235174447,-187500.02235174447,-187500.02235174447,-187500.02235174447
não,-2184.1901164281508,-12418.31629494623,6696.649694043362,8176.223418262413,-187500.02235174447,-187500.02235174447,-187500.02235174447,-187500.02235174447
não,-2234.928576341698,-12427.011123539343,6503.351807993867,8172.535380427287,-187500.02235174447,-187500.02235174447,-187500.02235174447,-187500.02235174447
não,-2228.826550105399,-12438.164644022543,6486.364482207833,8166.52276116881,-187500.02235174447,-187500.02235174447,-187500.02235174447,-187500.02235174447
não,-2163.3359388513495,-12414.203573966453,6710.843051772482,8179.419717719522,-187500.02235174447,-187500.02235174447,-187500.02235174447,-187500.02235174447
não,-2154.797572469422,-12398.445594125462,6746.605842900974,8203.514898242343,-187500.02235174447,-187500.02235174447,-187500.02235174447,-187500.02235174447
não,-2202.5856021148684,-12399.339663903675,6569.758840770583,8208.05230236677,-187500.02235174447,-187500.02235174447,-187500.02235174447,-187500.02235174447
não,-2213.180328986684,-12413.085986743688,6503.396511482777,8190.662645180541,-187500.02235174447,-187500.02235174447,-187500.02235174447,-187500.02235174447
não,-2164.230008629562,-12402.73712906088,6711.580659339507,8182.839534621184,-187500.02235174447,-187500.02235174447,-187500.02235174447,-187500.02235174447
não,-2156.2951393479275,-12399.607884837138,6784.447346263808,8185.275874766812,-187500.02235174447,-187500.02235174447,-187500.02235174447,-187500.02235174447
não,-2221.8751575797987,-12417.846908312667,6593.49639338212,8174.524685683809,-187500.02235174447,-187500.02235174447,-187500.02235174447,-187500.02235174447
não,-2241.2317682780945,-12404.592323850671,6468.7960110659615,8203.537249986799,-187500.02235174447,-187500.02235174447,-187500.02235174447,-187500.02235174447
não,-2194.248401433039,-12377.054974681732,6642.737286417161,8187.064014323237,-187500.02235174447,-187500.02235174447,-187500.02235174447,-187500.02235174447
não,-2183.743081539045,-12359.531207028773,6766.521247210651,8146.607356859131,-187500.02235174447,-187500.02235174447,-187500.02235174447,-187500.02235174447
não,-2221.517529668514,-12376.518532814805,6638.3116410150105,8169.987281559383,-187500.02235174447,-187500.02235174447,-187500.02235174447,-187500.02235174447
não,-2243.0646113234297,-12385.615692808116,6497.070967801925,8212.76852044684,-187500.02235174447,-187500.02235174447,-187500.02235174447,-187500.02235174447
não,-2205.156052727229,-12386.532114330783,6631.561414189508,8201.592648219186,-187500.02235174447,-187500.02235174447,-187500.02235174447,-187500.02235174447
não,-2186.738215296056,-12382.486448584372,6775.774869415149,8171.6413106490745,-187500.02235174447,-187500.02235174447,-187500.02235174447,-187500.02235174447
não,-2229.9441373281643,-12374.283358369275,6663.077373871491,8183.510086954843,-187500.02235174447,-187500.02235174447,-187500.02235174447,-187500.02235174447
não,-2273.284169827005,-12400.054919726244,6480.620083882819,8180.917284598027,-187500.02235174447,-187500.02235174447,-187500.02235174447,-187500.02235174447
não,-2245.0315648354967,-12408.45917564144,6549.128180638335,8159.169037243014,-187500.02235174447,-187500.02235174447,-187500.02235174447,-187500.02235174447
não,-2193.2649246770056,-12382.888779984569,6753.087848793012,8171.440144948977,-187500.02235174447,-187500.02235174447,-187500.02235174447,-187500.02235174447
não,-2210.8110440744217,-12358.368916317097,6699.42131035582,8196.250581294367,-187500.02235174447,-187500.02235174447,-187500.02235174447,-187500.02235174447
não,-2263.3152917999378,-12370.371803089596,6512.985409854104,8202.486717997399,-187500.02235174447,-187500.02235174447,-187500.02235174447,-187500.02235174447
não,-2249.1666375597283,-12386.152134675043,6535.113636864858,8195.71413942744,-187500.02235174447,-187500.02235174447,-187500.02235174447,-187500.02235174447
não,-2211.414541174715,-12377.479657826383,6728.478578147719,8180.604360175653,-187500.02235174447,-187500.02235174447,-187500.02235174447,-187500.02235174447
não,-2220.824625590399,-12371.042355423255,6716.095711719479,8203.514898242343,-187500.02235174447,-187500.02235174447,-187500.02235174447,-187500.02235174447
não,-2265.6845767122004,-12377.412602593018,6543.316727079956,8210.779215190318,-187500.02235174447,-187500.02235174447,-187500.02235174447,-187500.02235174447
não,-2272.993597149086,-12382.59820730665,6508.3362470074,8195.512973727344,-187500.02235174447,-187500.02235174447,-187500.02235174447,-187500.02235174447
não,-2215.929593554687,-12374.886855469567,6707.1103104484455,8171.149572271058,-187500.02235174447,-187500.02235174447,-187500.02235174447,-187500.02235174447
não,-2222.3668959578154,-12375.669166525504,6722.71182807825,8173.496505438866,-187500.02235174447,-187500.02235174447,-187500.02235174447,-187500.02235174447
não,-2265.081079611907,-12388.49906784285,6557.0183464310585,8189.6568166800525,-187500.02235174447,-187500.02235174447,-187500.02235174447,-187500.02235174447
não,-2271.0713471259296,-12388.811992265224,6490.723072376618,8181.587836931687,-187500.02235174447,-187500.02235174447,-187500.02235174447,-187500.02235174447
não,-2219.4388174341702,-12378.440782837963,6668.598254751952,8183.174810788013,-187500.02235174447,-187500.02235174447,-187500.02235174447,-187500.02235174447
não,-2221.405770946237,-12370.215340878409,6735.206453228767,8177.944502585471,-187500.02235174447,-187500.02235174447,-187500.02235174447,-187500.02235174447
não,-2274.669977983234,-12378.709003771426,6574.452707106198,8184.873543366617,-187500.02235174447,-187500.02235174447,-187500.02235174447,-187500.02235174447
não,-2299.636876539812,-12393.841134767668,6444.678478798685,8185.47704046691,-187500.02235174447,-187500.02235174447,-187500.02235174447,-187500.02235174447
não,-2248.1608090592395,-12393.997596978856,6610.2602017236,8174.658796150541,-187500.02235174447,-187500.02235174447,-187500.02235174447,-187500.02235174447
não,-2218.8800238227873,-12377.434954337474,6745.197683000289,8179.4420694639775,-187500.02235174447,-187500.02235174447,-187500.02235174447,-187500.02235174447
não,-2254.0393178509853,-12375.646814781048,6621.50312918462,8196.496450483377,-187500.02235174447,-187500.02235174447,-187500.02235174447,-187500.02235174447
não,-2291.210268880161,-12388.320253887208,6463.56570286342,8195.602380705164,-187500.02235174447,-187500.02235174447,-187500.02235174447,-187500.02235174447
não,-2249.7477829155664,-12388.11908818711,6585.8968002673155,8182.101927054158,-187500.02235174447,-187500.02235174447,-187500.02235174447,-187500.02235174447
não,-2216.644849377257,-12379.647777038548,6747.745781868194,8173.585912416686,-187500.02235174447,-187500.02235174447,-187500.02235174447,-187500.02235174447
não,-2255.3580707738483,-12380.45243983894,6651.454466754731,8191.757880658852,-187500.02235174447,-187500.02235174447,-187500.02235174447,-187500.02235174447
não,-2299.927449217731,-12390.667187055014,6465.532656375487,8190.036796335793,-187500.02235174447,-187500.02235174447,-187500.02235174447,-187500.02235174447
não,-2272.2559895820605,-12397.283303413786,6532.096151363391,8171.61895890462,-187500.02235174447,-187500.02235174447,-187500.02235174447,-187500.02235174447
não,-2215.639020876768,-12382.955835217934,6734.267679961644,8180.2690840088235,-187500.02235174447,-187500.02235174447,-187500.02235174447,-187500.02235174447
não,-2237.990765332075,-12379.223093893897,6684.08801365948,8187.756918401351,-187500.02235174447,-187500.02235174447,-187500.02235174447,-187500.02235174447
não,-2288.8409839678984,-12386.375652119596,6490.007816554048,8197.949313872972,-187500.02235174447,-187500.02235174447,-187500.02235174447,-187500.02235174447
$SILENCE,-2285.1529461327727,-12400.926637760002,6493.80761311145,8167.975624558405,-187500.02235174447,-187500.02235174447,-187500.02235174447,-187500.02235174447
$SILENCE,-2230.1900065171726,-12380.005404949834,6707.1103104484455,8165.1816565014915,-187500.02235174447,-187500.02235174447,-187500.02235174447,-187500.02235174447
$SILENCE,-2242.1928932896726,-12372.182294390475,6699.778938267105,8187.734566656896,-187500.02235174447,-187500.02235174447,-187500.02235174447,-187500.02235174447
$SILENCE,-2290.8079374799654,-12395.003425479345,6509.8785173748165,8187.108717812147,-187500.02235174447,-187500.02235174447,-187500.02235174447,-187500.02235174447
$SILENCE,-2286.8516787113763,-12395.808088279735,6464.9738627641045,8181.096098553669,-187500.02235174447,-187500.02235174447,-187500.02235174447,-187500.02235174447
$SILENCE,-2234.213320519128,-12378.530189815783,6674.163839121323,8164.287586723279,-187500.02235174447,-187500.02235174447,-187500.02235174447,-187500.02235174447
$SILENCE,-2240.672974666712,-12375.244483380853,6714.66520007434,8165.986319301882,-187500.02235174447,-187500.02235174447,-187500.02235174447,-187500.02235174447
$SILENCE,-2293.6466090257895,-12391.427146366495,6536.5888519989085,8185.968778844926,-187500.02235174447,-187500.02235174447,-187500.02235174447,-187500.02235174447
$SILENCE,-2311.796225523499,-12395.271646412808,6440.945737474649,8175.3964037175665,-187500.02235174447,-187500.02235174447,-187500.02235174447,-187500.02235174447
$SILENCE,-2257.8838178972983,-12380.094811927655,6632.12020780089,8148.887234793572,-187500.02235174447,-187500.02235174447,-187500.02235174447,-187500.02235174447
$SILENCE,-2241.030602577997,-12375.758573503324,6722.443607144786,8155.391592430066,-187500.02235174447,-187500.02235174447,-187500.02235174447,-187500.02235174447
$SILENCE,-2277.30748382896,-12387.649701553548,6573.648044305807,8192.76370915934,-187500.02235174447,-187500.02235174447,-187500.02235174447,-187500.02235174447
$SILENCE,-2301.7379405186107,-12390.108393443632,6439.269356640501,8204.721892442929,-187500.02235174447,-187500.02235174447,-187500.02235174447,-187500.02235174447
$SILENCE,-2253.6593381952453,-12388.901399243046,6582.767556043573,8174.256464750346,-187500.02235174447,-187500.02235174447,-187500.02235174447,-187500.02235174447
$SILENCE,-2214.0073435315303,-12389.728413787892,6722.845938544981,8159.906644810038,-187500.02235174447,-187500.02235174447,-187500.02235174447,-187500.02235174447
$SILENCE,-2244.271605524016,-12381.368861361607,6609.12026275638,8170.255502492846,-187500.02235174447,-187500.02235174447,-187500.02235174447,-187500.02235174447
$SILENCE,-2280.459079797158,-12384.341643374162,6449.1264759452915,8179.777345630807,-187500.02235174447,-187500.02235174447,-187500.02235174447,-187500.02235174447
$SILENCE,-2248.563140459435,-12395.07048071271,6553.643233018307,8159.5490168987535,-187500.02235174447,-187500.02235174447,-187500.02235174447,-187500.02235174447
$SILENCE,-2217.62832613329,-12381.860599739624,6725.706961835261,8156.620938375108,-187500.02235174447,-187500.02235174447,-187500.02235174447,-187500.02235174447
$SILENCE,-2253.480524239603,-12374.551579302739,6643.810170151016,8183.219514276924,-187500.02235174447,-187500.02235174447,-187500.02235174447,-187500.02235174447
$SILENCE,-2304.0625219419626,-12380.385384605574,6461.151714462247,8208.119357600137,-187500.02235174447,-187500.02235174447,-187500.02235174447,-187500.02235174447
$SILENCE,-2281.6213705088344,-12386.129782930588,6513.275982532023,8194.216572548936,-187500.02235174447,-187500.02235174447,-187500.02235174447,-187500.02235174447
$SILENCE,-2240.2259397776056,-12374.082192669177,6709.61370582744,8169.80846760374,-187500.02235174447,-187500.02235174447,-187500.02235174447,-187500.02235174447
$SILENCE,-2257.213265563639,-12372.182294390475,6668.933530918781,8172.088345538181,-187500.02235174447,-187500.02235174447,-187500.02235174447,-187500.02235174447
$SILENCE,-2301.179146907228,-12388.990806220867,6478.921351304216,8184.180639288502,-187500.02235174447,-187500.02235174447,-187500.02235174447,-187500.02235174447
$SILENCE,-2291.7690624915435,-12396.54569584676,6472.126420989803,8183.152459043558,-187500.02235174447,-187500.02235174447,-187500.02235174447,-187500.02235174447
$SILENCE,-2236.2249775201058,-12379.625425294093,6683.529220048096,8169.964929814927,-187500.02235174447,-187500.02235174447,-187500.02235174447,-187500.02235174447
$SILENCE,-2245.6797654247007,-12372.517570557306,6688.245438128167,8185.633502678097,-187500.02235174447,-187500.02235174447,-187500.02235174447,-187500.02235174447
$SILENCE,-2294.7418445040994,-12382.64291079556,6505.721092906129,8218.848194938684,-187500.02235174447,-187500.02235174447,-187500.02235174447,-187500.02235174447
$SILENCE,-2301.626181796334,-12391.40479462204,6445.818417765906,8197.815203406239,-187500.02235174447,-187500.02235174447,-187500.02235174447,-187500.02235174447
$SILENCE,-2255.2910155404825,-12390.086041699176,6642.513768972608,8146.003859758838,-187500.02235174447,-187500.02235174447,-187500.02235174447,-187500.02235174447
$SILENCE,-2249.568968959924,-12373.813971735713,6698.929571977803,8150.653022605542,-187500.02235174447,-187500.02235174447,-187500.02235174447,-187500.02235174447
$SILENCE,-2289.3550740903706,-12372.450515323939,6536.5888519989085,8177.028081062804,-187500.02235174447,-187500.02235174447,-187500.02235174447,-187500.02235174447
$SILENCE,-2299.569821306446,-12387.157963175532,6433.793179248951,8195.445918493977,-187500.02235174447,-187500.02235174447,-187500.02235174447,-187500.02235174447
$SILENCE,-2249.859541637843,-12387.381480620084,6613.344742458433,8172.1106972826365,-187500.02235174447,-187500.02235174447,-187500.02235174447,-187500.02235174447
$SILENCE,-2236.3143844979268,-12373.903378713534,6715.156938452356,8162.700612866952,-187500.02235174447,-187500.02235174447,-187500.02235174447,-187500.02235174447
$SILENCE,-2279.6544169967674,-12376.965567703912,6571.390518115821,8177.184543273991,-187500.02235174447,-187500.02235174447,-187500.02235174447,-187500.02235174447
$SILENCE,-2309.8069202669767,-12393.304692900741,6424.338391344356,8186.348758500667,-187500.02235174447,-187500.02235174447,-187500.02235174447,-187500.02235174447
$SILENCE,-2270.4231465367257,-12396.88097201359,6562.539227311519,8175.843438606673,-187500.02235174447,-187500.02235174447,-187500.02235174447,-187500.02235174447
$SILENCE,-2244.048088079463,-12380.720660772404,6713.413502384842,8178.279778752301,-187500.02235174447,-187500.02235174447,-187500.02235174447,-187500.02235174447
$SILENCE,-2281.8672396978427,-12375.020965936299,6602.437091164243,8174.748203128363,-187500.02235174447,-187500.02235174447,-187500.02235174447,-187500.02235174447
$SILENCE,-2310.1868999227167,-12382.240579395364,6432.60853679282,8176.3351769846895,-187500.02235174447,-187500.02235174447,-187500.02235174447,-187500.02235174447
$SILENCE,-2269.350262802871,-12378.105506671132,6528.631630972819,8178.413889219033,-187500.02235174447,-187500.02235174447,-187500.02235174447,-187500.02235174447
$SILENCE,-2229.608861161335,-12373.009308935323,6708.026731971113,8161.828894833196,-187500.02235174447,-187500.02235174447,-187500.02235174447,-187500.02235174447
$SILENCE,-2253.9275591287087,-12373.881026969078,6637.104646814424,8163.862903578628,-187500.02235174447,-187500.02235174447,-187500.02235174447,-187500.02235174447
$SILENCE,-2299.1227864173397,-12385.25806489683,6454.960281248126,8176.290473495779,-187500.02235174447,-187500.02235174447,-187500.02235174447,-187500.02235174447
$SILENCE,-2279.2520855965718,-12393.818783023213,6493.941723578182,8180.3808427311,-187500.02235174447,-187500.02235174447,-187500.02235174447,-187500.02235174447
$SILENCE,-2223.6409453917677,-12385.079250941188,6704.89748774737,8196.71996792793,-187500.02235174447,-187500.02235174447,-187500.02235174447,-187500.02235174447
$SILENCE,-2247.266739281027,-12385.59334106366,6672.979196665192,8200.497412740877,-187500.02235174447,-187500.02235174447,-187500.02235174447,-187500.02235174447
$SILENCE,-2305.604792309379,-12393.774079534303,6467.94664477666,8184.158287544047,-187500.02235174447,-187500.02235174447,-187500.02235174447,-187500.02235174447
$SILENCE,-2305.113053931362,-12387.649701553548,6441.079847941381,8157.291490708768,-187500.02235174447,-187500.02235174447,-187500.02235174447,-187500.02235174447
$SILENCE,-2245.4338962356924,-12374.864503725114,6656.997699379647,8128.256574661324,-187500.02235174447,-187500.02235174447,-187500.02235174447,-187500.02235174447
$SILENCE,-2246.0597450804407,-12369.231864122376,6685.56322879353,8138.292507921757,-187500.02235174447,-187500.02235174447,-187500.02235174447,-187500.02235174447
$SILENCE,-2292.7525392475773,-12381.838247995169,6508.269191774034,8170.769592615318,-187500.02235174447,-187500.02235174447,-187500.02235174447,-187500.02235174447
$SILENCE,-2290.9643996911527,-12393.349396389653,6436.765961261507,8181.587836931687,-187500.02235174447,-187500.02235174447,-187500.02235174447,-187500.02235174447
$SILENCE,-2215.1472824987513,-12384.632216052081,6641.396181749843,8173.608264161142,-187500.02235174447,-187500.02235174447,-187500.02235174447,-187500.02235174447
$SILENCE,-2204.8207765603993,-12377.993747948856,6714.642848329884,8176.201066517958,-187500.02235174447,-187500.02235174447,-187500.02235174447,-187500.02235174447
$SILENCE,-2255.983919618597,-12384.900436985547,6554.53730279652,8175.172886273013,-187500.02235174447,-187500.02235174447,-187500.02235174447,-187500.02235174447
$SILENCE,-2278.3356640739044,-12389.013157965323,6429.501644313532,8172.5800839161975,-187500.02235174447,-187500.02235174447,-187500.02235174447,-187500.02235174447
$SILENCE,-2226.054933792941,-12388.87904749859,6596.916210283782,8159.973700043404,-187500.02235174447,-187500.02235174447,-187500.02235174447,-187500.02235174447
$SILENCE,-2203.05498874843,-12373.9704339469,6715.536918108096,8157.09032500867,-187500.02235174447,-187500.02235174447,-187500.02235174447,-187500.02235174447
$SILENCE,-2248.7866579039883,-12372.674032768493,6575.503239095598,8174.323519983712,-187500.02235174447,-187500.02235174447,-187500.02235174447,-187500.02235174447
$SILENCE,-2282.7389577316,-12391.963588233422,6425.098350655837,8186.281703267301,-187500.02235174447,-187500.02235174447,-187500.02235174447,-187500.02235174447
$SILENCE,-2238.6166141768235,-12394.243466167864,6557.666547020262,8177.206895018447,-187500.02235174447,-187500.02235174447,-187500.02235174447,-187500.02235174447
$SILENCE,-2197.7799770569777,-12378.485486326872,6722.935345522803,8158.18556048698,-187500.02235174447,-187500.02235174447,-187500.02235174447,-187500.02235174447
$SILENCE,-2226.5466721709577,-12376.965567703912,6623.1124547854015,8182.884238110094,-187500.02235174447,-187500.02235174447,-187500.02235174447,-187500.02235174447
$SILENCE,-2268.0985651133738,-12384.609864307628,6442.242138653057,8190.707348669452,-187500.02235174447,-187500.02235174447,-187500.02235174447,-187500.02235174447
$SILENCE,-2248.697250926167,-12395.539867346271,6512.605430198363,8153.826970318195,-187500.02235174447,-187500.02235174447,-187500.02235174447,-187500.02235174447
$SILENCE,-2203.8149480599104,-12380.9218264725,6703.914010991337,8138.448970132944,-187500.02235174447,-187500.02235174447,-187500.02235174447,-187500.02235174447
$SILENCE,-2225.9431750706644,-12375.06566942521,6648.168760319801,8149.758952827329,-187500.02235174447,-187500.02235174447,-187500.02235174447,-187500.02235174447
$SILENCE,-2273.4629837826474,-12386.152134675043,6457.664842327219,8158.029098275793,-187500.02235174447,-187500.02235174447,-187500.02235174447,-187500.02235174447
$SILENCE,-2256.319195785427,-12382.240579395364,6481.6482641277635,8157.4256011755,-187500.02235174447,-187500.02235174447,-187500.02235174447,-187500.02235174447
$SILENCE,-2200.350427669338,-12373.098715913144,6693.475746330709,8148.574310371198,-187500.02235174447,-187500.02235174447,-187500.02235174447,-187500.02235174447
$SILENCE,-2197.1317764677738,-12378.887817727067,6688.7371765061835,8165.919264068516,-187500.02235174447,-187500.02235174447,-187500.02235174447,-187500.02235174447
$SILENCE,-2245.7468206580666,-12396.478640613395,6498.300313746967,8180.514953197832,-187500.02235174447,-187500.02235174447,-187500.02235174447,-187500.02235174447
$SILENCE,-2257.30267254146,-12402.69242557197,6449.327641645389,8164.935787312483,-187500.02235174447,-187500.02235174447,-187500.02235174447,-187500.02235174447
$SILENCE,-2201.289200936461,-12390.890704499569,6657.712955202217,8144.238071946868,-187500.02235174447,-187500.02235174447,-187500.02235174447,-187500.02235174447
$SILENCE,-2196.5282793674805,-12382.64291079556,6695.979141709703,8144.394534158056,-187500.02235174447,-187500.02235174447,-187500.02235174447,-187500.02235174447
$SILENCE,-2244.048088079463,-12389.683710298981,6517.165186067246,8150.831836561184,-187500.02235174447,-187500.02235174447,-187500.02235174447,-187500.02235174447
$SILENCE,-2251.088887582885,-12392.052995211245,6439.068190940403,8150.071877249704,-187500.02235174447,-187500.02235174447,-187500.02235174447,-187500.02235174447
$SILENCE,-2195.142471211251,-12389.21432366542,6636.1435218028455,8138.985411999872,-187500.02235174447,-187500.02235174447,-187500.02235174447,-187500.02235174447
$SILENCE,-2185.9112007512094,-12389.817820765713,6718.017961742636,8139.790074800262,-187500.02235174447,-187500.02235174447,-187500.02235174447,-187500.02235174447
$SILENCE,-2229.318288483416,-12394.60109407915,6565.355547112888,8162.275929722301,-187500.02235174447,-187500.02235174447,-187500.02235174447,-187500.02235174447
$SILENCE,-2254.9780911181083,-12402.73712906088,6431.759170503517,8162.320633211212,-187500.02235174447,-187500.02235174447,-187500.02235174447,-187500.02235174447
$SILENCE,-2204.15022422674,-12394.466983612418,6592.6470270928185,8146.629708603587,-187500.02235174447,-187500.02235174447,-187500.02235174447,-187500.02235174447
$SILENCE,-2186.313532151405,-12374.663338025015,6710.999513983669,8124.926164737483,-187500.02235174447,-187500.02235174447,-187500.02235174447,-187500.02235174447
$SILENCE,-2227.507797182536,-12379.223093893897,6579.928884497748,8129.463568861911,-187500.02235174447,-187500.02235174447,-187500.02235174447,-187500.02235174447
$SILENCE,-2257.660300452745,-12394.466983612418,6428.451112324133,8145.422714403,-187500.02235174447,-187500.02235174447,-187500.02235174447,-187500.02235174447
$SILENCE,-2210.743988841056,-12403.854716283646,6554.760820241073,8141.824083545695,-187500.02235174447,-187500.02235174447,-187500.02235174447,-187500.02235174447
$SILENCE,-2171.091994177341,-12394.623445823605,6722.756531567161,8139.343039911157,-187500.02235174447,-187500.02235174447,-187500.02235174447,-187500.02235174447
$SILENCE,-2206.519509139003,-12388.49906784285,6629.326239743977,8158.029098275793,-187500.02235174447,-187500.02235174447,-187500.02235174447,-187500.02235174447
$SILENCE,-2252.988785861586,-12391.31538764422,6445.952528232638,8166.031022790793,-187500.02235174447,-187500.02235174447,-187500.02235174447,-187500.02235174447
$SILENCE,-2229.4523989501477,-12398.467945869917,6511.957229609159,8130.670563062497,-187500.02235174447,-187500.02235174447,-187500.02235174447,-187500.02235174447
$SILENCE,-2179.6527123037235,-12383.894608485058,6706.4621098592415,8111.246897130835,-187500.02235174447,-187500.02235174447,-187500.02235174447,-187500.02235174447
$SILENCE,-2202.7867678149664,-12380.385384605574,6650.001603365136,8129.955307239928,-187500.02235174447,-187500.02235174447,-187500.02235174447,-187500.02235174447
$SILENCE,-2256.5874167188904,-12395.897495257557,6458.514208616521,8147.076743492693,-187500.02235174447,-187500.02235174447,-187500.02235174447,-187500.02235174447
$SILENCE,-2240.091829310874,-12401.105451715643,6475.032147768992,8146.674412092497,-187500.02235174447,-187500.02235174447,-187500.02235174447,-187500.02235174447
$SILENCE,-2176.322302379883,-12384.900436985547,6692.738138763683,8137.510196865821,-187500.02235174447,-187500.02235174447,-187500.02235174447,-187500.02235174447
$SILENCE,-2181.351444882327,-12377.814933993213,6694.883906231393,8148.596662115653,-187500.02235174447,-187500.02235174447,-187500.02235174447,-187500.02235174447
$SILENCE,-2236.9625850871307,-12392.075346955698,6505.43052022821,8154.229301718391,-187500.02235174447,-187500.02235174447,-187500.02235174447,-187500.02235174447
$SILENCE,-2249.054878837452,-12401.9771697494,6447.092467199858,8140.192406200458,-187500.02235174447,-187500.02235174447,-187500.02235174447,-187500.02235174447
$SILENCE,-2193.4660903771032,-12386.867390497613,6652.08031559948,8122.579231569676,-187500.02235174447,-187500.02235174447,-187500.02235174447,-187500.02235174447
$SILENCE,-2192.6167240878017,-12376.317367114707,6696.292066132077,8135.498539864843,-187500.02235174447,-187500.02235174447,-187500.02235174447,-187500.02235174447
$SILENCE,-2244.9421578576753,-12390.622483566105,6519.579174468419,8151.100057494647,-187500.02235174447,-187500.02235174447,-187500.02235174447,-187500.02235174447
$SILENCE,-2258.576721975413,-12398.132669703087,6426.730028001074,8149.960118527427,-187500.02235174447,-187500.02235174447,-187500.02235174447,-187500.02235174447
$SILENCE,-2196.1035962228293,-12386.085079441676,6628.856853110416,8138.739542810863,-187500.02235174447,-187500.02235174447,-187500.02235174447,-187500.02235174447
$SILENCE,-2185.419462373193,-12381.726489272893,6718.017961742636,8139.141874211058,-187500.02235174447,-187500.02235174447,-187500.02235174447,-187500.02235174447
$SILENCE,-2230.1453030282623,-12391.158925433032,6566.897817480304,8154.788095329774,-187500.02235174447,-187500.02235174447,-187500.02235174447,-187500.02235174447
$SILENCE,-2258.7778876755106,-12400.770175548814,6430.395714091745,8165.718098368418,-187500.02235174447,-187500.02235174447,-187500.02235174447,-187500.02235174447
$SILENCE,-2215.1696342432065,-12392.54473358926,6583.616922332874,8149.960118527427,-187500.02235174447,-187500.02235174447,-187500.02235174447,-187500.02235174447
$SILENCE,-2180.122098937285,-12379.379556105085,6726.489272891196,8146.741467325863,-187500.02235174447,-187500.02235174447,-187500.02235174447,-187500.02235174447
$SILENCE,-2220.3999424457484,-12382.64291079556,6599.710178340695,8158.856112820639,-187500.02235174447,-187500.02235174447,-187500.02235174447,-187500.02235174447
$SILENCE,-2261.6836144547005,-12398.557352847738,6430.999211192037,8166.008671046337,-187500.02235174447,-187500.02235174447,-187500.02235174447,-187500.02235174447
$SILENCE,-2217.896547066754,-12399.585533092682,6547.585910270919,8160.152513999047,-187500.02235174447,-187500.02235174447,-187500.02235174447,-187500.02235174447
$SILENCE,-2181.1055756933183,-12383.246407895853,6722.71182807825,8150.630670861086,-187500.02235174447,-187500.02235174447,-187500.02235174447,-187500.02235174447
$SILENCE,-2217.0695325219076,-12378.865465982613,6629.2144810217005,8152.821141817706,-187500.02235174447,-187500.02235174447,-187500.02235174447,-187500.02235174447
$SILENCE,-2257.1238585858177,-12392.12005044461,6449.685269556674,8167.349775713656,-187500.02235174447,-187500.02235174447,-187500.02235174447,-187500.02235174447
$SILENCE,-2225.9431750706644,-12401.284265671286,6511.309029019956,8165.561636157231,-187500.02235174447,-187500.02235174447,-187500.02235174447,-187500.02235174447
$SILENCE,-2183.38545362776,-12390.510724843827,6706.484461603697,8161.001880288349,-187500.02235174447,-187500.02235174447,-187500.02235174447,-187500.02235174447
$SILENCE,-2229.2959367389603,-12384.699271285448,6639.451579982231,8160.867769821617,-187500.02235174447,-187500.02235174447,-187500.02235174447,-187500.02235174447
$SILENCE,-2264.052899366963,-12392.298864400253,6461.285824928978,8180.626711920108,-187500.02235174447,-187500.02235174447,-187500.02235174447,-187500.02235174447
$SILENCE,-2228.9383088276754,-12389.728413787892,6475.970921036115,8181.4984299538655,-187500.02235174447,-187500.02235174447,-187500.02235174447,-187500.02235174447
$SILENCE,-2168.409784842704,-12384.878085241091,6690.860592229437,8170.926054826505,-187500.02235174447,-187500.02235174447,-187500.02235174447,-187500.02235174447
$SILENCE,-2191.9461717541426,-12382.017061950812,6683.909199703837,8157.872636064606,-187500.02235174447,-187500.02235174447,-187500.02235174447,-187500.02235174447
$SILENCE,-2242.706983412145,-12393.483506856384,6501.586020181897,8175.3964037175665,-187500.02235174447,-187500.02235174447,-187500.02235174447,-187500.02235174447
$SILENCE,-2262.1082975993513,-12396.098660957654,6432.65324028173,8162.544150655765,-187500.02235174447,-187500.02235174447,-187500.02235174447,-187500.02235174447
$SILENCE,-2206.988895772564,-12384.565160818716,6637.350516003432,8145.646231847553,-187500.02235174447,-187500.02235174447,-187500.02235174447,-187500.02235174447
$SILENCE,-2205.7595498275223,-12381.793544506258,6686.032615427091,8154.855150563139,-187500.02235174447,-187500.02235174447,-187500.02235174447,-187500.02235174447
$SILENCE,-2231.9110908402313,-12391.360091133129,6538.086418877414,8196.921133628028,-187500.02235174447,-187500.02235174447,-187500.02235174447,-187500.02235174447
$SILENCE,-2249.9936521045747,-12396.143364446565,6433.41319959321,8196.00471210536,-187500.02235174447,-187500.02235174447,-187500.02235174447,-187500.02235174447
$SILENCE,-2201.1774422141843,-12389.951931232445,6611.713065113195,8157.269138964312,-187500.02235174447,-187500.02235174447,-187500.02235174447,-187500.02235174447
$SILENCE,-2186.33588389586,-12381.055936939232,6705.61274356994,8150.340098183167,-187500.02235174447,-187500.02235174447,-187500.02235174447,-187500.02235174447
$SILENCE,-2233.542768185469,-12392.611788822627,6549.195235871701,8146.741467325863,-187500.02235174447,-187500.02235174447,-187500.02235174447,-187500.02235174447
$SILENCE,-2252.497047483569,-12407.810975052236,6415.88943194025,8154.855150563139,-187500.02235174447,-187500.02235174447,-187500.02235174447,-187500.02235174447
$SILENCE,-2195.5895061003575,-12401.328969160197,6578.140744941324,8156.866807564117,-187500.02235174447,-187500.02235174447,-187500.02235174447,-187500.02235174447
$SILENCE,-2182.178459427173,-12383.872256740602,6716.475691375219,8149.870711549606,-187500.02235174447,-187500.02235174447,-187500.02235174447,-187500.02235174447
$SILENCE,-2214.0073435315303,-12388.633178309581,6609.053207523014,8162.767668100318,-187500.02235174447,-187500.02235174447,-187500.02235174447,-187500.02235174447
$SILENCE,-2249.568968959924,-12402.893591272068,6434.8660629828055,8171.66366239353,-187500.02235174447,-187500.02235174447,-187500.02235174447,-187500.02235174447
$SILENCE,-2207.9500207841425,-12401.88776277158,6532.364372296855,8152.1505894840475,-187500.02235174447,-187500.02235174447,-187500.02235174447,-187500.02235174447
$SILENCE,-2156.406898070204,-12390.60013182165,6725.550499624074,8142.069952734703,-187500.02235174447,-187500.02235174447,-187500.02235174447,-187500.02235174447
$SILENCE,-2195.1648229557068,-12386.487410841872,6639.675097426784,8148.574310371198,-187500.02235174447,-187500.02235174447,-187500.02235174447,-187500.02235174447
$SILENCE,-2242.1928932896726,-12397.21624818042,6444.633775309775,8153.514045895821,-187500.02235174447,-187500.02235174447,-187500.02235174447,-187500.02235174447
$SILENCE,-2218.120064511307,-12401.127803460098,6488.622008397819,8142.13700796807,-187500.02235174447,-187500.02235174447,-187500.02235174447,-187500.02235174447
$SILENCE,-2159.8267149718663,-12394.243466167864,6703.712845291239,8141.712324823418,-187500.02235174447,-187500.02235174447,-187500.02235174447,-187500.02235174447
$SILENCE,-2174.7800320124666,-12395.204591179443,6676.868400200415,8153.156417984536,-187500.02235174447,-187500.02235174447,-187500.02235174447,-187500.02235174447
$SILENCE,-2217.7847883444774,-12403.385329650084,6490.767775865528,8160.756011099341,-187500.02235174447,-187500.02235174447,-187500.02235174447,-187500.02235174447
$SILENCE,-2212.2862592084716,-12413.577725121704,6473.691043101674,8149.915415038517,-187500.02235174447,-187500.02235174447,-187500.02235174447,-187500.02235174447
$SILENCE,-2155.8704562032767,-12397.68563481398,6682.791612481072,8133.777455541785,-187500.02235174447,-187500.02235174447,-187500.02235174447,-187500.02235174447
$SILENCE,-2161.5030958060142,-12389.527248087794,6697.387301610387,8131.832853774173,-187500.02235174447,-187500.02235174447,-187500.02235174447,-187500.02235174447
$SILENCE,-2208.6652766067123,-12402.915943016524,6518.506290734565,8148.239034204368,-187500.02235174447,-187500.02235174447,-187500.02235174447,-187500.02235174447
$SILENCE,-2218.8800238227873,-12411.320198931719,6446.399563121744,8147.590833615164,-187500.02235174447,-187500.02235174447,-187500.02235174447,-187500.02235174447
$SILENCE,-2158.6197207712794,-12403.586495350182,6649.778085920583,8131.922260751994,-187500.02235174447,-187500.02235174447,-187500.02235174447,-187500.02235174447
$SILENCE,-2150.1707613671733,-12395.0257772238,6718.576755354018,8133.509234608321,-187500.02235174447,-187500.02235174447,-187500.02235174447,-187500.02235174447
$SILENCE,-2195.8800787782766,-12404.12293721711,6557.465381320165,8144.2827754357795,-187500.02235174447,-187500.02235174447,-187500.02235174447,-187500.02235174447
$SILENCE,-2208.48646265107,-12416.371693178618,6450.579339334887,8151.837665061673,-187500.02235174447,-187500.02235174447,-187500.02235174447,-187500.02235174447
$SILENCE,-2157.8821132042544,-12409.956742519946,6620.340838472944,8136.236147431869,-187500.02235174447,-187500.02235174447,-187500.02235174447,-187500.02235174447
$SILENCE,-2139.71014496209,-12397.68563481398,6727.09276999149,8127.27309790529,-187500.02235174447,-187500.02235174447,-187500.02235174447,-187500.02235174447
$SILENCE,-2182.3349216383604,-12402.535963360782,6586.679111323251,8136.973754998894,-187500.02235174447,-187500.02235174447,-187500.02235174447,-187500.02235174447
$SILENCE,-2210.118139996307,-12417.176355979009,6436.385981605767,8143.276946935291,-187500.02235174447,-187500.02235174447,-187500.02235174447,-187500.02235174447
$SILENCE,-2165.19113364114,-12417.131652490098,6570.943483226715,8128.927126994983,-187500.02235174447,-187500.02235174447,-187500.02235174447,-187500.02235174447
$SILENCE,-2133.339897792327,-12402.424204638506,6729.082075248012,8122.065141447204,-187500.02235174447,-187500.02235174447,-187500.02235174447,-187500.02235174447
$SILENCE,-2171.404918599715,-12402.513611616328,6624.855890852916,8134.693877064452,-187500.02235174447,-187500.02235174447,-187500.02235174447,-187500.02235174447
$SILENCE,-2209.3581806848265,-12415.36586467813,6451.674574813196,8147.859054548629,-187500.02235174447,-187500.02235174447,-187500.02235174447,-187500.02235174447
$SILENCE,-2176.0987849353296,-12416.371693178618,6536.164168854257,8139.432446888977,-187500.02235174447,-187500.02235174447,-187500.02235174447,-187500.02235174447
$SILENCE,-2133.831636170344,-12399.943161003966,6724.90229903487,8123.786225770263,-187500.02235174447,-187500.02235174447,-187500.02235174447,-187500.02235174447
$SILENCE,-2157.435078315148,-12401.060748226733,6661.89273141536,8134.55976659772,-187500.02235174447,-187500.02235174447,-187500.02235174447,-187500.02235174447
$SILENCE,-2209.3581806848265,-12412.97422802141,6468.997176766059,8144.595699858153,-187500.02235174447,-187500.02235174447,-187500.02235174447,-187500.02235174447
$SILENCE,-2196.1706514561956,-12417.981018779401,6494.299351489467,8133.75510379733,-187500.02235174447,-187500.02235174447,-187500.02235174447,-187500.02235174447
$SILENCE,-2144.1357903642406,-12406.425166896006,6703.019941213124,8119.248821645835,-187500.02235174447,-187500.02235174447,-187500.02235174447,-187500.02235174447
$SILENCE,-2159.938473694143,-12401.664245327025,6679.394147323865,8132.637516574564,-187500.02235174447,-187500.02235174447,-187500.02235174447,-187500.02235174447
$SILENCE,-2208.0394277619635,-12407.654512841049,6491.8630113438385,8149.08840049367,-187500.02235174447,-187500.02235174447,-187500.02235174447,-187500.02235174447
$SILENCE,-2200.998628258542,-12415.544678633772,6465.1526767197465,8141.667621334508,-187500.02235174447,-187500.02235174447,-187500.02235174447,-187500.02235174447
$SILENCE,-2142.6605752301903,-12407.140422718576,6676.555475778041,8125.172033926491,-187500.02235174447,-187500.02235174447,-187500.02235174447,-187500.02235174447
$SILENCE,-2146.6838892321457,-12399.786698792781,6705.210412169745,8132.65986831902,-187500.02235174447,-187500.02235174447,-187500.02235174447,-187500.02235174447
$SILENCE,-2198.7187503241003,-12408.302713430252,6526.932898394215,8147.009688259326,-187500.02235174447,-187500.02235174447,-187500.02235174447,-187500.02235174447
$SILENCE,-2213.739122598067,-12418.517460646328,6446.533673588476,8145.80269405874,-187500.02235174447,-187500.02235174447,-187500.02235174447,-187500.02235174447
$SILENCE,-2158.8208864713774,-12411.163736720531,6643.385487006365,8129.865900262106,-187500.02235174447,-187500.02235174447,-187500.02235174447,-187500.02235174447
$SILENCE,-2146.415668298682,-12400.323140659708,6719.940211765792,8132.190481685458,-187500.02235174447,-187500.02235174447,-187500.02235174447,-187500.02235174447
$SILENCE,-2192.4602618766144,-12407.721568074414,6555.744296997106,8142.069952734703,-187500.02235174447,-187500.02235174447,-187500.02235174447,-187500.02235174447
$SILENCE,-2219.1705965007063,-12420.216193224931,6431.021562936493,8146.719115581408,-187500.02235174447,-187500.02235174447,-187500.02235174447,-187500.02235174447
$SILENCE,-2169.8402964878437,-12415.388216422585,6598.391425417832,8131.27406016279,-187500.02235174447,-187500.02235174447,-187500.02235174447,-187500.02235174447
$SILENCE,-2145.119267120274,-12401.574838349205,6726.310458935554,8129.754141539829,-187500.02235174447,-187500.02235174447,-187500.02235174447,-187500.02235174447
$SILENCE,-2184.056005961419,-12403.698254072458,6594.21164920469,8139.745371311352,-187500.02235174447,-187500.02235174447,-187500.02235174447,-187500.02235174447
$SILENCE,-2223.2386139915725,-12416.438748411983,6432.899109470739,8146.026211503293,-187500.02235174447,-187500.02235174447,-187500.02235174447,-187500.02235174447
$SILENCE,-2179.7197675370894,-12418.36099843514,6557.800657486994,8136.5937753431535,-187500.02235174447,-187500.02235174447,-187500.02235174447,-187500.02235174447
$SILENCE,-2140.537159506936,-12404.614675595127,6722.734179822705,8130.55880434022,-187500.02235174447,-187500.02235174447,-187500.02235174447,-187500.02235174447
$SILENCE,-2179.4291948591704,-12405.642855840071,6622.799530363028,8137.957231754927,-187500.02235174447,-187500.02235174447,-187500.02235174447,-187500.02235174447
$SILENCE,-2223.417427947215,-12417.891611801579,6442.689173542163,8143.679278335486,-187500.02235174447,-187500.02235174447,-187500.02235174447,-187500.02235174447
$SILENCE,-2187.4534711186257,-12420.573821136215,6516.8075581559615,8132.65986831902,-187500.02235174447,-187500.02235174447,-187500.02235174447,-187500.02235174447
$SILENCE,-2142.9064444191986,-12406.69338782947,6716.967429753236,8127.407208372022,-187500.02235174447,-187500.02235174447,-187500.02235174447,-187500.02235174447
$SILENCE,-2171.9413604666424,-12404.033530239289,6660.573978492496,8139.097170722148,-187500.02235174447,-187500.02235174447,-187500.02235174447,-187500.02235174447
$SILENCE,-2223.573890158402,-12415.0305885113,6465.711470331129,8148.70842083793,-187500.02235174447,-187500.02235174447,-187500.02235174447,-187500.02235174447
$SILENCE,-2203.5914306153572,-12421.959629292445,6478.720185604118,8140.907662023028,-187500.02235174447,-187500.02235174447,-187500.02235174447,-187500.02235174447
$SILENCE,-2150.774258467467,-12407.207477951943,6689.161859650834,8127.049580460737,-187500.02235174447,-187500.02235174447,-187500.02235174447,-187500.02235174447
$SILENCE,-2165.9063894637097,-12401.21721043792,6682.210467125234,8132.682220063475,-187500.02235174447,-187500.02235174447,-187500.02235174447,-187500.02235174447
$SILENCE,-2220.221128490106,-12411.387254165085,6492.600618910864,8142.1146562236145,-187500.02235174447,-187500.02235174447,-187500.02235174447,-187500.02235174447
$SILENCE,-2221.5845849018797,-12422.630181626104,6450.668746312707,8139.477150377888,-187500.02235174447,-187500.02235174447,-187500.02235174447,-187500.02235174447
$SILENCE,-2162.888903962243,-12412.214268709931,6662.585635493474,8129.463568861911,-187500.02235174447,-187500.02235174447,-187500.02235174447,-187500.02235174447
$SILENCE,-2170.153220910218,-12400.300788915252,6701.0082842121465,8133.263365419312,-187500.02235174447,-187500.02235174447,-187500.02235174447,-187500.02235174447
$SILENCE,-2221.6963436241563,-12407.922733774512,6527.111712349858,8147.590833615164,-187500.02235174447,-187500.02235174447,-187500.02235174447,-187500.02235174447
não,-2244.5845299463904,-12418.69627460197,6434.933118216171,8149.870711549606,-187500.02235174447,-187500.02235174447,-187500.02235174447,-187500.02235174447
não,-2187.1628984407066,-12409.867335542123,6623.4030274633205,8130.245879917847,-187500.02235174447,-187500.02235174447,-187500.02235174447,-187500.02235174447
não,-2163.6935667626344,-12400.54665810426,6711.42419712832,8123.897984492539,-187500.02235174447,-187500.02235174447,-187500.02235174447,-187500.02235174447
não,-2203.703189337634,-12408.280361685796,6559.454686576687,8139.432446888977,-187500.02235174447,-187500.02235174447,-187500.02235174447,-187500.02235174447
não,-2236.53790194248,-12418.718626346425,6425.74655124504,8147.747295826352,-187500.02235174447,-187500.02235174447,-187500.02235174447,-187500.02235174447
não,-2199.724578824589,-12414.583553622193,6582.454631621198,8137.219624187902,-187500.02235174447,-187500.02235174447,-187500.02235174447,-187500.02235174447
não,-2174.28829363445,-12402.31244591623,6712.653543073362,8127.407208372022,-187500.02235174447,-187500.02235174447,-187500.02235174447,-187500.02235174447
não,-2200.1045584803296,-12406.089890729178,6590.322445669466,8136.906699765528,-187500.02235174447,-187500.02235174447,-187500.02235174447,-187500.02235174447
não,-2241.790561889477,-12417.198707723464,6426.752379745529,8147.479074892888,-187500.02235174447,-187500.02235174447,-187500.02235174447,-187500.02235174447
não,-2217.538919155469,-12416.282286200796,6540.0533723894805,8136.839644532162,-187500.02235174447,-187500.02235174447,-187500.02235174447,-187500.02235174447
não,-2180.3232646373826,-12402.804184294246,6717.28035417561,8134.51506310881,-187500.02235174447,-187500.02235174447,-187500.02235174447,-187500.02235174447
não,-2207.3241719393936,-12402.781832549792,6624.230042008167,8138.918356766505,-187500.02235174447,-187500.02235174447,-187500.02235174447,-187500.02235174447
não,-2224.758532614533,-12417.198707723464,6439.291708384956,8144.349830669145,-187500.02235174447,-187500.02235174447,-187500.02235174447,-187500.02235174447
não,-2199.05402649093,-12421.22202172542,6492.891191588783,8134.738580553363,-187500.02235174447,-187500.02235174447,-187500.02235174447,-187500.02235174447
não,-2156.9209881926763,-12406.64868434056,6691.888772474382,8123.585060070165,-187500.02235174447,-187500.02235174447,-187500.02235174447,-187500.02235174447
não,-2188.258133919017,-12403.40768139454,6649.062830098013,8135.565595098209,-187500.02235174447,-187500.02235174447,-187500.02235174447,-187500.02235174447
não,-2246.797352647466,-12412.527193132306,6457.888359771772,8148.3731446711,-187500.02235174447,-187500.02235174447,-187500.02235174447,-187500.02235174447
não,-2234.7274106416003,-12420.819690325225,6457.888359771772,8143.880444035583,-187500.02235174447,-187500.02235174447,-187500.02235174447,-187500.02235174447
não,-2175.4058808572154,-12410.046149497766,6672.420403053809,8134.55976659772,-187500.02235174447,-187500.02235174447,-187500.02235174447,-187500.02235174447
não,-2189.95686649762,-12401.999521493855,6676.734289733683,8141.019420745304,-187500.02235174447,-187500.02235174447,-187500.02235174447,-187500.02235174447
não,-2242.2599485230385,-12411.54371637627,6493.449985200165,8155.682165107985,-187500.02235174447,-187500.02235174447,-187500.02235174447,-187500.02235174447
não,-2252.139419572284,-12419.635047869093,6434.284917626967,8155.95038604145,-187500.02235174447,-187500.02235174447,-187500.02235174447,-187500.02235174447
não,-2196.5282793674805,-12407.587457607682,6635.0259345800805,8138.694839321953,-187500.02235174447,-187500.02235174447,-187500.02235174447,-187500.02235174447
não,-2191.275619420483,-12399.250256925852,6688.178382894801,8142.539339368265,-187500.02235174447,-187500.02235174447,-187500.02235174447,-187500.02235174447
não,-2239.667146166223,-12407.520402374317,6518.729808179118,8157.80558083124,-187500.02235174447,-187500.02235174447,-187500.02235174447,-187500.02235174447
não,-2258.7108324421447,-12419.322123446718,6413.810719705906,8158.230263975891,-187500.02235174447,-187500.02235174447,-187500.02235174447,-187500.02235174447
não,-2210.2075469741285,-12411.499012887361,6596.469175394675,8142.539339368265,-187500.02235174447,-187500.02235174447,-187500.02235174447,-187500.02235174447
não,-2199.2328404465725,-12399.876105770601,6696.269714387622,8138.940708510961,-187500.02235174447,-187500.02235174447,-187500.02235174447,-187500.02235174447
não,-2243.086963067885,-12405.195820950965,6550.983375428125,8152.351755184145,-187500.02235174447,-187500.02235174447,-187500.02235174447,-187500.02235174447
não,-2273.9994256495747,-12418.31629494623,6416.090597640347,8156.106848252636,-187500.02235174447,-187500.02235174447,-187500.02235174447,-187500.02235174447
não,-2232.983974574086,-12418.405701924052,6545.954232925682,8139.074818977692,-187500.02235174447,-187500.02235174447,-187500.02235174447,-187500.02235174447
não,-2190.962694998109,-12403.698254072458,6701.969409223725,8139.141874211058,-187500.02235174447,-187500.02235174447,-187500.02235174447,-187500.02235174447
não,-2231.3970007177595,-12401.396024393562,6583.482811866143,8153.357583684634,-187500.02235174447,-187500.02235174447,-187500.02235174447,-187500.02235174447
não,-2275.049957638974,-12413.533021632795,6407.663989980697,8159.303147709746,-187500.02235174447,-187500.02235174447,-187500.02235174447,-187500.02235174447
não,-2243.645756679268,-12414.628257111104,6511.689008675696,8145.065086491715,-187500.02235174447,-187500.02235174447,-187500.02235174447,-187500.02235174447
não,-2201.5350701254692,-12401.552486604749,6694.70509227575,8137.264327676813,-187500.02235174447,-187500.02235174447,-187500.02235174447,-187500.02235174447
não,-2234.9956315750637,-12402.31244591623,6614.97641980367,8147.2779091927905,-187500.02235174447,-187500.02235174447,-187500.02235174447,-187500.02235174447
não,-2287.991617678597,-12415.611733867137,6423.354914588323,8153.670508107008,-187500.02235174447,-187500.02235174447,-187500.02235174447,-187500.02235174447
não,-2260.5883789763902,-12417.779853079302,6464.817400552917,8142.315821923712,-187500.02235174447,-187500.02235174447,-187500.02235174447,-187500.02235174447
não,-2204.4184451602036,-12401.552486604749,6676.086089144479,8138.89600502205,-187500.02235174447,-187500.02235174447,-187500.02235174447,-187500.02235174447
não,-2228.8489018498544,-12395.606922579638,6645.821827151994,8150.049525505248,-187500.02235174447,-187500.02235174447,-187500.02235174447,-187500.02235174447
não,-2275.854620439365,-12407.207477951943,6455.60848183733,8159.660775621031,-187500.02235174447,-187500.02235174447,-187500.02235174447,-187500.02235174447
não,-2262.8459051663763,-12415.656437356049,6438.397638606744,8152.642327862064,-187500.02235174447,-187500.02235174447,-187500.02235174447,-187500.02235174447
não,-2213.7838260869776,-12403.854716283646,6648.861664397916,8144.595699858153,-187500.02235174447,-187500.02235174447,-187500.02235174447,-187500.02235174447
não,-2233.542768185469,-12398.132669703087,6660.7974959370495,8149.960118527427,-187500.02235174447,-187500.02235174447,-187500.02235174447,-187500.02235174447
não,-2278.40271930727,-12409.912039031035,6480.843601327372,8160.800714588251,-187500.02235174447,-187500.02235174447,-187500.02235174447,-187500.02235174447
não,-2283.9459519321863,-12417.981018779401,6411.463786538099,8153.938729040472,-187500.02235174447,-187500.02235174447,-187500.02235174447,-187500.02235174447
não,-2229.050067549952,-12405.26287618433,6612.182451746757,8138.3595631551225,-187500.02235174447,-187500.02235174447,-187500.02235174447,-187500.02235174447
não,-2223.0150965470193,-12395.696329557459,6682.881019458892,8145.176845213991,-187500.02235174447,-187500.02235174447,-187500.02235174447,-187500.02235174447
não,-2271.965416904142,-12404.659379084038,6517.902793634271,8158.6102436316305,-187500.02235174447,-187500.02235174447,-187500.02235174447,-187500.02235174447
não,-2294.048940425985,-12418.048074012766,6402.187812589146,8157.380897686589,-187500.02235174447,-187500.02235174447,-187500.02235174447,-187500.02235174447
não,-2243.086963067885,-12410.560239620238,6580.39827113131,8145.288603936268,-187500.02235174447,-187500.02235174447,-187500.02235174447,-187500.02235174447
não,-2226.9713553156084,-12397.819745280713,6691.03940618508,8145.445066147455,-187500.02235174447,-187500.02235174447,-187500.02235174447,-187500.02235174447
não,-2271.7866029484994,-12402.334797660686,6546.468323048154,8156.173903486003,-187500.02235174447,-187500.02235174447,-187500.02235174447,-187500.02235174447
não,-2297.2675916275493,-12411.856640798645,6397.6504084647195,8166.969796057916,-187500.02235174447,-187500.02235174447,-187500.02235174447,-187500.02235174447
não,-2253.413469006237,-12415.589382122682,6532.140854852302,8150.474208649899,-187500.02235174447,-187500.02235174447,-187500.02235174447,-187500.02235174447
não,-2226.2337477485835,-12402.468908127417,6695.3085893760435,8145.556824869732,-187500.02235174447,-187500.02235174447,-187500.02235174447,-187500.02235174447
não,-2259.5154952425355,-12398.847925525657,6594.189297460234,8152.865845306617,-187500.02235174447,-187500.02235174447,-187500.02235174447,-187500.02235174447
não,-2301.2014986516833,-12405.352283162152,6419.152786630725,8165.829857090695,-187500.02235174447,-187500.02235174447,-187500.02235174447,-187500.02235174447
não,-2262.01889062153,-12401.843059282668,6521.076741346925,8170.546075170765,-187500.02235174447,-187500.02235174447,-187500.02235174447,-187500.02235174447
não,-2209.5816981293797,-12371.0200036788,6706.2832959035995,8165.114601268126,-187500.02235174447,-187500.02235174447,-187500.02235174447,-187500.02235174447
não,-2244.5621782019352,-12385.25806489683,6631.203786278223,8156.911511053027,-187500.02235174447,-187500.02235174447,-187500.02235174447,-187500.02235174447
não,-2318.859376771376,-12427.748731106369,6438.598804306842,8152.932900539983,-187500.02235174447,-187500.02235174447,-187500.02235174447,-187500.02235174447
não,-2289.1986118791833,-12415.634085611593,6457.709545816129,8167.908569325039,-187500.02235174447,-187500.02235174447,-187500.02235174447,-187500.02235174447
não,-2226.792541359966,-12381.301806128242,6640.792684649549,8149.580138871687,-187500.02235174447,-187500.02235174447,-187500.02235174447,-187500.02235174447
não,-2291.9702281916416,-12433.359018964651,6600.380730674355,8113.146795409536,-187500.02235174447,-187500.02235174447,-187500.02235174447,-187500.02235174447
não,-2308.5775743219347,-12414.382387922096,6465.845580797861,8174.345871728167,-187500.02235174447,-187500.02235174447,-187500.02235174447,-187500.02235174447
não,-2303.4813765861245,-12413.018931510322,6423.734894244063,8167.126258269103,-187500.02235174447,-187500.02235174447,-187500.02235174447,-187500.02235174447
não,-2227.284279737983,-12372.785791490769,6662.183304093279,8173.2282845054015,-187500.02235174447,-187500.02235174447,-187500.02235174447,-187500.02235174447
não,-2230.324116983905,-12378.664300282515,6726.869252546937,8186.862848623139,-187500.02235174447,-187500.02235174447,-187500.02235174447,-187500.02235174447
não,-2330.1023042323955,-12452.737981407403,6471.7911448229725,8135.1856154424695,-187500.02235174447,-187500.02235174447,-187500.02235174447,-187500.02235174447
não,-2348.9671765526746,-12464.763219924358,6365.977986571549,8113.9961616988385,-187500.02235174447,-187500.02235174447,-187500.02235174447,-187500.02235174447
não,-2261.9965388770747,-12446.278327259819,6597.854983550905,8142.785208557273,-187500.02235174447,-187500.02235174447,-187500.02235174447,-187500.02235174447
não,-2279.7214722301333,-12454.727286663925,6619.714989628195,8129.776493284285,-187500.02235174447,-187500.02235174447,-187500.02235174447,-187500.02235174447
não,-2328.112998975873,-12438.768141122835,6465.085621486381,8151.412981917022,-187500.02235174447,-187500.02235174447,-187500.02235174447,-187500.02235174447
não,-2315.5066151030796,-12390.398966121551,6398.455071265111,8188.963912601938,-187500.02235174447,-187500.02235174447,-187500.02235174447,-187500.02235174447
não,-2282.6048472648677,-12411.40960590954,6652.549702233041,8164.7122698679295,-187500.02235174447,-187500.02235174447,-187500.02235174447,-187500.02235174447
não,-2238.2813380099938,-12405.128765717598,6838.806788779115,8176.916322340528,-187500.02235174447,-187500.02235174447,-187500.02235174447,-187500.02235174447
não,-2296.440577082703,-12425.93823980549,6585.2485996781115,8157.559711642231,-187500.02235174447,-187500.02235174447,-187500.02235174447,-187500.02235174447
não,-2364.121659293373,-12455.174321553031,6387.748585671018,8116.857184989118,-187500.02235174447,-187500.02235174447,-187500.02235174447,-187500.02235174447
não,-2272.5242105155244,-12385.347471874651,6513.700665676673,8166.679223379997,-187500.02235174447,-187500.02235174447,-187500.02235174447,-187500.02235174447
não,-2384.1264705808726,-12514.80877575979,6543.093209635403,8001.67864581092,-187500.02235174447,-187500.02235174447,-187500.02235174447,-187500.02235174447
não,-2363.920493593275,-12506.404519844595,6509.09620631888,8084.134231106548,-187500.02235174447,-187500.02235174447,-187500.02235174447,-187500.02235174447
não,-2359.4724964466686,-12487.025557401843,6296.397006082178,8149.848359805151,-187500.02235174447,-187500.02235174447,-187500.02235174447,-187500.02235174447
não,-2303.3472661193928,-12455.062562830755,6371.565922685376,8123.495653092344,-187500.02235174447,-187500.02235174447,-187500.02235174447,-187500.02235174447
não,-2200.350427669338,-12380.944178216956,6713.547612851574,8156.933862797483,-187500.02235174447,-187500.02235174447,-187500.02235174447,-187500.02235174447
não,-2270.691367470189,-12434.297792231775,6607.756806344606,8124.65794380402,-187500.02235174447,-187500.02235174447,-187500.02235174447,-187500.02235174447
não,-2371.2518657746155,-12516.306342638296,6370.694204651619,8070.83494315564,-187500.02235174447,-187500.02235174447,-187500.02235174447,-187500.02235174447
não,-2330.0352489990296,-12481.862304432667,6393.02359736247,8121.059312946715,-187500.02235174447,-187500.02235174447,-187500.02235174447,-187500.02235174447
não,-2286.5164025445465,-12452.760333151859,6583.214590932678,8145.132141725081,-187500.02235174447,-187500.02235174447,-187500.02235174447,-187500.02235174447
não,-2281.442556553192,-12412.25897219884,6586.008558989592,8171.373089715611,-187500.02235174447,-187500.02235174447,-187500.02235174447,-187500.02235174447
não,-2328.470626887158,-12429.492167173883,6425.925365200683,8169.2943774812675,-187500.02235174447,-187500.02235174447,-187500.02235174447,-187500.02235174447
não,-2302.9672864636527,-12428.061655528743,6448.165350933713,8184.560618944242,-187500.02235174447,-187500.02235174447,-187500.02235174447,-187500.02235174447
não,-2227.396038460259,-12402.670073827514,6643.251376539633,8192.160212059047,-187500.02235174447,-187500.02235174447,-187500.02235174447,-187500.02235174447
não,-2242.8634456233317,-12403.921771517013,6674.409708310332,8179.218552019424,-187500.02235174447,-187500.02235174447,-187500.02235174447,-187500.02235174447
não,-2253.4581724951477,-12386.241541652864,6553.509122551575,8228.928831688027,-187500.02235174447,-187500.02235174447,-187500.02235174447,-187500.02235174447
não,-2238.7283728991,-12368.382497833074,6475.054499513448,8245.133846418124,-187500.02235174447,-187500.02235174447,-187500.02235174447,-187500.02235174447
não,-2194.404863644226,-12371.601149034637,6656.148333090346,8225.419607808544,-187500.02235174447,-187500.02235174447,-187500.02235174447,-187500.02235174447
não,-2179.563305325902,-12367.376669332585,6750.204473758277,8233.667401512552,-187500.02235174447,-187500.02235174447,-187500.02235174447,-187500.02235174447
não,-2204.4855003935695,-12355.284375582263,6611.422492435276,8278.661463101085,-187500.02235174447,-187500.02235174447,-187500.02235174447,-187500.02235174447
não,-2210.5651748854134,-12347.058933622711,6506.056369072959,8308.389283226643,-187500.02235174447,-187500.02235174447,-187500.02235174447,-187500.02235174447
não,-2181.083223948863,-12355.172616859987,6645.397144007343,8277.58857936723,-187500.02235174447,-187500.02235174447,-187500.02235174447,-187500.02235174447
não,-2129.651859957202,-12321.220317032376,6809.123672142467,8287.535105649842,-187500.02235174447,-187500.02235174447,-187500.02235174447,-187500.02235174447
não,-2162.799496984422,-12327.255288035309,6690.413557340331,8298.68862613304,-187500.02235174447,-187500.02235174447,-187500.02235174447,-187500.02235174447
não,-2186.000607729031,-12333.223203804875,6538.712267722162,8319.520451965387,-187500.02235174447,-187500.02235174447,-187500.02235174447,-187500.02235174447
não,-2135.6197757267687,-12323.947229855923,6662.2056558377335,8317.620553686686,-187500.02235174447,-187500.02235174447,-187500.02235174447,-187500.02235174447
não,-2099.097025286797,-12302.62366564556,6831.587175320051,8318.916954865093,-187500.02235174447,-187500.02235174447,-187500.02235174447,-187500.02235174447
não,-2126.187339566629,-12298.086261521134,6747.276395234632,8339.122931852691,-187500.02235174447,-187500.02235174447,-187500.02235174447,-187500.02235174447
não,-2157.0998021483188,-12304.970598813368,6579.817125775472,8355.774981471895,-187500.02235174447,-187500.02235174447,-187500.02235174447,-187500.02235174447
não,-2125.51678723297,-12311.206735516398,6636.367039247399,8344.599109244242,-187500.02235174447,-187500.02235174447,-187500.02235174447,-187500.02235174447
não,-2079.7627663329563,-12294.130002752543,6837.331573645065,8340.642850475651,-187500.02235174447,-187500.02235174447,-187500.02235174447,-187500.02235174447
não,-2102.7180078885567,-12283.579979369639,6793.075119623557,8350.79054245836,-187500.02235174447,-187500.02235174447,-187500.02235174447,-187500.02235174447
não,-2154.864627702788,-12291.961883540378,6608.2038412337115,8361.072344907803,-187500.02235174447,-187500.02235174447,-187500.02235174447,-187500.02235174447
não,-2136.7150112050786,-12298.91327606598,6613.3670942028875,8357.943100684059,-187500.02235174447,-187500.02235174447,-187500.02235174447,-187500.02235174447
não,-2077.1699639761405,-12280.026052001245,6827.653268295917,8358.74776348445,-187500.02235174447,-187500.02235174447,-187500.02235174447,-187500.02235174447
não,-2089.262257726462,-12261.71997329235,6838.046829467635,8375.690385781572,-187500.02235174447,-187500.02235174447,-187500.02235174447,-187500.02235174447
não,-2150.9530724231095,-12278.863761289569,6645.687716685262,8377.970263716015,-187500.02235174447,-187500.02235174447,-187500.02235174447,-187500.02235174447
não,-2154.149371880218,-12291.224275973354,6586.679111323251,8373.879894480693,-187500.02235174447,-187500.02235174447,-187500.02235174447,-187500.02235174447
não,-2092.547964161392,-12285.122249737055,6793.768023701671,8351.729315725484,-187500.02235174447,-187500.02235174447,-187500.02235174447,-187500.02235174447
não,-2082.2438099674955,-12272.828790286636,6859.236283211266,8356.356126827732,-187500.02235174447,-187500.02235174447,-187500.02235174447,-187500.02235174447
não,-2127.5507959784027,-12274.281653676231,6684.646807270862,8368.403717089142,-187500.02235174447,-187500.02235174447,-187500.02235174447,-187500.02235174447
não,-2142.6158717412795,-12283.33411018063,6581.091175209424,8368.068440922314,-187500.02235174447,-187500.02235174447,-187500.02235174447,-187500.02235174447
não,-2095.744263618501,-12278.23791244482,6763.839037876015,8338.206510330023,-187500.02235174447,-187500.02235174447,-187500.02235174447,-187500.02235174447
não,-2071.425565651127,-12257.495493590295,6881.163344521921,8369.409545589631,-187500.02235174447,-187500.02235174447,-187500.02235174447,-187500.02235174447
não,-2108.3729992357494,-12258.881301746524,6738.268642219144,8383.312330640832,-187500.02235174447,-187500.02235174447,-187500.02235174447,-187500.02235174447
não,-2138.503150761503,-12276.62858684404,6600.559544629997,8357.540769283863,-187500.02235174447,-187500.02235174447,-187500.02235174447,-187500.02235174447
não,-2093.0173507949535,-12280.875418290547,6741.911976565359,8349.449437791043,-187500.02235174447,-187500.02235174447,-187500.02235174447,-187500.02235174447
não,-2067.9386935160987,-12246.90076671848,6881.051585799645,8364.425106576098,-187500.02235174447,-187500.02235174447,-187500.02235174447,-187500.02235174447
não,-2112.8209963823556,-12250.09706617559,6767.616482688962,8356.825513461294,-187500.02235174447,-187500.02235174447,-187500.02235174447,-187500.02235174447
não,-2154.9763864250644,-12258.434266857419,6608.315599955989,8354.478580293488,-187500.02235174447,-187500.02235174447,-187500.02235174447,-187500.02235174447
não,-2119.928851119143,-12263.865740760059,6702.192926668278,8356.065554149813,-187500.02235174447,-187500.02235174447,-187500.02235174447,-187500.02235174447
não,-2074.4877546415037,-12229.779330465715,6890.238152770777,8360.155923385135,-187500.02235174447,-187500.02235174447,-187500.02235174447,-187500.02235174447
não,-2103.6567811556797,-12227.320638575631,6821.886518226447,8369.923635712104,-187500.02235174447,-187500.02235174447,-187500.02235174447,-187500.02235174447
não,-2150.260168344995,-12243.100970161078,6631.2708415115885,8377.23265614899,-187500.02235174447,-187500.02235174447,-187500.02235174447,-187500.02235174447
não,-2128.2437000565174,-12249.247699886288,6668.620606496407,8368.291958366866,-187500.02235174447,-187500.02235174447,-187500.02235174447,-187500.02235174447
não,-2082.9367140456097,-12231.790987466693,6875.5754084080945,8346.834283689772,-187500.02235174447,-187500.02235174447,-187500.02235174447,-187500.02235174447
não,-2097.577106663836,-12229.332295576609,6843.254785925721,8350.924652925092,-187500.02235174447,-187500.02235174447,-187500.02235174447,-187500.02235174447
não,-2139.6430897287237,-12257.51784533475,6678.097746145457,8362.636967019675,-187500.02235174447,-187500.02235174447,-187500.02235174447,-187500.02235174447
não,-2136.960880394087,-12270.370098396552,6685.295007860066,8348.55536801283,-187500.02235174447,-187500.02235174447,-187500.02235174447,-187500.02235174447
não,-2099.119377031252,-12236.775426480226,6840.617280079995,8343.235652832467,-187500.02235174447,-187500.02235174447,-187500.02235174447,-187500.02235174447
não,-2114.385618494227,-12227.946487420379,6825.35103861702,8343.034487132369,-187500.02235174447,-187500.02235174447,-187500.02235174447,-187500.02235174447
não,-2162.4642208175924,-12238.340048592097,6643.653707939829,8364.626272276197,-187500.02235174447,-187500.02235174447,-187500.02235174447,-187500.02235174447
não,-2170.957883710609,-12253.606290055071,6584.578047344452,8345.873158678194,-187500.02235174447,-187500.02235174447,-187500.02235174447,-187500.02235174447
não,-2119.6606301856796,-12250.499397575784,6783.285055552132,8328.058818347314,-187500.02235174447,-187500.02235174447,-187500.02235174447,-187500.02235174447
não,-2118.8783191297434,-12247.727781263326,6843.947690003835,8341.693382465051,-187500.02235174447,-187500.02235174447,-187500.02235174447,-187500.02235174447
não,-2171.2931598774385,-12249.582976053116,6676.711937989228,8340.307574308823,-187500.02235174447,-187500.02235174447,-187500.02235174447,-187500.02235174447
não,-2196.707093323123,-12260.915310491957,6556.303090608489,8330.115178837203,-187500.02235174447,-187500.02235174447,-187500.02235174447,-187500.02235174447
não,-2148.606139255302,-12258.680136046427,6729.484406648208,8322.69439967804,-187500.02235174447,-187500.02235174447,-187500.02235174447,-187500.02235174447
não,-2130.1435983352185,-12260.71414479186,6839.611451579506,8325.60012645723,-187500.02235174447,-187500.02235174447,-187500.02235174447,-187500.02235174447
não,-2168.543895309436,-12261.876435503536,6701.589429567985,8336.016039373402,-187500.02235174447,-187500.02235174447,-187500.02235174447,-187500.02235174447
não,-2203.636134104268,-12267.732592550827,6552.637404517818,8339.435856275066,-187500.02235174447,-187500.02235174447,-187500.02235174447,-187500.02235174447
não,-2159.1561626382068,-12273.231121686831,6692.246400385667,8317.955829853516,-187500.02235174447,-187500.02235174447,-187500.02235174447,-187500.02235174447
não,-2133.5187117479695,-12266.637357072515,6838.560919590106,8304.053044802315,-187500.02235174447,-187500.02235174447,-187500.02235174447,-187500.02235174447
não,-2176.3670058687935,-12267.464371617363,6728.0091915141575,8315.78771064135,-187500.02235174447,-187500.02235174447,-187500.02235174447,-187500.02235174447
não,-2220.3999424457484,-12277.790877555713,6553.598529529397,8317.329981008766,-187500.02235174447,-187500.02235174447,-187500.02235174447,-187500.02235174447
não,-2188.9733897415867,-12286.9997962713,6633.17073979029,8316.614725186197,-187500.02235174447,-187500.02235174447,-187500.02235174447,-187500.02235174447
não,-2143.666403730679,-12274.840447287614,6818.600811791517,8302.421367457076,-187500.02235174447,-187500.02235174447,-187500.02235174447,-187500.02235174447
não,-2178.602180314324,-12276.315662421664,6745.845883589493,8302.935457579548,-187500.02235174447,-187500.02235174447,-187500.02235174447,-187500.02235174447
não,-2228.9383088276754,-12291.872476562557,6556.861884219871,8306.087053547746,-187500.02235174447,-187500.02235174447,-187500.02235174447,-187500.02235174447
não,-2210.051084762941,-12292.878305063046,6583.3039979105,8301.817870356783,-187500.02235174447,-187500.02235174447,-187500.02235174447,-187500.02235174447
não,-2165.146430152229,-12285.23400845933,6784.603808474995,8289.390300439632,-187500.02235174447,-187500.02235174447,-187500.02235174447,-187500.02235174447
não,-2193.4660903771032,-12285.9492642819,6754.294842993599,8297.951018566015,-187500.02235174447,-187500.02235174447,-187500.02235174447,-187500.02235174447
não,-2263.0023673775636,-12305.954075569402,6548.077648648936,8293.16774525258,-187500.02235174447,-187500.02235174447,-187500.02235174447,-187500.02235174447
não,-2260.186047576195,-12315.520622196273,6519.892098890794,8279.533181134842,-187500.02235174447,-187500.02235174447,-187500.02235174447,-187500.02235174447
não,-2165.794630741433,-12285.122249737055,6767.638834433417,8287.825678327761,-187500.02235174447,-187500.02235174447,-187500.02235174447,-187500.02235174447
não,-2164.4982295630252,-12278.886113034025,6794.505631268697,8279.801402068306,-187500.02235174447,-187500.02235174447,-187500.02235174447,-187500.02235174447
não,-2222.9033378247427,-12296.231066731343,6606.192184232734,8290.194963240023,-187500.02235174447,-187500.02235174447,-187500.02235174447,-187500.02235174447
não,-2240.2259397776056,-12310.916162838479,6522.753122181073,8285.54580039332,-187500.02235174447,-187500.02235174447,-187500.02235174447,-187500.02235174447
não,-2189.6215903307907,-12301.751947611803,6716.743912308683,8272.626492098152,-187500.02235174447,-187500.02235174447,-187500.02235174447,-187500.02235174447
não,-2185.2630001620055,-12290.531371895238,6788.627122476951,8276.023957255358,-187500.02235174447,-187500.02235174447,-187500.02235174447,-187500.02235174447
não,-2243.891625868276,-12299.405014443995,6620.474948939675,8284.428213170555,-187500.02235174447,-187500.02235174447,-187500.02235174447,-187500.02235174447
não,-2265.5951697343794,-12312.279619250254,6496.065139301436,8290.35142545121,-187500.02235174447,-187500.02235174447,-187500.02235174447,-187500.02235174447
não,-2207.502985895036,-12308.81509885968,6662.920911660303,8269.854875785693,-187500.02235174447,-187500.02235174447,-187500.02235174447,-187500.02235174447
não,-2181.217334415595,-12291.939531795924,6790.638779477928,8273.766431065373,-187500.02235174447,-187500.02235174447,-187500.02235174447,-187500.02235174447
não,-2225.093808781363,-12297.438060931929,6657.176513335289,8289.122079506169,-187500.02235174447,-187500.02235174447,-187500.02235174447,-187500.02235174447
não,-2259.023756864519,-12312.972523328368,6502.055406815459,8295.537030164842,-187500.02235174447,-187500.02235174447,-187500.02235174447,-187500.02235174447
não,-2217.6506778777457,-12316.213526274387,6620.899632084326,8271.665367086574,-187500.02235174447,-187500.02235174447,-187500.02235174447,-187500.02235174447
não,-2189.1075002083185,-12302.690720878927,6782.145116584911,8261.54002684832,-187500.02235174447,-187500.02235174447,-187500.02235174447,-187500.02235174447
não,-2228.826550105399,-12301.640188889527,6684.244475870666,8267.77616355135,-187500.02235174447,-187500.02235174447,-187500.02235174447,-187500.02235174447
não,-2272.859486682354,-12316.459395463395,6503.1282905493135,8279.220256712468,-187500.02235174447,-187500.02235174447,-187500.02235174447,-187500.02235174447
não,-2244.271605524016,-12322.539069955239,6571.502276838098,8273.364099665177,-187500.02235174447,-187500.02235174447,-187500.02235174447,-187500.02235174447
não,-2195.7459683115444,-12309.597409915616,6766.118915810456,8272.984120009438,-187500.02235174447,-187500.02235174447,-187500.02235174447,-187500.02235174447
não,-2216.354276699338,-12307.026959303255,6710.530127350107,8273.677024087552,-187500.02235174447,-187500.02235174447,-187500.02235174447,-187500.02235174447
não,-2262.4882772550914,-12316.0570640632,6522.440197758699,8283.444736414522,-187500.02235174447,-187500.02235174447,-187500.02235174447,-187500.02235174447
não,-2252.407640505748,-12325.62361069007,6532.543186252497,8268.379660651644,-187500.02235174447,-187500.02235174447,-187500.02235174447,-187500.02235174447
não,-2203.278506192983,-12313.017226817277,6742.359011454465,8255.281538400834,-187500.02235174447,-187500.02235174447,-187500.02235174447,-187500.02235174447
não,-2218.544747655958,-12308.43511920394,6737.195758485289,8270.927759519549,-187500.02235174447,-187500.02235174447,-187500.02235174447,-187500.02235174447
não,-2271.5630855039462,-12318.225183275365,6542.467360790653,8277.052137500303,-187500.02235174447,-187500.02235174447,-187500.02235174447,-187500.02235174447
não,-2276.7039867286667,-12329.021075847279,6491.706549132651,8264.624567583152,-187500.02235174447,-187500.02235174447,-187500.02235174447,-187500.02235174447
não,-2216.957773799631,-12319.409825731496,6703.466976102231,8250.185340665024,-187500.02235174447,-187500.02235174447,-187500.02235174447,-187500.02235174447
não,-2211.0122097745193,-12310.647941905016,6752.998441815191,8262.344689648711,-187500.02235174447,-187500.02235174447,-187500.02235174447,-187500.02235174447
não,-2255.246312051572,-12318.940439097934,6582.834611276939,8279.041442756825,-187500.02235174447,-187500.02235174447,-187500.02235174447,-187500.02235174447
não,-2272.635969237801,-12330.116311325588,6484.106956017847,8278.214428211979,-187500.02235174447,-187500.02235174447,-187500.02235174447,-187500.02235174447
não,-2222.2998407244495,-12324.617782189582,6669.045289641058,8258.276672157845,-187500.02235174447,-187500.02235174447,-187500.02235174447,-187500.02235174447
não,-2215.1472824987513,-12319.320418753674,6755.1218575384455,8247.950166219493,-187500.02235174447,-187500.02235174447,-187500.02235174447,-187500.02235174447
não,-2263.5835127334017,-12331.993857859834,6600.02310276307,8266.993852495414,-187500.02235174447,-187500.02235174447,-187500.02235174447,-187500.02235174447
não,-2272.7477279600776,-12339.593450974638,6475.993272780571,8272.44767814251,-187500.02235174447,-187500.02235174447,-187500.02235174447,-187500.02235174447
não,-2227.44074194917,-12322.047331577221,6630.063847311002,8241.266994627356,-187500.02235174447,-187500.02235174447,-187500.02235174447,-187500.02235174447
não,-2204.932535282676,-12308.166898270476,6761.760325641671,8235.835520724717,-187500.02235174447,-187500.02235174447,-187500.02235174447,-187500.02235174447
não,-2242.5505212009575,-12317.375816986063,6641.7761614055835,8252.286404643823,-187500.02235174447,-187500.02235174447,-187500.02235174447,-187500.02235174447
$SILENCE,-2278.0227396515297,-12335.793654417235,6477.826115825906,8268.379660651644,-187500.02235174447,-187500.02235174447,-187500.02235174447,-187500.02235174447
$SILENCE,-2238.8401316213767,-12334.229032305364,6582.767556043573,8256.82380876825,-187500.02235174447,-187500.02235174447,-187500.02235174447,-187500.02235174447
$SILENCE,-2209.6934568516563,-12316.593505930126,6744.951813811281,8240.663497527063,-187500.02235174447,-187500.02235174447,-187500.02235174447,-187500.02235174447
$SILENCE,-2236.7167158981224,-12318.046369319722,6668.039461140569,8248.73247727543,-187500.02235174447,-187500.02235174447,-187500.02235174447,-187500.02235174447
$SILENCE,-2270.6243122368232,-12333.804349160713,6493.80761311145,8251.10176218769,-187500.02235174447,-187500.02235174447,-187500.02235174447,-187500.02235174447
$SILENCE,-2231.575814673402,-12337.514738740294,6560.706384266185,8255.549759334297,-187500.02235174447,-187500.02235174447,-187500.02235174447,-187500.02235174447
$SILENCE,-2189.3980728862375,-12324.304857767209,6756.798238372593,8250.67707904304,-187500.02235174447,-187500.02235174447,-187500.02235174447,-187500.02235174447
$SILENCE,-2220.3328872123825,-12323.924878111467,6704.316342391532,8241.222291138445,-187500.02235174447,-187500.02235174447,-187500.02235174447,-187500.02235174447
$SILENCE,-2271.8536581818653,-12339.593450974638,6511.264325531045,8238.093046914702,-187500.02235174447,-187500.02235174447,-187500.02235174447,-187500.02235174447
$SILENCE,-2266.4892395125917,-12334.541956727739,6496.176898023713,8225.285497341813,-187500.02235174447,-187500.02235174447,-187500.02235174447,-187500.02235174447
$SILENCE,-2195.3659886558044,-12323.746064155826,6720.52135712163,8227.945354931993,-187500.02235174447,-187500.02235174447,-187500.02235174447,-187500.02235174447
$SILENCE,-2190.67212232019,-12325.131872312055,6739.810912586559,8245.58088130723,-187500.02235174447,-187500.02235174447,-187500.02235174447,-187500.02235174447
$SILENCE,-2243.1987217901615,-12337.045352106734,6546.714192237162,8246.474951085444,-187500.02235174447,-187500.02235174447,-187500.02235174447,-187500.02235174447
$SILENCE,-2247.8478846368653,-12351.573986002682,6487.57147640842,8245.737343518418,-187500.02235174447,-187500.02235174447,-187500.02235174447,-187500.02235174447
$SILENCE,-2194.606029344324,-12343.214433576399,6691.844068985471,8228.325334587733,-187500.02235174447,-187500.02235174447,-187500.02235174447,-187500.02235174447
$SILENCE,-2189.934514753165,-12324.662485678493,6744.214206244255,8228.906479943571,-187500.02235174447,-187500.02235174447,-187500.02235174447,-187500.02235174447
$SILENCE,-2235.733239142089,-12331.658581693004,6571.390518115821,8237.2436806254,-187500.02235174447,-187500.02235174447,-187500.02235174447,-187500.02235174447
$SILENCE,-2248.607843948346,-12351.238709835854,6470.897075044761,8228.325334587733,-187500.02235174447,-187500.02235174447,-187500.02235174447,-187500.02235174447
$SILENCE,-2188.9733897415867,-12342.946212642933,6665.871341928404,8221.686866484508,-187500.02235174447,-187500.02235174447,-187500.02235174447,-187500.02235174447
$SILENCE,-2176.2328954020613,-12327.858785135602,6760.307462252076,8229.15234913258,-187500.02235174447,-187500.02235174447,-187500.02235174447,-187500.02235174447
$SILENCE,-2230.3911722172707,-12338.878195152069,6599.754881829605,8232.683924756519,-187500.02235174447,-187500.02235174447,-187500.02235174447,-187500.02235174447
$SILENCE,-2258.599073719868,-12353.339773814652,6458.402449894244,8228.839424710206,-187500.02235174447,-187500.02235174447,-187500.02235174447,-187500.02235174447
$SILENCE,-2182.9384187386536,-12344.287317310253,6629.750922888627,8227.140692131603,-187500.02235174447,-187500.02235174447,-187500.02235174447,-187500.02235174447
$SILENCE,-2152.0706596458745,-12332.373837515574,6784.223828819255,8226.984229920416,-187500.02235174447,-187500.02235174447,-187500.02235174447,-187500.02235174447
$SILENCE,-2215.3931516877597,-12333.558479971705,6647.632318452874,8233.555642790276,-187500.02235174447,-187500.02235174447,-187500.02235174447,-187500.02235174447
$SILENCE,-2252.5193992280247,-12349.651735979527,6470.897075044761,8246.765523763363,-187500.02235174447,-187500.02235174447,-187500.02235174447,-187500.02235174447
$SILENCE,-2207.0783027503853,-12347.595375489638,6576.9784542296475,8235.902575958084,-187500.02235174447,-187500.02235174447,-187500.02235174447,-187500.02235174447
$SILENCE,-2167.538066808947,-12337.760607929304,6759.748668640694,8218.468215282943,-187500.02235174447,-187500.02235174447,-187500.02235174447,-187500.02235174447
$SILENCE,-2195.43304388917,-12335.771302672782,6681.450507813753,8233.399180579088,-187500.02235174447,-187500.02235174447,-187500.02235174447,-187500.02235174447
$SILENCE,-2229.9441373281643,-12345.181387088465,6499.417900969733,8232.773331734339,-187500.02235174447,-187500.02235174447,-187500.02235174447,-187500.02235174447
$SILENCE,-2201.4680148921034,-12357.966584916901,6546.065991647958,8224.167910119046,-187500.02235174447,-187500.02235174447,-187500.02235174447,-187500.02235174447
$SILENCE,-2157.412726570693,-12354.077381381678,6751.433819703319,8212.455596024465,-187500.02235174447,-187500.02235174447,-187500.02235174447,-187500.02235174447
$SILENCE,-2179.6303605592684,-12347.081285367167,6716.721560564228,8215.42837803702,-187500.02235174447,-187500.02235174447,-187500.02235174447,-187500.02235174447
$SILENCE,-2224.15503551424,-12353.451532536928,6524.653020459774,8223.273840340835,-187500.02235174447,-187500.02235174447,-187500.02235174447,-187500.02235174447
$SILENCE,-2210.3640091853154,-12352.848035436635,6515.600563955375,8217.507090271365,-187500.02235174447,-187500.02235174447,-187500.02235174447,-187500.02235174447
$SILENCE,-2153.054136401908,-12349.428218534973,6735.541729395596,8204.744244187385,-187500.02235174447,-187500.02235174447,-187500.02235174447,-187500.02235174447
$SILENCE,-2160.4972673055254,-12348.556500501216,6754.697174393795,8215.853061181673,-187500.02235174447,-187500.02235174447,-187500.02235174447,-187500.02235174447
$SILENCE,-2202.026808503486,-12363.465114052906,6571.144648926813,8226.783064220317,-187500.02235174447,-187500.02235174447,-187500.02235174447,-187500.02235174447
$SILENCE,-2199.2998956799383,-12375.982090947879,6499.909639347749,8228.571203776743,-187500.02235174447,-187500.02235174447,-187500.02235174447,-187500.02235174447
$SILENCE,-2160.765488238989,-12358.190102361454,6693.296932375066,8206.62179072163,-187500.02235174447,-187500.02235174447,-187500.02235174447,-187500.02235174447
$SILENCE,-2157.5468370374247,-12343.72852369887,6762.788505886616,8202.844345908683,-187500.02235174447,-187500.02235174447,-187500.02235174447,-187500.02235174447
$SILENCE,-2190.1133287088073,-12356.78194246077,6598.033797506547,8213.90845941406,-187500.02235174447,-187500.02235174447,-187500.02235174447,-187500.02235174447
$SILENCE,-2196.774148556489,-12372.048183923744,6486.923275819216,8208.722854700429,-187500.02235174447,-187500.02235174447,-187500.02235174447,-187500.02235174447
$SILENCE,-2144.4934182755255,-12369.813009478214,6669.067641385513,8190.416775991533,-187500.02235174447,-187500.02235174447,-187500.02235174447,-187500.02235174447
$SILENCE,-2125.7850081664337,-12350.411695291006,6784.156773585889,8198.508107484355,-187500.02235174447,-187500.02235174447,-187500.02235174447,-187500.02235174447
$SILENCE,-2160.2066946276063,-12352.401000547528,6652.527350488585,8216.009523392859,-187500.02235174447,-187500.02235174447,-187500.02235174447,-187500.02235174447
$SILENCE,-2196.818852045399,-12366.795523976747,6495.372235223322,8219.608154250163,-187500.02235174447,-187500.02235174447,-187500.02235174447,-187500.02235174447
$SILENCE,-2146.192150854129,-12370.572968789695,6631.40495197832,8204.408968020554,-187500.02235174447,-187500.02235174447,-187500.02235174447,-187500.02235174447
$SILENCE,-2104.8861271007213,-12360.805256462725,6792.0469393786125,8202.732587186407,-187500.02235174447,-187500.02235174447,-187500.02235174447,-187500.02235174447
$SILENCE,-2149.3660985667825,-12363.77803847528,6685.384414837888,8215.026046636825,-187500.02235174447,-187500.02235174447,-187500.02235174447,-187500.02235174447
$SILENCE,-2194.2931049219496,-12380.720660772404,6499.99904632557,8214.109625114159,-187500.02235174447,-187500.02235174447,-187500.02235174447,-187500.02235174447
$SILENCE,-2162.7771452399666,-12374.171599646997,6584.980378744648,8194.015406848837,-187500.02235174447,-187500.02235174447,-187500.02235174447,-187500.02235174447
$SILENCE,-2116.6878481731237,-12359.575910517682,6781.094584595512,8189.209781790946,-187500.02235174447,-187500.02235174447,-187500.02235174447,-187500.02235174447
$SILENCE,-2145.253377587006,-12369.164808889009,6709.390188382887,8201.39148251909,-187500.02235174447,-187500.02235174447,-187500.02235174447,-187500.02235174447
$SILENCE,-2182.469032105092,-12376.585588048172,6522.7978256699835,8221.619811251141,-187500.02235174447,-187500.02235174447,-187500.02235174447,-187500.02235174447
$SILENCE,-2154.417592813682,-12381.502971828339,6561.15341915529,8208.76755818934,-187500.02235174447,-187500.02235174447,-187500.02235174447,-187500.02235174447
$SILENCE,-2100.1922607651068,-12363.487465797361,6773.763212414171,8198.351645273167,-187500.02235174447,-187500.02235174447,-187500.02235174447,-187500.02235174447
$SILENCE,-2123.9074616321877,-12356.983108160866,6752.52905518163,8200.3856540186,-187500.02235174447,-187500.02235174447,-187500.02235174447,-187500.02235174447
$SILENCE,-2177.95397972512,-12374.216303135909,6556.995994686604,8212.612058235653,-187500.02235174447,-187500.02235174447,-187500.02235174447,-187500.02235174447
$SILENCE,-2177.1716686691843,-12386.934445730978,6524.809482670961,8213.595534991686,-187500.02235174447,-187500.02235174447,-187500.02235174447,-187500.02235174447
$SILENCE,-2126.9025953891987,-12366.817875721203,6734.647659617384,8203.693712197984,-187500.02235174447,-187500.02235174447,-187500.02235174447,-187500.02235174447
$SILENCE,-2125.7179529330674,-12349.428218534973,6766.297729766099,8204.00663662036,-187500.02235174447,-187500.02235174447,-187500.02235174447,-187500.02235174447
$SILENCE,-2162.1065929063075,-12368.82953272218,6583.214590932678,8212.947334402483,-187500.02235174447,-187500.02235174447,-187500.02235174447,-187500.02235174447
$SILENCE,-2172.7907267559444,-12381.994710206356,6502.636552171297,8205.370093032134,-187500.02235174447,-187500.02235174447,-187500.02235174447,-187500.02235174447
$SILENCE,-2121.0464383419085,-12377.680823526482,6700.695359789773,8178.615054919131,-187500.02235174447,-187500.02235174447,-187500.02235174447,-187500.02235174447
$SILENCE,-2109.89291785871,-12370.170637389498,6783.061538107579,8183.621845677119,-187500.02235174447,-187500.02235174447,-187500.02235174447,-187500.02235174447
$SILENCE,-2159.670252760679,-12372.182294390475,6617.479815182664,8198.888087140094,-187500.02235174447,-187500.02235174447,-187500.02235174447,-187500.02235174447
$SILENCE,-2182.67019780519,-12386.06272769722,6488.778470609006,8207.761729688851,-187500.02235174447,-187500.02235174447,-187500.02235174447,-187500.02235174447
$SILENCE,-2133.4516565146037,-12383.0228904513,6651.253301054633,8188.360415501645,-187500.02235174447,-187500.02235174447,-187500.02235174447,-187500.02235174447
$SILENCE,-2114.117397560763,-12363.934500686468,6783.463869507775,8179.084441552693,-187500.02235174447,-187500.02235174447,-187500.02235174447,-187500.02235174447
$SILENCE,-2145.968633409576,-12362.772209974792,6664.038498883069,8192.786060903796,-187500.02235174447,-187500.02235174447,-187500.02235174447,-187500.02235174447
$SILENCE,-2177.9986832140307,-12383.73814627387,6507.464528973643,8197.792851661785,-187500.02235174447,-187500.02235174447,-187500.02235174447,-187500.02235174447
$SILENCE,-2132.4905315030255,-12384.587512563172,6627.694562398739,8183.398328232566,-187500.02235174447,-187500.02235174447,-187500.02235174447,-187500.02235174447
$SILENCE,-2093.50908917297,-12373.009308935323,6791.331683556043,8181.409022976044,-187500.02235174447,-187500.02235174447,-187500.02235174447,-187500.02235174447
$SILENCE,-2136.737362949534,-12375.69151826996,6688.938342206281,8190.014444591337,-187500.02235174447,-187500.02235174447,-187500.02235174447,-187500.02235174447
$SILENCE,-2184.9500757396313,-12381.145343917055,6493.606447411353,8193.300151026267,-187500.02235174447,-187500.02235174447,-187500.02235174447,-187500.02235174447
$SILENCE,-2153.3894125687375,-12379.468963082905,6565.243788390611,8176.066956051226,-187500.02235174447,-187500.02235174447,-187500.02235174447,-187500.02235174447
$SILENCE,-2111.3234295038496,-12372.182294390475,6774.791392659115,8163.169999500514,-187500.02235174447,-187500.02235174447,-187500.02235174447,-187500.02235174447
$SILENCE,-2134.61394722628,-12372.897550213045,6723.85176704547,8172.33421472719,-187500.02235174447,-187500.02235174447,-187500.02235174447,-187500.02235174447
$SILENCE,-2175.8529157463213,-12383.894608485058,6528.296354805989,8186.281703267301,-187500.02235174447,-187500.02235174447,-187500.02235174447,-187500.02235174447
$SILENCE,-2154.7528689805113,-12381.234750894875,6537.81819794395,8178.90562759705,-187500.02235174447,-187500.02235174447,-187500.02235174447,-187500.02235174447
$SILENCE,-2097.420644452649,-12370.774134489791,6749.936252824814,8167.506237924843,-187500.02235174447,-187500.02235174447,-187500.02235174447,-187500.02235174447
$SILENCE,-2117.8277871403443,-12370.997651934345,6735.899357306881,8172.647139149563,-187500.02235174447,-187500.02235174447,-187500.02235174447,-187500.02235174447
$SILENCE,-2174.6235698012792,-12381.659434039526,6559.767610999062,8179.397365975066,-187500.02235174447,-187500.02235174447,-187500.02235174447,-187500.02235174447
$SILENCE,-2171.7178430220897,-12390.711890543926,6503.7764911385175,8173.541208927776,-187500.02235174447,-187500.02235174447,-187500.02235174447,-187500.02235174447
$SILENCE,-2113.066865571364,-12379.536018316272,6706.953848237258,8158.029098275793,-187500.02235174447,-187500.02235174447,-187500.02235174447,-187500.02235174447
$SILENCE,-2124.220386054562,-12369.075401911188,6747.499912679185,8161.80654308874,-187500.02235174447,-187500.02235174447,-187500.02235174447,-187500.02235174447
$SILENCE,-2169.773241254478,-12379.714832271915,6589.763652058084,8180.71611889793,-187500.02235174447,-187500.02235174447,-187500.02235174447,-187500.02235174447
$SILENCE,-2176.2999506354276,-12389.460192854429,6500.3119707479445,8179.240903763879,-187500.02235174447,-187500.02235174447,-187500.02235174447,-187500.02235174447
$SILENCE,-2121.9852116090315,-12383.134649173577,6662.786801193572,8163.929958811994,-187500.02235174447,-187500.02235174447,-187500.02235174447,-187500.02235174447
$SILENCE,-2106.540156190414,-12374.64098628056,6771.416279246364,8168.869694336617,-187500.02235174447,-187500.02235174447,-187500.02235174447,-187500.02235174447
$SILENCE,-2168.029805186964,-12377.032622937277,6615.222288992678,8185.275874766812,-187500.02235174447,-187500.02235174447,-187500.02235174447,-187500.02235174447
$SILENCE,-2201.1103869808185,-12387.180314919988,6474.0710227574145,8172.647139149563,-187500.02235174447,-187500.02235174447,-187500.02235174447,-187500.02235174447
$SILENCE,-2150.796610211922,-12385.861561997124,6633.394257234843,8159.146685498558,-187500.02235174447,-187500.02235174447,-187500.02235174447,-187500.02235174447
$SILENCE,-2129.093066345819,-12375.602111292137,6751.411467958864,8157.515008153321,-187500.02235174447,-187500.02235174447,-187500.02235174447,-187500.02235174447
$SILENCE,-2162.508924306503,-12375.669166525504,6633.014277579103,8172.423621705011,-187500.02235174447,-187500.02235174447,-187500.02235174447,-187500.02235174447
$SILENCE,-2200.797462558444,-12390.197800421454,6467.298444187456,8180.2690840088235,-187500.02235174447,-187500.02235174447,-187500.02235174447,-187500.02235174447
$SILENCE,-2172.4330988446595,-12394.422280123506,6572.753974527594,8170.099040281659,-187500.02235174447,-187500.02235174447,-187500.02235174447,-187500.02235174447
$SILENCE,-2121.9852116090315,-12373.501047313339,6763.4590582202745,8177.989206074382,-187500.02235174447,-187500.02235174447,-187500.02235174447,-187500.02235174447
$SILENCE,-2146.639185743235,-12366.169675131998,6676.264903100122,8189.053319579759,-187500.02235174447,-187500.02235174447,-187500.02235174447,-187500.02235174447
$SILENCE,-2197.467052634603,-12381.771192761802,6484.419880440221,8170.90370308205,-187500.02235174447,-187500.02235174447,-187500.02235174447,-187500.02235174447
$SILENCE,-2177.551648324925,-12387.090907942165,6541.014497401059,8159.0796302651925,-187500.02235174447,-187500.02235174447,-187500.02235174447,-187500.02235174447
$SILENCE,-2131.641165213724,-12370.438858322961,6741.9790317987245,8162.812371589229,-187500.02235174447,-187500.02235174447,-187500.02235174447,-187500.02235174447
$SILENCE,-2150.0366509004416,-12370.103582156133,6701.1200429344235,8171.931883326994,-187500.02235174447,-187500.02235174447,-187500.02235174447,-187500.02235174447
$SILENCE,-2189.95686649762,-12384.74397477436,6513.678313932218,8180.023214819815,-187500.02235174447,-187500.02235174447,-187500.02235174447,-187500.02235174447
$SILENCE,-2177.0599099469077,-12395.249294668352,6510.638476686297,8174.94936882846,-187500.02235174447,-187500.02235174447,-187500.02235174447,-187500.02235174447
$SILENCE,-2134.9715751375647,-12383.40287010704,6710.775996539116,8160.398383188056,-187500.02235174447,-187500.02235174447,-187500.02235174447,-187500.02235174447
$SILENCE,-2141.8782641742546,-12378.127858415588,6719.448473387775,8168.221493747413,-187500.02235174447,-187500.02235174447,-187500.02235174447,-187500.02235174447
$SILENCE,-2198.5622881129134,-12382.68761428447,6536.611203743363,8178.302130496756,-187500.02235174447,-187500.02235174447,-187500.02235174447,-187500.02235174447
$SILENCE,-2196.3941689007484,-12391.896533000057,6485.291598473978,8176.156363029047,-187500.02235174447,-187500.02235174447,-187500.02235174447,-187500.02235174447
$SILENCE,-2135.508017004492,-12384.185181162977,6688.111327661434,8153.446990662455,-187500.02235174447,-187500.02235174447,-187500.02235174447,-187500.02235174447
$SILENCE,-2141.8112089408887,-12377.345547359651,6731.831339816015,8148.306089437734,-187500.02235174447,-187500.02235174447,-187500.02235174447,-187500.02235174447
$SILENCE,-2186.693511807145,-12386.085079441676,6568.350680869899,8165.449877434955,-187500.02235174447,-187500.02235174447,-187500.02235174447,-187500.02235174447
$SILENCE,-2202.1162154813073,-12398.423242381006,6464.526827874998,8168.556769914243,-187500.02235174447,-187500.02235174447,-187500.02235174447,-187500.02235174447
$SILENCE,-2143.8899211752323,-12393.461155111929,6648.392277764354,8151.949423783949,-187500.02235174447,-187500.02235174447,-187500.02235174447,-187500.02235174447
$SILENCE,-2123.572185465358,-12382.195875906453,6749.913901080358,8152.821141817706,-187500.02235174447,-187500.02235174447,-187500.02235174447,-187500.02235174447
$SILENCE,-2164.7888022409443,-12388.767288776315,6608.516765656086,8170.546075170765,-187500.02235174447,-187500.02235174447,-187500.02235174447,-187500.02235174447
$SILENCE,-2199.992799758053,-12400.412547637528,6460.347051661855,8170.881351337594,-187500.02235174447,-187500.02235174447,-187500.02235174447,-187500.02235174447
$SILENCE,-2158.440906815637,-12397.573876091705,6601.028931263559,8152.083534250682,-187500.02235174447,-187500.02235174447,-187500.02235174447,-187500.02235174447
$SILENCE,-2128.42251401216,-12383.69344278496,6761.067421563557,8152.776438328796,-187500.02235174447,-187500.02235174447,-187500.02235174447,-187500.02235174447
$SILENCE,-2165.0793749188633,-12385.280416641286,6642.133789316868,8168.020328047315,-187500.02235174447,-187500.02235174447,-187500.02235174447,-187500.02235174447
$SILENCE,-2209.514642896014,-12400.904286015546,6453.552121347442,8165.114601268126,-187500.02235174447,-187500.02235174447,-187500.02235174447,-187500.02235174447
$SILENCE,-2174.310645378905,-12401.954818004944,6558.448858076198,8153.424638918,-187500.02235174447,-187500.02235174447,-187500.02235174447,-187500.02235174447
$SILENCE,-2130.344764035316,-12387.202666664441,6755.1218575384455,8153.3799354290895,-187500.02235174447,-187500.02235174447,-187500.02235174447,-187500.02235174447
$SILENCE,-2172.5001540780254,-12384.520457329805,6666.1395628618675,8161.493618666365,-187500.02235174447,-187500.02235174447,-187500.02235174447,-187500.02235174447
$SILENCE,-2216.4213319327037,-12396.657454569036,6474.115726246325,8166.634519891086,-187500.02235174447,-187500.02235174447,-187500.02235174447,-187500.02235174447
$SILENCE,-2189.6886455641566,-12401.753652304847,6518.282773290011,8157.626766875597,-187500.02235174447,-187500.02235174447,-187500.02235174447,-187500.02235174447
$SILENCE,-2135.8209414268663,-12391.181277177488,6732.300726449576,8154.408115674033,-187500.02235174447,-187500.02235174447,-187500.02235174447,-187500.02235174447
$SILENCE,-2157.077450403863,-12387.180314919988,6700.114214433935,8161.046583777259,-187500.02235174447,-187500.02235174447,-187500.02235174447,-187500.02235174447
$SILENCE,-2199.322247424394,-12398.199724936454,6520.249726802079,8170.5237234263095,-187500.02235174447,-187500.02235174447,-187500.02235174447,-187500.02235174447
$SILENCE,-2206.4524539056365,-12403.295922672263,6493.2711712445225,8153.782266829285,-187500.02235174447,-187500.02235174447,-187500.02235174447,-187500.02235174447
$SILENCE,-2151.7800869679554,-12395.629274324094,6690.681778273795,8134.224490430891,-187500.02235174447,-187500.02235174447,-187500.02235174447,-187500.02235174447
$SILENCE,-2158.642072515735,-12388.856695754135,6705.255115658655,8144.081609735681,-187500.02235174447,-187500.02235174447,-187500.02235174447,-187500.02235174447
$SILENCE,-2198.964619513109,-12396.411585380029,6539.360468311366,8162.007708788838,-187500.02235174447,-187500.02235174447,-187500.02235174447,-187500.02235174447
$SILENCE,-2212.5768318863907,-12403.698254072458,6473.154601234746,8154.274005207301,-187500.02235174447,-187500.02235174447,-187500.02235174447,-187500.02235174447
$SILENCE,-2154.9540346806093,-12394.936370245978,6665.2231413392,8138.314859666212,-187500.02235174447,-187500.02235174447,-187500.02235174447,-187500.02235174447
$SILENCE,-2145.320432820372,-12386.06272769722,6726.735142080205,8145.1097899806255,-187500.02235174447,-187500.02235174447,-187500.02235174447,-187500.02235174447
$SILENCE,-2184.704206550623,-12397.573876091705,6577.0902129519245,8164.108772767637,-187500.02235174447,-187500.02235174447,-187500.02235174447,-187500.02235174447
$SILENCE,-2213.761474342522,-12408.526230874806,6454.9379295036715,8160.532493654788,-187500.02235174447,-187500.02235174447,-187500.02235174447,-187500.02235174447
$SILENCE,-2169.773241254478,-12401.328969160197,6627.493396698642,8135.006801486827,-187500.02235174447,-187500.02235174447,-187500.02235174447,-187500.02235174447
$SILENCE,-2139.9336624066427,-12390.108393443632,6745.398848700386,8134.55976659772,-187500.02235174447,-187500.02235174447,-187500.02235174447,-187500.02235174447
