WORD,Channel_1,Channel_2,Channel_3,Channel_4,Channel_5,Channel_6,Channel_7,Channel_8
$SILENCE,-1659.9075984844685,-12422.384312437096,6197.17761244507,8038.715486373364,-187500.02235174447,-187500.02235174447,-187500.02235174447,-187500.02235174447
$SILENCE,-1602.9330018678907,-12416.0811205007,6378.874943122261,8021.281125698224,-187500.02235174447,-187500.02235174447,-187500.02235174447,-187500.02235174447
$SILENCE,-1570.7464898522485,-12404.257047683841,6507.57628769592,8019.694151841897,-187500.02235174447,-187500.02235174447,-187500.02235174447,-187500.02235174447
$SILENCE,-1613.5500804841615,-12408.705044830447,6365.508599937988,8034.312192715668,-187500.02235174447,-187500.02235174447,-187500.02235174447,-187500.02235174447
$SILENCE,-1661.8745519965355,-12418.562164135237,6201.0668159802935,8036.145035761004,-187500.02235174447,-187500.02235174447,-187500.02235174447,-187500.02235174447
$SILENCE,-1618.4227607754185,-12418.182184479498,6322.01210522796,8020.118834986549,-187500.02235174447,-187500.02235174447,-187500.02235174447,-187500.02235174447
$SILENCE,-1565.8961613054469,-12409.375597164108,6499.172031780724,8018.3753989190345,-187500.02235174447,-187500.02235174447,-187500.02235174447,-187500.02235174447
$SILENCE,-1602.8435948900694,-12407.78862330778,6396.2422485640345,8033.1722537484475,-187500.02235174447,-187500.02235174447,-187500.02235174447,-187500.02235174447
$SILENCE,-1657.2253891498315,-12418.495108901872,6205.693627082543,8037.083809028127,-187500.02235174447,-187500.02235174447,-187500.02235174447,-187500.02235174447
$SILENCE,-1614.9582403848458,-12422.116091503633,6293.983017681006,8021.750512331786,-187500.02235174447,-187500.02235174447,-187500.02235174447,-187500.02235174447
$SILENCE,-1563.9292077933799,-12412.057806498744,6500.535488192498,8010.1052534705705,-187500.02235174447,-187500.02235174447,-187500.02235174447,-187500.02235174447
$SILENCE,-1608.3868275149857,-12407.252181440852,6427.400580334733,8018.956544274873,-187500.02235174447,-187500.02235174447,-187500.02235174447,-187500.02235174447
$SILENCE,-1654.2973106261863,-12418.875088557612,6230.302897727835,8035.318021216157,-187500.02235174447,-187500.02235174447,-187500.02235174447,-187500.02235174447
$SILENCE,-1630.8056272036586,-12426.474681672416,6257.013232351927,8023.82922456613,-187500.02235174447,-187500.02235174447,-187500.02235174447,-187500.02235174447
$SILENCE,-1565.2256089717878,-12414.427091411006,6469.80183956645,8012.139262216004,-187500.02235174447,-187500.02235174447,-187500.02235174447,-187500.02235174447
$SILENCE,-1581.6541411464384,-12411.811937309736,6450.489932357065,8017.973067518839,-187500.02235174447,-187500.02235174447,-187500.02235174447,-187500.02235174447
$SILENCE,-1632.6161185045385,-12422.116091503633,6263.562293477332,8033.328715959635,-187500.02235174447,-187500.02235174447,-187500.02235174447,-187500.02235174447
$SILENCE,-1622.4460747773737,-12428.911021818045,6237.701325142542,8028.746608346297,-187500.02235174447,-187500.02235174447,-187500.02235174447,-187500.02235174447
$SILENCE,-1563.2586554597206,-12416.997542023366,6459.117705716813,8013.793291305697,-187500.02235174447,-187500.02235174447,-187500.02235174447,-187500.02235174447
$SILENCE,-1567.5725421395948,-12410.761405320336,6486.90092407476,8016.699018084886,-187500.02235174447,-187500.02235174447,-187500.02235174447,-187500.02235174447
$SILENCE,-1631.0514963926669,-12418.65157111306,6294.3406455922905,8026.600840878587,-187500.02235174447,-187500.02235174447,-187500.02235174447,-187500.02235174447
$SILENCE,-1643.1661418874435,-12428.329876462207,6210.767473073897,8024.25390771078,-187500.02235174447,-187500.02235174447,-187500.02235174447,-187500.02235174447
$SILENCE,-1572.825202086592,-12420.305600202752,6417.789330218951,8011.222840693336,-187500.02235174447,-187500.02235174447,-187500.02235174447,-187500.02235174447
$SILENCE,-1567.0584520171228,-12410.202611708954,6495.059310800947,8011.178137204425,-187500.02235174447,-187500.02235174447,-187500.02235174447,-187500.02235174447
$SILENCE,-1614.824129918114,-12417.556335634748,6330.081084976326,8026.265564711758,-187500.02235174447,-187500.02235174447,-187500.02235174447,-187500.02235174447
$SILENCE,-1639.7016214968708,-12429.849795085169,6206.475938138478,8027.807835079174,-187500.02235174447,-187500.02235174447,-187500.02235174447,-187500.02235174447
$SILENCE,-1581.6541411464384,-12423.256030470853,6386.251018792513,8012.675704082931,-187500.02235174447,-187500.02235174447,-187500.02235174447,-187500.02235174447
$SILENCE,-1551.4569343873186,-12411.901344287557,6516.293468033489,8011.222840693336,-187500.02235174447,-187500.02235174447,-187500.02235174447,-187500.02235174447
$SILENCE,-1603.7153129238263,-12416.930486790001,6375.723347154063,8026.489082156311,-187500.02235174447,-187500.02235174447,-187500.02235174447,-187500.02235174447
$SILENCE,-1634.4713132943289,-12428.55339390676,6217.495348154945,8031.227651980836,-187500.02235174447,-187500.02235174447,-187500.02235174447,-187500.02235174447
$SILENCE,-1585.2304202592875,-12429.514518918339,6343.6485938606975,8006.864250524552,-187500.02235174447,-187500.02235174447,-187500.02235174447,-187500.02235174447
$SILENCE,-1545.1984459398325,-12417.109300745644,6513.767720910039,8000.494003354789,-187500.02235174447,-187500.02235174447,-187500.02235174447,-187500.02235174447
$SILENCE,-1587.1750220268991,-12414.74001583338,6405.629981235264,8013.636829094509,-187500.02235174447,-187500.02235174447,-187500.02235174447,-187500.02235174447
$SILENCE,-1630.9173859259352,-12428.106359017655,6234.147397774148,8023.91863154395,-187500.02235174447,-187500.02235174447,-187500.02235174447,-187500.02235174447
$SILENCE,-1591.6900744068712,-12432.576707908716,6312.982000468016,8015.715541328853,-187500.02235174447,-187500.02235174447,-187500.02235174447,-187500.02235174447
$SILENCE,-1548.8417802860477,-12418.584515879693,6500.066101558937,8003.332674900613,-187500.02235174447,-187500.02235174447,-187500.02235174447,-187500.02235174447
$SILENCE,-1579.7095393788265,-12414.494146644372,6438.844673495851,8009.859384281563,-187500.02235174447,-187500.02235174447,-187500.02235174447,-187500.02235174447
$SILENCE,-1625.1953393453766,-12426.36292295014,6238.550691431844,8020.1411867310035,-187500.02235174447,-187500.02235174447,-187500.02235174447,-187500.02235174447
$SILENCE,-1598.4179494879186,-12432.464949186438,6268.636139468687,8013.837994794607,-187500.02235174447,-187500.02235174447,-187500.02235174447,-187500.02235174447
$SILENCE,-1534.9836987237572,-12421.22202172542,6487.839697341883,8005.947829001883,-187500.02235174447,-187500.02235174447,-187500.02235174447,-187500.02235174447
$SILENCE,-1556.3296146785754,-12414.605905366649,6472.573455878909,8015.760244817763,-187500.02235174447,-187500.02235174447,-187500.02235174447,-187500.02235174447
$SILENCE,-1618.9815543868012,-12422.294905459274,6277.800354695363,8024.58918387761,-187500.02235174447,-187500.02235174447,-187500.02235174447,-187500.02235174447
$SILENCE,-1622.0884468660888,-12430.497995674372,6244.719772901509,8018.174233218937,-187500.02235174447,-187500.02235174447,-187500.02235174447,-187500.02235174447
$SILENCE,-1554.9438065223464,-12422.227850225909,6463.588054607875,7999.10819519856,-187500.02235174447,-187500.02235174447,-187500.02235174447,-187500.02235174447
$SILENCE,-1551.3004721761313,-12417.556335634748,6496.869802101827,8004.91964875694,-187500.02235174447,-187500.02235174447,-187500.02235174447,-187500.02235174447
$SILENCE,-1600.4296064888963,-12427.189937494986,6308.109320176759,8015.581430862121,-187500.02235174447,-187500.02235174447,-187500.02235174447,-187500.02235174447
$SILENCE,-1612.7230659393151,-12438.723437633926,6223.820891835796,8011.893393026995,-187500.02235174447,-187500.02235174447,-187500.02235174447,-187500.02235174447
$SILENCE,-1555.860228045014,-12429.179242751508,6432.250908881535,7995.196639918881,-187500.02235174447,-187500.02235174447,-187500.02235174447,-187500.02235174447
$SILENCE,-1547.4336203853632,-12416.036417011788,6514.9300116217155,7998.974084731828,-187500.02235174447,-187500.02235174447,-187500.02235174447,-187500.02235174447
$SILENCE,-1597.434472731885,-12421.356132192152,6346.710782851074,8013.122738972037,-187500.02235174447,-187500.02235174447,-187500.02235174447,-187500.02235174447
$SILENCE,-1624.0554003781558,-12432.688466630992,6218.724694099987,8015.2685064397465,-187500.02235174447,-187500.02235174447,-187500.02235174447,-187500.02235174447
$SILENCE,-1564.7562223382263,-12430.408588696551,6396.197545075124,7997.163593430948,-187500.02235174447,-187500.02235174447,-187500.02235174447,-187500.02235174447
$SILENCE,-1539.6105098260057,-12416.774024578814,6529.704514706674,7994.414328862946,-187500.02235174447,-187500.02235174447,-187500.02235174447,-187500.02235174447
$SILENCE,-1584.4481092033518,-12420.59617288067,6391.906010139705,8010.284067426213,-187500.02235174447,-187500.02235174447,-187500.02235174447,-187500.02235174447
$SILENCE,-1628.9504324138682,-12433.694295131481,6217.607106877221,8008.406520891967,-187500.02235174447,-187500.02235174447,-187500.02235174447,-187500.02235174447
$SILENCE,-1576.1556120104328,-12435.46008294345,6350.77880034194,7991.5533055726655,-187500.02235174447,-187500.02235174447,-187500.02235174447,-187500.02235174447
$SILENCE,-1531.4074196109082,-12421.31142870324,6522.663715203252,7990.323959627624,-187500.02235174447,-187500.02235174447,-187500.02235174447,-187500.02235174447
$SILENCE,-1571.9311323083798,-12422.250201970364,6415.688266240152,7999.421119620934,-187500.02235174447,-187500.02235174447,-187500.02235174447,-187500.02235174447
$SILENCE,-1611.3372577830862,-12433.448425942473,6236.449627453045,8008.138299958504,-187500.02235174447,-187500.02235174447,-187500.02235174447,-187500.02235174447
$SILENCE,-1579.4860219342736,-12437.829367855713,6315.8206720138405,7997.409462619957,-187500.02235174447,-187500.02235174447,-187500.02235174447,-187500.02235174447
$SILENCE,-1530.7368672772488,-12427.569917150728,6514.90765987726,7987.664102037443,-187500.02235174447,-187500.02235174447,-187500.02235174447,-187500.02235174447
$SILENCE,-1562.6551583594273,-12423.79247233778,6451.473409113099,7995.196639918881,-187500.02235174447,-187500.02235174447,-187500.02235174447,-187500.02235174447
$SILENCE,-1616.1875863298878,-12431.526175919316,6253.61576719472,8004.003227234272,-187500.02235174447,-187500.02235174447,-187500.02235174447,-187500.02235174447
$SILENCE,-1598.6861704213823,-12438.254051000364,6272.413584281634,7998.191773675892,-187500.02235174447,-187500.02235174447,-187500.02235174447,-187500.02235174447
$SILENCE,-1537.3529836360199,-12431.906155575056,6492.064177043936,7983.663139779943,-187500.02235174447,-187500.02235174447,-187500.02235174447,-187500.02235174447
$SILENCE,-1553.602701855028,-12424.619486882626,6474.451002413154,7991.776823017219,-187500.02235174447,-187500.02235174447,-187500.02235174447,-187500.02235174447
$SILENCE,-1605.1234728245108,-12430.967382307934,6290.518497290433,8009.948791259384,-187500.02235174447,-187500.02235174447,-187500.02235174447,-187500.02235174447
$SILENCE,-1601.5918972005722,-12437.963478322445,6259.695441686564,8002.639770822499,-187500.02235174447,-187500.02235174447,-187500.02235174447,-187500.02235174447
$SILENCE,-1543.4550098723187,-12428.50869041785,6467.834886054384,7979.975101944817,-187500.02235174447,-187500.02235174447,-187500.02235174447,-187500.02235174447
$SILENCE,-1548.2382831857542,-12424.12774850461,6492.041825299481,7980.891523467484,-187500.02235174447,-187500.02235174447,-187500.02235174447,-187500.02235174447
$SILENCE,-1580.6259609014942,-12441.18212952401,6316.804148769874,7995.397805618979,-187500.02235174447,-187500.02235174447,-187500.02235174447,-187500.02235174447
$SILENCE,-1584.5151644367177,-12444.244318514386,6232.918051829106,7995.375453874523,-187500.02235174447,-187500.02235174447,-187500.02235174447,-187500.02235174447
$SILENCE,-1523.6290125404612,-12435.84006259919,6432.854405981828,7977.695224010376,-187500.02235174447,-187500.02235174447,-187500.02235174447,-187500.02235174447
$SILENCE,-1502.506614030196,-12427.592268895181,6517.634572700807,7980.15391590046,-187500.02235174447,-187500.02235174447,-187500.02235174447,-187500.02235174447
$SILENCE,-1551.3004721761313,-12432.688466630992,6361.30647198039,7994.459032351856,-187500.02235174447,-187500.02235174447,-187500.02235174447,-187500.02235174447
$SILENCE,-1585.1410132814663,-12445.18309178151,6235.600261163743,7992.9614654733505,-187500.02235174447,-187500.02235174447,-187500.02235174447,-187500.02235174447
$SILENCE,-1537.4647423582962,-12441.115074290643,6406.0993678688255,7978.186962388392,-187500.02235174447,-187500.02235174447,-187500.02235174447,-187500.02235174447
$SILENCE,-1498.7068174727938,-12418.606867624148,6570.876427993349,7991.776823017219,-187500.02235174447,-187500.02235174447,-187500.02235174447,-187500.02235174447
$SILENCE,-1556.441373400852,-12437.941126577989,6417.208184863113,7997.096538197582,-187500.02235174447,-187500.02235174447,-187500.02235174447,-187500.02235174447
$SILENCE,-1609.638525204483,-12445.384257481606,6243.110447300726,7997.945904486884,-187500.02235174447,-187500.02235174447,-187500.02235174447,-187500.02235174447
$SILENCE,-1556.4637251453073,-12441.316239990741,6370.448335462611,7990.301607883169,-187500.02235174447,-187500.02235174447,-187500.02235174447,-187500.02235174447
$SILENCE,-1533.73200103426,-12439.639859156592,6499.440252714187,7975.5271047982105,-187500.02235174447,-187500.02235174447,-187500.02235174447,-187500.02235174447
$SILENCE,-1565.9185130499022,-12433.135501520099,6396.488117753043,8000.024616721227,-187500.02235174447,-187500.02235174447,-187500.02235174447,-187500.02235174447
$SILENCE,-1619.8532724205581,-12442.70204814697,6210.186327718059,8000.292837654691,-187500.02235174447,-187500.02235174447,-187500.02235174447,-187500.02235174447
$SILENCE,-1583.8222603586032,-12444.110208047654,6289.378558323212,7980.57859904511,-187500.02235174447,-187500.02235174447,-187500.02235174447,-187500.02235174447
$SILENCE,-1531.8991579889248,-12432.55435616426,6498.948514336171,7973.046061163672,-187500.02235174447,-187500.02235174447,-187500.02235174447,-187500.02235174447
$SILENCE,-1558.0730507460894,-12430.922678819023,6444.589071820864,7980.422136833923,-187500.02235174447,-187500.02235174447,-187500.02235174447,-187500.02235174447
$SILENCE,-1605.503452480251,-12442.456178957962,6254.845113139762,7992.827355006619,-187500.02235174447,-187500.02235174447,-187500.02235174447,-187500.02235174447
$SILENCE,-1584.2692952477094,-12450.256937772863,6279.320273318323,7989.4969450827775,-187500.02235174447,-187500.02235174447,-187500.02235174447,-187500.02235174447
$SILENCE,-1532.8602830005032,-12439.684562645503,6492.242990999579,7973.694261752876,-187500.02235174447,-187500.02235174447,-187500.02235174447,-187500.02235174447
$SILENCE,-1549.5793878530728,-12432.643763142081,6480.754194349551,7984.288988624691,-187500.02235174447,-187500.02235174447,-187500.02235174447,-187500.02235174447
$SILENCE,-1602.2177460453208,-12441.629164413114,6291.680788002109,8001.566887088644,-187500.02235174447,-187500.02235174447,-187500.02235174447,-187500.02235174447
$SILENCE,-1603.2682780347202,-12449.876958117124,6249.771267148408,7992.5367823287,-187500.02235174447,-187500.02235174447,-187500.02235174447,-187500.02235174447
$SILENCE,-1538.7611435367041,-12441.629164413114,6461.486990629076,7972.800191974663,-187500.02235174447,-187500.02235174447,-187500.02235174447,-187500.02235174447
$SILENCE,-1532.502655089218,-12435.16951026553,6498.032092813503,7978.3434245995795,-187500.02235174447,-187500.02235174447,-187500.02235174447,-187500.02235174447
$SILENCE,-1579.4189667009077,-12443.79728362528,6320.760407538463,7992.402671861968,-187500.02235174447,-187500.02235174447,-187500.02235174447,-187500.02235174447
$SILENCE,-1602.083635578589,-12453.632051185616,6231.174615761593,7990.033386949705,-187500.02235174447,-187500.02235174447,-187500.02235174447,-187500.02235174447
$SILENCE,-1551.6804518318716,-12445.004277825867,6429.009905935515,7968.598064017066,-187500.02235174447,-187500.02235174447,-187500.02235174447,-187500.02235174447
$SILENCE,-1538.470570858785,-12434.476606187416,6513.611258698852,7970.0732791511155,-187500.02235174447,-187500.02235174447,-187500.02235174447,-187500.02235174447
$SILENCE,-1590.594838928561,-12442.165606280043,6344.073277005348,7984.557209558155,-187500.02235174447,-187500.02235174447,-187500.02235174447,-187500.02235174447
$SILENCE,-1619.8756241650135,-12453.140312807598,6209.828699806774,7988.155840415459,-187500.02235174447,-187500.02235174447,-187500.02235174447,-187500.02235174447
$SILENCE,-1561.8057920701258,-12449.876958117124,6386.183963559147,7972.934302441395,-187500.02235174447,-187500.02235174447,-187500.02235174447,-187500.02235174447
$SILENCE,-1530.8039225106147,-12437.091760288688,6526.91054664976,7970.38620357349,-187500.02235174447,-187500.02235174447,-187500.02235174447,-187500.02235174447
$SILENCE,-1573.9651410538127,-12440.265708001341,6389.290856038435,7980.8691717230295,-187500.02235174447,-187500.02235174447,-187500.02235174447,-187500.02235174447
$SILENCE,-1611.1360920829884,-12451.978022095922,6224.692609869553,7987.86526773754,-187500.02235174447,-187500.02235174447,-187500.02235174447,-187500.02235174447
$SILENCE,-1568.5336671511732,-12451.955670351466,6348.901253807695,7974.811848975641,-187500.02235174447,-187500.02235174447,-187500.02235174447,-187500.02235174447
$SILENCE,-1531.2956608886316,-12438.07523704472,6521.769645425039,7968.173380872415,-187500.02235174447,-187500.02235174447,-187500.02235174447,-187500.02235174447
$SILENCE,-1568.3995566844412,-12439.79632136778,6422.706713999119,7980.91387521194,-187500.02235174447,-187500.02235174447,-187500.02235174447,-187500.02235174447
$SILENCE,-1613.1924525728766,-12452.46976047394,6236.04729605285,7986.255942136758,-187500.02235174447,-187500.02235174447,-187500.02235174447,-187500.02235174447
$SILENCE,-1589.9019348504467,-12456.291908775796,6299.928581706117,7969.67094775092,-187500.02235174447,-187500.02235174447,-187500.02235174447,-187500.02235174447
$SILENCE,-1540.0351929706567,-12440.84685335718,6501.2507440150675,7964.328880826102,-187500.02235174447,-187500.02235174447,-187500.02235174447,-187500.02235174447
$SILENCE,-1559.3918036689524,-12436.465911443938,6455.429667881688,7981.62913103451,-187500.02235174447,-187500.02235174447,-187500.02235174447,-187500.02235174447
$SILENCE,-1608.0739030926113,-12448.245280771886,6269.127877846704,7993.274389895724,-187500.02235174447,-187500.02235174447,-187500.02235174447,-187500.02235174447
$SILENCE,-1593.858193619036,-12455.643708186593,6273.531171504399,7975.951787942861,-187500.02235174447,-187500.02235174447,-187500.02235174447,-187500.02235174447
$SILENCE,-1541.6221668269834,-12444.981926081411,6480.8883048162825,7959.366793557024,-187500.02235174447,-187500.02235174447,-187500.02235174447,-187500.02235174447
$SILENCE,-1558.4530304018297,-12438.879899845113,6478.273150715012,7972.174343129915,-187500.02235174447,-187500.02235174447,-187500.02235174447,-187500.02235174447
$SILENCE,-1607.6715716924157,-12446.41243772655,6288.372729822723,7987.395881103979,-187500.02235174447,-187500.02235174447,-187500.02235174447,-187500.02235174447
$SILENCE,-1607.023371103212,-12454.101437819176,6242.417543222612,7984.020767691228,-187500.02235174447,-187500.02235174447,-187500.02235174447,-187500.02235174447
$SILENCE,-1545.7572395512152,-12446.144216793087,6458.648319083252,7968.262787850236,-187500.02235174447,-187500.02235174447,-187500.02235174447,-187500.02235174447
$SILENCE,-1546.7407163072487,-12440.84685335718,6502.52479344902,7970.900293695962,-187500.02235174447,-187500.02235174447,-187500.02235174447,-187500.02235174447
$SILENCE,-1598.4850047212847,-12447.261804015852,6322.72736105053,7981.9867589457945,-187500.02235174447,-187500.02235174447,-187500.02235174447,-187500.02235174447
$SILENCE,-1616.7240281968152,-12456.828350642723,6225.877252325685,7978.589293788588,-187500.02235174447,-187500.02235174447,-187500.02235174447,-187500.02235174447
$SILENCE,-1556.866056545503,-12450.771027895336,6424.517205299999,7963.85949419254,-187500.02235174447,-187500.02235174447,-187500.02235174447,-187500.02235174447
$SILENCE,-1541.4880563602517,-12439.84102485669,6515.824081399927,7965.066488393127,-187500.02235174447,-187500.02235174447,-187500.02235174447,-187500.02235174447
$SILENCE,-1593.7464348967594,-12444.534891192305,6358.937187068127,7985.518334569733,-187500.02235174447,-187500.02235174447,-187500.02235174447,-187500.02235174447
$SILENCE,-1625.888243423491,-12456.671888431536,6219.305839455824,7986.613570048043,-187500.02235174447,-187500.02235174447,-187500.02235174447,-187500.02235174447
$SILENCE,-1575.9097428214245,-12452.670926174036,6382.697091424119,7967.793401216674,-187500.02235174447,-187500.02235174447,-187500.02235174447,-187500.02235174447
$SILENCE,-1551.3004721761313,-12438.388161467095,6517.031075600515,7965.781744215697,-187500.02235174447,-187500.02235174447,-187500.02235174447,-187500.02235174447
$SILENCE,-1593.6123244300277,-12441.964440579944,6383.747623413518,7981.584427545599,-187500.02235174447,-187500.02235174447,-187500.02235174447,-187500.02235174447
$SILENCE,-1627.8104934466473,-12455.196673297487,6221.384551690167,7987.574695059621,-187500.02235174447,-187500.02235174447,-187500.02235174447,-187500.02235174447
$SILENCE,-1581.184754512877,-12454.257900030363,6346.420210173155,7973.426040819412,-187500.02235174447,-187500.02235174447,-187500.02235174447,-187500.02235174447
$SILENCE,-1539.8340272705589,-12440.980963823911,6526.217642571645,7967.3687180720235,-187500.02235174447,-187500.02235174447,-187500.02235174447,-187500.02235174447
$SILENCE,-1578.7931178561591,-12440.735094634903,6423.980763433071,7977.762279243741,-187500.02235174447,-187500.02235174447,-187500.02235174447,-187500.02235174447
$SILENCE,-1628.9504324138682,-12451.41922848454,6234.862653596718,7985.0936514250825,-187500.02235174447,-187500.02235174447,-187500.02235174447,-187500.02235174447
$SILENCE,-1599.6919989218711,-12455.666059931047,6306.29882887588,7974.1189448975265,-187500.02235174447,-187500.02235174447,-187500.02235174447,-187500.02235174447
$SILENCE,-1547.1430477074443,-12444.311373747752,6506.793976639984,7964.552398270655,-187500.02235174447,-187500.02235174447,-187500.02235174447,-187500.02235174447
$SILENCE,-1574.0545480316339,-12441.740923135392,6446.645432310753,7974.275407108714,-187500.02235174447,-187500.02235174447,-187500.02235174447,-187500.02235174447
$SILENCE,-1625.441208534385,-12453.319126763241,6253.3698980057125,7983.283160124202,-187500.02235174447,-187500.02235174447,-187500.02235174447,-187500.02235174447
$SILENCE,-1611.6501822054604,-12459.175283810531,6265.417488267123,7974.476572808811,-187500.02235174447,-187500.02235174447,-187500.02235174447,-187500.02235174447
$SILENCE,-1552.4851146322626,-12446.70301040447,6482.408223439244,7958.919758667917,-187500.02235174447,-187500.02235174447,-187500.02235174447,-187500.02235174447
$SILENCE,-1566.49965840574,-12440.779798123813,6477.0661565144255,7971.079107651604,-187500.02235174447,-187500.02235174447,-187500.02235174447,-187500.02235174447
$SILENCE,-1618.2662985642314,-12450.167530795043,6286.785755966396,7984.534857813699,-187500.02235174447,-187500.02235174447,-187500.02235174447,-187500.02235174447
$SILENCE,-1617.5510427416616,-12460.292871033296,6242.909281600629,7980.95857870085,-187500.02235174447,-187500.02235174447,-187500.02235174447,-187500.02235174447
$SILENCE,-1559.9282455358798,-12451.08395231771,6455.966109748615,7963.233645347792,-187500.02235174447,-187500.02235174447,-187500.02235174447,-187500.02235174447
$SILENCE,-1562.0963647480446,-12442.299716746775,6497.115671290836,7969.916816939929,-187500.02235174447,-187500.02235174447,-187500.02235174447,-187500.02235174447
$SILENCE,-1612.70071419486,-12451.50863546236,6314.837195257806,7980.645654278476,-187500.02235174447,-187500.02235174447,-187500.02235174447,-187500.02235174447
$SILENCE,-1627.8999004244686,-12463.422115257039,6221.0269237788825,7979.416308333434,-187500.02235174447,-187500.02235174447,-187500.02235174447,-187500.02235174447
$SILENCE,-1568.4219084288966,-12455.599004697682,6421.343257587345,7966.318186082624,-187500.02235174447,-187500.02235174447,-187500.02235174447,-187500.02235174447
$SILENCE,-1554.7426408222486,-12442.925565591522,6511.979581353615,7966.631110504999,-187500.02235174447,-187500.02235174447,-187500.02235174447,-187500.02235174447
$SILENCE,-1608.4538827483516,-12446.524196448827,6357.014937044971,7983.1043461685595,-187500.02235174447,-187500.02235174447,-187500.02235174447,-187500.02235174447
$SILENCE,-1635.4324383059072,-12458.795304154792,6222.122159257193,7988.044081693182,-187500.02235174447,-187500.02235174447,-187500.02235174447,-187500.02235174447
$SILENCE,-1581.9447138243574,-12457.409495998561,6379.567847200376,7969.380375073001,-187500.02235174447,-187500.02235174447,-187500.02235174447,-187500.02235174447
$SILENCE,-1559.637672857961,-12444.870167359135,6513.320686020933,7962.630148247498,-187500.02235174447,-187500.02235174447,-187500.02235174447,-187500.02235174447
$SILENCE,-1601.4354349893852,-12446.032458070811,6384.865210636283,7976.108250154049,-187500.02235174447,-187500.02235174447,-187500.02235174447,-187500.02235174447
$SILENCE,-1640.5509877861725,-12457.096571576187,6218.657638866621,7983.506677568756,-187500.02235174447,-187500.02235174447,-187500.02235174447,-187500.02235174447
$SILENCE,-1597.4791762207958,-12458.236510543407,6340.496997892499,7973.962482686339,-187500.02235174447,-187500.02235174447,-187500.02235174447,-187500.02235174447
$SILENCE,-1558.7883065686592,-12443.104379547165,6515.846433144383,7966.653462249454,-187500.02235174447,-187500.02235174447,-187500.02235174447,-187500.02235174447
$SILENCE,-1599.826109388603,-12441.584460924205,6418.146958130236,7977.650520521465,-187500.02235174447,-187500.02235174447,-187500.02235174447,-187500.02235174447
$SILENCE,-1638.18170287391,-12454.570824452738,6233.700362885042,7988.915799726939,-187500.02235174447,-187500.02235174447,-187500.02235174447,-187500.02235174447
$SILENCE,-1610.1749670714103,-12458.258862287863,6299.012160183449,7978.678700766409,-187500.02235174447,-187500.02235174447,-187500.02235174447,-187500.02235174447
$SILENCE,-1567.1255072504887,-12445.60777492616,6498.9038108472605,7967.14520062747,-187500.02235174447,-187500.02235174447,-187500.02235174447,-187500.02235174447
$SILENCE,-1590.8407081175696,-12443.216138269441,6449.148827689747,7977.024671676716,-187500.02235174447,-187500.02235174447,-187500.02235174447,-187500.02235174447
$SILENCE,-1643.1661418874435,-12452.313298262752,6256.588549207277,7987.015901448239,-187500.02235174447,-187500.02235174447,-187500.02235174447,-187500.02235174447
$SILENCE,-1629.3527638140636,-12459.979946610922,6262.377651021201,7977.695224010376,-187500.02235174447,-187500.02235174447,-187500.02235174447,-187500.02235174447
$SILENCE,-1572.9146090644133,-12447.440617971495,6479.301330959956,7964.3735843150125,-187500.02235174447,-187500.02235174447,-187500.02235174447,-187500.02235174447
$SILENCE,-1584.5598679256284,-12441.427998713018,6477.937874548183,7975.392994331479,-187500.02235174447,-187500.02235174447,-187500.02235174447,-187500.02235174447
$SILENCE,-1636.3488598285749,-12450.234586028408,6287.679825744609,7994.727253285319,-187500.02235174447,-187500.02235174447,-187500.02235174447,-187500.02235174447
$SILENCE,-1642.6073482760607,-12457.722420420936,6236.650793153142,7989.899276482974,-187500.02235174447,-187500.02235174447,-187500.02235174447,-187500.02235174447
$SILENCE,-1582.8611353470249,-12447.373562738128,6450.959318990626,7971.883770451996,-187500.02235174447,-187500.02235174447,-187500.02235174447,-187500.02235174447
$SILENCE,-1583.5093359362288,-12438.343457978184,6496.311008490445,7976.443526320878,-187500.02235174447,-187500.02235174447,-187500.02235174447,-187500.02235174447
$SILENCE,-1633.4431330493849,-12444.825463870224,6316.312410391857,7988.044081693182,-187500.02235174447,-187500.02235174447,-187500.02235174447,-187500.02235174447
$SILENCE,-1651.7045082693708,-12454.682583175014,6218.27765921088,7986.702977025864,-187500.02235174447,-187500.02235174447,-187500.02235174447,-187500.02235174447
$SILENCE,-1591.533612195684,-12450.972193595433,6417.543461029943,7974.521276297722,-187500.02235174447,-187500.02235174447,-187500.02235174447,-187500.02235174447
$SILENCE,-1568.0419287731563,-12440.332763234706,6516.8075581559615,7977.62816877701,-187500.02235174447,-187500.02235174447,-187500.02235174447,-187500.02235174447
$SILENCE,-1620.1661968429325,-12444.490187703394,6353.013974787471,7990.05573869416,-187500.02235174447,-187500.02235174447,-187500.02235174447,-187500.02235174447
$SILENCE,-1650.497514068784,-12456.001336097877,6214.433159164568,7995.040177707694,-187500.02235174447,-187500.02235174447,-187500.02235174447,-187500.02235174447
$SILENCE,-1598.6191151880164,-12453.65440293007,6377.779707643951,7979.4610118223445,-187500.02235174447,-187500.02235174447,-187500.02235174447,-187500.02235174447
$SILENCE,-1572.4228706863967,-12442.255013257864,6520.71911343564,7977.337596099091,-187500.02235174447,-187500.02235174447,-187500.02235174447,-187500.02235174447
$SILENCE,-1617.3945805304743,-12443.685524903003,6393.850611907317,7988.714634026842,-187500.02235174447,-187500.02235174447,-187500.02235174447,-187500.02235174447
$SILENCE,-1656.890112983002,-12454.213196541454,6221.004572034428,7990.100442183071,-187500.02235174447,-187500.02235174447,-187500.02235174447,-187500.02235174447
$SILENCE,-1611.9407548833794,-12456.604833198171,6330.773989054441,7972.509619296744,-187500.02235174447,-187500.02235174447,-187500.02235174447,-187500.02235174447
$SILENCE,-1568.31014970662,-12444.065504558743,6509.632648185808,7965.267654093225,-187500.02235174447,-187500.02235174447,-187500.02235174447,-187500.02235174447
$SILENCE,-1609.3032490376531,-12444.356077236662,6420.784463975962,7978.477535066311,-187500.02235174447,-187500.02235174447,-187500.02235174447,-187500.02235174447
$SILENCE,-1660.8687234960466,-12454.861397130657,6235.533205930377,7989.094613682582,-187500.02235174447,-187500.02235174447,-187500.02235174447,-187500.02235174447
$SILENCE,-1630.0456678921782,-12459.510559977361,6293.156003136159,7977.471706565822,-187500.02235174447,-187500.02235174447,-187500.02235174447,-187500.02235174447
$SILENCE,-1574.8368590875698,-12448.111170305154,6496.892153846283,7968.620415761521,-187500.02235174447,-187500.02235174447,-187500.02235174447,-187500.02235174447
$SILENCE,-1596.6521616759494,-12444.89251910359,6448.858255011828,7976.19765713187,-187500.02235174447,-187500.02235174447,-187500.02235174447,-187500.02235174447
$SILENCE,-1647.2341593783092,-12454.928452364024,6258.5331509748885,7990.502773583266,-187500.02235174447,-187500.02235174447,-187500.02235174447,-187500.02235174447
$SILENCE,-1633.1302086270105,-12460.359926266663,6264.322252788813,7984.691320024886,-187500.02235174447,-187500.02235174447,-187500.02235174447,-187500.02235174447
$SILENCE,-1579.3072079786311,-12448.871129616635,6476.596769880864,7968.642767505976,-187500.02235174447,-187500.02235174447,-187500.02235174447,-187500.02235174447
$SILENCE,-1597.4791762207958,-12442.590289424694,6475.099203002358,7976.734098998797,-187500.02235174447,-187500.02235174447,-187500.02235174447,-187500.02235174447
$SILENCE,-1649.983423946312,-12451.262766273352,6284.19295360958,7987.82056424863,-187500.02235174447,-187500.02235174447,-187500.02235174447,-187500.02235174447
$SILENCE,-1653.5373513147058,-12457.588309954204,6234.326211729791,7987.261770637247,-187500.02235174447,-187500.02235174447,-187500.02235174447,-187500.02235174447
$SILENCE,-1595.534574453184,-12448.491149960893,6448.612385822819,7971.257921607247,-187500.02235174447,-187500.02235174447,-187500.02235174447,-187500.02235174447
$SILENCE,-1593.5452691966618,-12439.572803923227,6496.042787556981,7974.186000130892,-187500.02235174447,-187500.02235174447,-187500.02235174447,-187500.02235174447
$SILENCE,-1646.2059791333652,-12446.501844704371,6317.1170731922475,7986.658273536954,-187500.02235174447,-187500.02235174447,-187500.02235174447,-187500.02235174447
$SILENCE,-1664.4450026088957,-12456.828350642723,6218.523528399888,7988.915799726939,-187500.02235174447,-187500.02235174447,-187500.02235174447,-187500.02235174447
$SILENCE,-1604.9893623577789,-12451.553338951271,6413.184870861158,7973.716613497331,-187500.02235174447,-187500.02235174447,-187500.02235174447,-187500.02235174447
$SILENCE,-1590.8183563731143,-12441.405646968562,6511.264325531045,7974.923607697918,-187500.02235174447,-187500.02235174447,-187500.02235174447,-187500.02235174447
$SILENCE,-1640.4839325528067,-12445.250147014875,6355.405611444189,7989.228724149314,-187500.02235174447,-187500.02235174447,-187500.02235174447,-187500.02235174447
$SILENCE,-1665.3614241315634,-12456.783647153814,6212.622667863688,7991.598009061577,-187500.02235174447,-187500.02235174447,-187500.02235174447,-187500.02235174447
talvez,-1611.6948856943711,-12455.576652953227,6369.800134873407,7976.063546665138,-187500.02235174447,-187500.02235174447,-187500.02235174447,-187500.02235174447
talvez,-1580.6259609014942,-12443.75258013637,6517.411055256254,7972.219046618825,-187500.02235174447,-187500.02235174447,-187500.02235174447,-187500.02235174447
talvez,-1624.5247870117173,-12445.65247841507,6392.665969451185,7983.886657224496,-187500.02235174447,-187500.02235174447,-187500.02235174447,-187500.02235174447
talvez,-1662.723918285837,-12457.007164598366,6220.289316211858,7990.547477072178,-187500.02235174447,-187500.02235174447,-187500.02235174447,-187500.02235174447
talvez,-1621.0379148766895,-12458.795304154792,6327.980020997527,7977.069375165627,-187500.02235174447,-187500.02235174447,-187500.02235174447,-187500.02235174447
talvez,-1581.5200306797065,-12444.914870848044,6502.256572515556,7971.4814390518,-187500.02235174447,-187500.02235174447,-187500.02235174447,-187500.02235174447
talvez,-1615.7181996963263,-12442.210309768952,6419.063379652904,7985.987721203294,-187500.02235174447,-187500.02235174447,-187500.02235174447,-187500.02235174447
talvez,-1662.3886421190075,-12453.140312807598,6237.768380375908,7995.196639918881,-187500.02235174447,-187500.02235174447,-187500.02235174447,-187500.02235174447
talvez,-1637.2876330956976,-12458.057696587766,6298.00633168296,7983.551381057666,-187500.02235174447,-187500.02235174447,-187500.02235174447,-187500.02235174447
talvez,-1588.0914435495667,-12444.713705147948,6500.803709125961,7973.2919303526805,-187500.02235174447,-187500.02235174447,-187500.02235174447,-187500.02235174447
talvez,-1613.8183014176252,-12440.51157719035,6448.165350933713,7983.886657224496,-187500.02235174447,-187500.02235174447,-187500.02235174447,-187500.02235174447
talvez,-1657.0242234497339,-12451.396876740084,6260.365994020223,7997.945904486884,-187500.02235174447,-187500.02235174447,-187500.02235174447,-187500.02235174447
talvez,-1639.3439935855858,-12457.387144254106,6265.439840011578,7989.653407293965,-187500.02235174447,-187500.02235174447,-187500.02235174447,-187500.02235174447
talvez,-1585.543344681662,-12447.775894138324,6480.910656560738,7974.789497231186,-187500.02235174447,-187500.02235174447,-187500.02235174447,-187500.02235174447
talvez,-1601.658952433938,-12443.774931880824,6478.161391992735,7975.705918753853,-187500.02235174447,-187500.02235174447,-187500.02235174447,-187500.02235174447
talvez,-1648.1729326454322,-12449.541681950293,6293.200706625069,7989.809869505152,-187500.02235174447,-187500.02235174447,-187500.02235174447,-187500.02235174447
talvez,-1646.116572155544,-12457.945937865488,6239.511816443422,7990.525125327722,-187500.02235174447,-187500.02235174447,-187500.02235174447,-187500.02235174447
talvez,-1587.5550016826394,-12449.720495905936,6443.94087123166,7973.716613497331,-187500.02235174447,-187500.02235174447,-187500.02235174447,-187500.02235174447
talvez,-1587.085615049078,-12441.964440579944,6493.539392177987,7975.392994331479,-187500.02235174447,-187500.02235174447,-187500.02235174447,-187500.02235174447
talvez,-1638.0028889182674,-12449.116998805643,6319.419302871144,7989.005206704761,-187500.02235174447,-187500.02235174447,-187500.02235174447,-187500.02235174447
talvez,-1656.7783542607253,-12459.689373933003,6218.545880144344,7990.368663116535,-187500.02235174447,-187500.02235174447,-187500.02235174447,-187500.02235174447
talvez,-1599.4461297328628,-12452.805036640768,6412.98370516106,7972.375508830012,-187500.02235174447,-187500.02235174447,-187500.02235174447,-187500.02235174447
talvez,-1584.8727923480026,-12442.724399891425,6514.86295638835,7971.280273351703,-187500.02235174447,-187500.02235174447,-187500.02235174447,-187500.02235174447
talvez,-1630.2021301033653,-12447.574728438227,6362.44641094761,7990.838049750096,-187500.02235174447,-187500.02235174447,-187500.02235174447,-187500.02235174447
talvez,-1659.1923426618985,-12458.348269265685,6218.188252233059,7995.889543996996,-187500.02235174447,-187500.02235174447,-187500.02235174447,-187500.02235174447
talvez,-1607.2692402922203,-12456.671888431536,6374.851629120306,7977.091726910082,-187500.02235174447,-187500.02235174447,-187500.02235174447,-187500.02235174447
talvez,-1577.8990480779469,-12443.640821414092,6517.880441889816,7971.704956496354,-187500.02235174447,-187500.02235174447,-187500.02235174447,-187500.02235174447
talvez,-1622.7142957108374,-12444.356077236662,6391.391920017233,7985.495982825278,-187500.02235174447,-187500.02235174447,-187500.02235174447,-187500.02235174447
talvez,-1662.9697874748454,-12456.694240175992,6222.524490657389,7991.508602083755,-187500.02235174447,-187500.02235174447,-187500.02235174447,-187500.02235174447
talvez,-1626.0000021457677,-12459.175283810531,6332.763294310963,7978.030500177205,-187500.02235174447,-187500.02235174447,-187500.02235174447,-187500.02235174447
talvez,-1578.9048765784355,-12444.289022003297,6527.1340640943135,7970.8332384625965,-187500.02235174447,-187500.02235174447,-187500.02235174447,-187500.02235174447
talvez,-1615.181757829399,-12443.976097580922,6442.286842141967,7986.904142725962,-187500.02235174447,-187500.02235174447,-187500.02235174447,-187500.02235174447
talvez,-1663.9979677197896,-12456.001336097877,6239.735333887975,7995.397805618979,-187500.02235174447,-187500.02235174447,-187500.02235174447,-187500.02235174447
talvez,-1638.6063860185607,-12456.962461109455,6287.165735622137,7981.584427545599,-187500.02235174447,-187500.02235174447,-187500.02235174447,-187500.02235174447
talvez,-1585.8339173595807,-12445.317202248241,6494.433461956199,7972.151991385459,-187500.02235174447,-187500.02235174447,-187500.02235174447,-187500.02235174447
talvez,-1603.9388303683795,-12440.17630102352,6482.408223439244,7984.356043858057,-187500.02235174447,-187500.02235174447,-187500.02235174447,-187500.02235174447
talvez,-1654.6996420263818,-12451.08395231771,6278.448555284567,7998.527049842722,-187500.02235174447,-187500.02235174447,-187500.02235174447,-187500.02235174447
talvez,-1644.440191321396,-12457.878882632123,6273.24059882648,7988.424061348923,-187500.02235174447,-187500.02235174447,-187500.02235174447,-187500.02235174447
talvez,-1593.992304085768,-12451.41922848454,6491.125403776813,7968.19573261687,-187500.02235174447,-187500.02235174447,-187500.02235174447,-187500.02235174447
talvez,-1583.1740597693993,-12434.677771887515,6523.222508814634,7988.5358200712,-187500.02235174447,-187500.02235174447,-187500.02235174447,-187500.02235174447
talvez,-1637.0864673955998,-12444.356077236662,6297.894572960684,7995.911895741451,-187500.02235174447,-187500.02235174447,-187500.02235174447,-187500.02235174447
talvez,-1676.6490550814933,-12477.61547298616,6183.654807049609,7956.483418522289,-187500.02235174447,-187500.02235174447,-187500.02235174447,-187500.02235174447
talvez,-1601.8154146451254,-12457.007164598366,6418.504586041521,7953.376526043002,-187500.02235174447,-187500.02235174447,-187500.02235174447,-187500.02235174447
talvez,-1588.0020365717455,-12444.669001659036,6489.1584502647465,7964.999433159761,-187500.02235174447,-187500.02235174447,-187500.02235174447,-187500.02235174447
talvez,-1643.0320314207115,-12456.381315753617,6312.467910345544,7975.504753053756,-187500.02235174447,-187500.02235174447,-187500.02235174447,-187500.02235174447
talvez,-1657.7841827612142,-12463.198597812487,6215.148414987138,7978.544590299677,-187500.02235174447,-187500.02235174447,-187500.02235174447,-187500.02235174447
talvez,-1598.730873910293,-12456.046039586789,6406.300533568923,7961.937244169384,-187500.02235174447,-187500.02235174447,-187500.02235174447,-187500.02235174447
talvez,-1582.145879524455,-12450.212234283952,6505.676389417218,7962.339575569579,-187500.02235174447,-187500.02235174447,-187500.02235174447,-187500.02235174447
talvez,-1629.7997987031697,-12453.252071529874,6356.769067855963,7976.599988532065,-187500.02235174447,-187500.02235174447,-187500.02235174447,-187500.02235174447
talvez,-1662.4780490968287,-12463.243301301396,6217.115368499204,7982.545552557177,-187500.02235174447,-187500.02235174447,-187500.02235174447,-187500.02235174447
talvez,-1613.5277287397062,-12460.449333244484,6369.934245340139,7965.111191882038,-187500.02235174447,-187500.02235174447,-187500.02235174447,-187500.02235174447
talvez,-1584.6492749034496,-12447.440617971495,6514.661790688252,7964.284177337191,-187500.02235174447,-187500.02235174447,-187500.02235174447,-187500.02235174447
talvez,-1627.0728858796224,-12449.564033694749,6390.78842291694,7975.750622242764,-187500.02235174447,-187500.02235174447,-187500.02235174447,-187500.02235174447
talvez,-1670.0552904671779,-12461.052830344777,6232.247499495447,7986.479459581311,-187500.02235174447,-187500.02235174447,-187500.02235174447,-187500.02235174447
talvez,-1623.474255022318,-12460.51638847785,6350.77880034194,7974.521276297722,-187500.02235174447,-187500.02235174447,-187500.02235174447,-187500.02235174447
talvez,-1573.1604782534216,-12447.79824588278,6522.440197758699,7967.525180283211,-187500.02235174447,-187500.02235174447,-187500.02235174447,-187500.02235174447
talvez,-1613.8406531620806,-12445.205443525963,6423.869004710795,7976.756450743253,-187500.02235174447,-187500.02235174447,-187500.02235174447,-187500.02235174447
talvez,-1663.1933049193985,-12447.708838904959,6245.882063613184,7989.698110782875,-187500.02235174447,-187500.02235174447,-187500.02235174447,-187500.02235174447
talvez,-1626.6705544794268,-12450.41339998405,6329.25407043148,7986.188886903392,-187500.02235174447,-187500.02235174447,-187500.02235174447,-187500.02235174447
talvez,-1565.694995605349,-12432.263783486342,6580.197105431213,7986.121831670026,-187500.02235174447,-187500.02235174447,-187500.02235174447,-187500.02235174447
talvez,-1589.9689900838125,-12414.494146644372,6520.987334369103,7997.610628320054,-187500.02235174447,-187500.02235174447,-187500.02235174447,-187500.02235174447
talvez,-1645.8483512220803,-12434.253088742864,6304.108357919259,7992.134450928504,-187500.02235174447,-187500.02235174447,-187500.02235174447,-187500.02235174447
talvez,-1665.7861072762141,-12480.990586398912,6249.838322381774,7968.285139594691,-187500.02235174447,-187500.02235174447,-187500.02235174447,-187500.02235174447
talvez,-1623.98834514479,-12484.008071900376,6414.347161572834,7940.971307870306,-187500.02235174447,-187500.02235174447,-187500.02235174447,-187500.02235174447
talvez,-1634.2254441053205,-12487.114964379665,6478.921351304216,7929.102531564538,-187500.02235174447,-187500.02235174447,-187500.02235174447,-187500.02235174447
talvez,-1633.4654847938402,-12445.764237137348,6377.578541943853,8008.361817403057,-187500.02235174447,-187500.02235174447,-187500.02235174447,-187500.02235174447
talvez,-1587.5102981937289,-12425.357094449651,6415.375341817778,8027.919593801451,-187500.02235174447,-187500.02235174447,-187500.02235174447,-187500.02235174447
talvez,-1620.4120660319409,-12502.694130265014,6446.108990443825,7934.735171167275,-187500.02235174447,-187500.02235174447,-187500.02235174447,-187500.02235174447
talvez,-1653.604406548072,-12491.115926637165,6395.482289252554,7929.393104242457,-187500.02235174447,-187500.02235174447,-187500.02235174447,-187500.02235174447
talvez,-1658.275921139231,-12447.015934826844,6245.926767102095,7971.034404162694,-187500.02235174447,-187500.02235174447,-187500.02235174447,-187500.02235174447
talvez,-1711.3389624761298,-12506.04689193331,6106.831861356719,7921.972325083295,-187500.02235174447,-187500.02235174447,-187500.02235174447,-187500.02235174447
talvez,-1685.6121046080716,-12558.215863491996,6297.447538071578,7874.899551260419,-187500.02235174447,-187500.02235174447,-187500.02235174447,-187500.02235174447
talvez,-1612.4995484947622,-12529.627982333659,6461.978729007093,7934.735171167275,-187500.02235174447,-187500.02235174447,-187500.02235174447,-187500.02235174447
talvez,-1668.4459648663958,-12503.319979109763,6287.679825744609,7974.454221064356,-187500.02235174447,-187500.02235174447,-187500.02235174447,-187500.02235174447
talvez,-1707.5391659187278,-12483.046946888799,6204.978371259973,7968.91098843944,-187500.02235174447,-187500.02235174447,-187500.02235174447,-187500.02235174447
talvez,-1650.1622379019545,-12497.32971159574,6394.744681685529,7945.128732338993,-187500.02235174447,-187500.02235174447,-187500.02235174447,-187500.02235174447
talvez,-1643.1214383985327,-12507.119775667165,6443.292670642456,7892.9374090358515,-187500.02235174447,-187500.02235174447,-187500.02235174447,-187500.02235174447
talvez,-1678.213677193365,-12512.19362165852,6302.163756151647,7899.2182492277925,-187500.02235174447,-187500.02235174447,-187500.02235174447,-187500.02235174447
talvez,-1703.1805757499428,-12514.652313548602,6125.540271465811,7955.902273166451,-187500.02235174447,-187500.02235174447,-187500.02235174447,-187500.02235174447
talvez,-1661.4498688518845,-12485.840914945713,6247.983127591983,7938.870243891507,-187500.02235174447,-187500.02235174447,-187500.02235174447,-187500.02235174447
talvez,-1650.7657350022478,-12488.679586491537,6433.457903082121,7883.03558624215,-187500.02235174447,-187500.02235174447,-187500.02235174447,-187500.02235174447
talvez,-1698.3302472031412,-12527.616325332681,6349.616509630265,7939.630203202988,-187500.02235174447,-187500.02235174447,-187500.02235174447,-187500.02235174447
talvez,-1702.2865059717305,-12499.296665107808,6224.357333702724,8011.0440267376935,-187500.02235174447,-187500.02235174447,-187500.02235174447,-187500.02235174447
talvez,-1689.4789563988397,-12502.180040142543,6292.776023480418,7952.683621964887,-187500.02235174447,-187500.02235174447,-187500.02235174447,-187500.02235174447
talvez,-1651.7492117582813,-12493.820487716257,6435.111932171814,7915.289153491159,-187500.02235174447,-187500.02235174447,-187500.02235174447,-187500.02235174447
talvez,-1672.178706190432,-12485.57269401225,6366.514428438477,7941.083066592582,-187500.02235174447,-187500.02235174447,-187500.02235174447,-187500.02235174447
talvez,-1700.855994326591,-12488.478420791438,6198.474013623478,7976.19765713187,-187500.02235174447,-187500.02235174447,-187500.02235174447,-187500.02235174447
talvez,-1700.8783460710463,-12493.66402550507,6207.7052840835195,7986.635921792498,-187500.02235174447,-187500.02235174447,-187500.02235174447,-187500.02235174447
talvez,-1653.3361856146082,-12481.705842221481,6427.6464495237415,7961.043174391172,-187500.02235174447,-187500.02235174447,-187500.02235174447,-187500.02235174447
talvez,-1657.694775783393,-12473.748621195391,6435.827187994384,7950.582557986088,-187500.02235174447,-187500.02235174447,-187500.02235174447,-187500.02235174447
talvez,-1695.0892442571217,-12478.442487531005,6269.507857502444,7999.018788220738,-187500.02235174447,-187500.02235174447,-187500.02235174447,-187500.02235174447
talvez,-1711.4730729428618,-12483.605740500181,6202.631438092165,7990.77099451673,-187500.02235174447,-187500.02235174447,-187500.02235174447,-187500.02235174447
talvez,-1657.1583339164656,-12475.246188073897,6406.166423102191,7976.018843176227,-187500.02235174447,-187500.02235174447,-187500.02235174447,-187500.02235174447
talvez,-1660.9804822183232,-12470.284100804818,6473.378118679299,7978.633997277499,-187500.02235174447,-187500.02235174447,-187500.02235174447,-187500.02235174447
talvez,-1727.5663289506829,-12477.995452641899,6301.001465439972,7998.325884142624,-187500.02235174447,-187500.02235174447,-187500.02235174447,-187500.02235174447
talvez,-1776.695463263448,-12493.149935382598,6163.717050995476,7975.370642587023,-187500.02235174447,-187500.02235174447,-187500.02235174447,-187500.02235174447
talvez,-1710.8472240981132,-12486.28794983482,6354.533893410432,7946.514540495222,-187500.02235174447,-187500.02235174447,-187500.02235174447,-187500.02235174447
talvez,-1660.6228543070383,-12459.890539633101,6495.752214879062,7983.149049657471,-187500.02235174447,-187500.02235174447,-187500.02235174447,-187500.02235174447
talvez,-1699.0678547701664,-12464.919682135545,6358.668966134664,8033.865157826563,-187500.02235174447,-187500.02235174447,-187500.02235174447,-187500.02235174447
talvez,-1755.1036781196212,-12481.839952688213,6190.069757708283,8007.735968558308,-187500.02235174447,-187500.02235174447,-187500.02235174447,-187500.02235174447
talvez,-1721.9336893479456,-12479.940054409512,6318.72639879303,7949.129694596493,-187500.02235174447,-187500.02235174447,-187500.02235174447,-187500.02235174447
talvez,-1670.5917323341052,-12454.973155852933,6497.406243968755,7951.275462064203,-187500.02235174447,-187500.02235174447,-187500.02235174447,-187500.02235174447
talvez,-1733.8695208870795,-12482.242284088408,6380.931303612149,7968.687470994887,-187500.02235174447,-187500.02235174447,-187500.02235174447,-187500.02235174447
talvez,-1794.1521756830425,-12503.185868643031,6196.596467089233,7986.971197959328,-187500.02235174447,-187500.02235174447,-187500.02235174447,-187500.02235174447
talvez,-1714.6023171666047,-12459.510559977361,6327.197709941592,7980.980930445306,-187500.02235174447,-187500.02235174447,-187500.02235174447,-187500.02235174447
talvez,-1647.1894558893987,-12450.860434873157,6534.666601975751,7954.00237488775,-187500.02235174447,-187500.02235174447,-187500.02235174447,-187500.02235174447
talvez,-1713.52943343275,-12453.855568630168,6412.402559805222,7974.856552464552,-187500.02235174447,-187500.02235174447,-187500.02235174447,-187500.02235174447
talvez,-1790.8664692481125,-12472.139295594608,6201.111519469205,7997.431814364411,-187500.02235174447,-187500.02235174447,-187500.02235174447,-187500.02235174447
talvez,-1729.2427097848308,-12458.437676243506,6275.207552338547,8007.4006923914785,-187500.02235174447,-187500.02235174447,-187500.02235174447,-187500.02235174447
talvez,-1655.3478426155857,-12433.873109087124,6509.342075507889,7993.29674164018,-187500.02235174447,-187500.02235174447,-187500.02235174447,-187500.02235174447
talvez,-1681.3205696726525,-12431.928507319511,6472.819325067917,7993.632017807009,-187500.02235174447,-187500.02235174447,-187500.02235174447,-187500.02235174447
talvez,-1755.1036781196212,-12454.637879686104,6254.442781739567,7992.894410239985,-187500.02235174447,-187500.02235174447,-187500.02235174447,-187500.02235174447
talvez,-1751.3932885400402,-12446.926527849022,6252.81110439433,7973.358985586046,-187500.02235174447,-187500.02235174447,-187500.02235174447,-187500.02235174447
talvez,-1655.1690286599433,-12409.621466353115,6501.362502737344,7996.113061441549,-187500.02235174447,-187500.02235174447,-187500.02235174447,-187500.02235174447
talvez,-1666.5460665876947,-12399.138498203576,6487.9291043197045,8015.357913417568,-187500.02235174447,-187500.02235174447,-187500.02235174447,-187500.02235174447
talvez,-1692.3623314335744,-12398.333835403186,6328.427055886634,8052.3053470021905,-187500.02235174447,-187500.02235174447,-187500.02235174447,-187500.02235174447
talvez,-1685.4779941413397,-12403.184163949987,6277.822706439818,8050.092524301115,-187500.02235174447,-187500.02235174447,-187500.02235174447,-187500.02235174447
talvez,-1628.7492667137703,-12391.225980666397,6484.621046140319,8033.619288637554,-187500.02235174447,-187500.02235174447,-187500.02235174447,-187500.02235174447
talvez,-1622.0437433771783,-12383.671091040504,6552.816218473461,8032.0546665256825,-187500.02235174447,-187500.02235174447,-187500.02235174447,-187500.02235174447
talvez,-1693.3458081896079,-12399.764347048325,6366.425021460655,8023.404541421479,-187500.02235174447,-187500.02235174447,-187500.02235174447,-187500.02235174447
talvez,-1684.4498138963957,-12376.429125836985,6284.684691987597,8072.466620500877,-187500.02235174447,-187500.02235174447,-187500.02235174447,-187500.02235174447
talvez,-1634.2924993386864,-12387.292073642264,6468.818362810417,8051.12070454606,-187500.02235174447,-187500.02235174447,-187500.02235174447,-187500.02235174447
talvez,-1641.2885953531977,-12395.986902235378,6563.63446278983,8010.954619759873,-187500.02235174447,-187500.02235174447,-187500.02235174447,-187500.02235174447
talvez,-1679.5100783717726,-12353.786808703759,6421.678533754174,8073.874780401562,-187500.02235174447,-187500.02235174447,-187500.02235174447,-187500.02235174447
talvez,-1691.3788546775406,-12353.49623602584,6282.471869286522,8091.666768987986,-187500.02235174447,-187500.02235174447,-187500.02235174447,-187500.02235174447
talvez,-1654.2079036483651,-12349.808198190714,6417.7222749855855,8077.987501381338,-187500.02235174447,-187500.02235174447,-187500.02235174447,-187500.02235174447
talvez,-1633.890167938491,-12349.048238879233,6571.368166371366,8068.242140798824,-187500.02235174447,-187500.02235174447,-187500.02235174447,-187500.02235174447
talvez,-1652.7103367698596,-12343.72852369887,6470.427688411199,8077.607521725598,-187500.02235174447,-187500.02235174447,-187500.02235174447,-187500.02235174447
talvez,-1685.9250290304458,-12358.391268061552,6303.974247452527,8076.579341480654,-187500.02235174447,-187500.02235174447,-187500.02235174447,-187500.02235174447
talvez,-1659.5499705731834,-12361.20758786292,6397.628056720264,8058.049745327205,-187500.02235174447,-187500.02235174447,-187500.02235174447,-187500.02235174447
talvez,-1613.5277287397062,-12346.58954698915,6588.176678201757,8070.0302803552495,-187500.02235174447,-187500.02235174447,-187500.02235174447,-187500.02235174447
talvez,-1641.534464542206,-12343.214433576399,6504.37998823881,8069.627948955053,-187500.02235174447,-187500.02235174447,-187500.02235174447,-187500.02235174447
talvez,-1689.5460116322056,-12355.619651749093,6314.367808624245,8075.618216469075,-187500.02235174447,-187500.02235174447,-187500.02235174447,-187500.02235174447
talvez,-1647.6811942674153,-12358.838302950657,6381.490097223533,8095.399510312022,-187500.02235174447,-187500.02235174447,-187500.02235174447,-187500.02235174447
talvez,-1597.5238797097063,-12344.555538243716,6573.692747794717,8090.057443387204,-187500.02235174447,-187500.02235174447,-187500.02235174447,-187500.02235174447
talvez,-1619.27212706472,-12340.375762030573,6584.332178155444,8085.654149729508,-187500.02235174447,-187500.02235174447,-187500.02235174447,-187500.02235174447
talvez,-1684.4498138963957,-12353.272718581286,6335.870186790251,8071.349033278112,-187500.02235174447,-187500.02235174447,-187500.02235174447,-187500.02235174447
talvez,-1672.0222439792449,-12359.44180005095,6289.6467792566755,8058.899111616506,-187500.02235174447,-187500.02235174447,-187500.02235174447,-187500.02235174447
talvez,-1590.3489697395528,-12334.810177661202,6551.273948106044,8081.116745605082,-187500.02235174447,-187500.02235174447,-187500.02235174447,-187500.02235174447
talvez,-1598.2391355322761,-12321.645000177026,6604.381692931855,8101.479184803866,-187500.02235174447,-187500.02235174447,-187500.02235174447,-187500.02235174447
talvez,-1650.8774937245244,-12338.408808518507,6424.673667511185,8113.102091920626,-187500.02235174447,-187500.02235174447,-187500.02235174447,-187500.02235174447
talvez,-1639.4110488189517,-12346.701305711425,6400.734949199552,8113.929106465472,-187500.02235174447,-187500.02235174447,-187500.02235174447,-187500.02235174447
talvez,-1626.8046649461587,-12350.366991802097,6478.742537348573,8063.9282541189505,-187500.02235174447,-187500.02235174447,-187500.02235174447,-187500.02235174447
talvez,-1616.858138663547,-12315.453566962906,6528.564575739453,8077.875742659062,-187500.02235174447,-187500.02235174447,-187500.02235174447,-187500.02235174447
talvez,-1676.179668447932,-12336.866538151091,6346.286099706424,8067.482181487344,-187500.02235174447,-187500.02235174447,-187500.02235174447,-187500.02235174447
talvez,-1701.3253809601524,-12370.550617045239,6252.542883460866,8060.866065128574,-187500.02235174447,-187500.02235174447,-187500.02235174447,-187500.02235174447
talvez,-1637.153522628966,-12379.178390404986,6486.9903310525815,8061.73778316233,-187500.02235174447,-187500.02235174447,-187500.02235174447,-187500.02235174447
talvez,-1603.9388303683795,-12351.618689491594,6599.1066812404015,8074.031242612749,-187500.02235174447,-187500.02235174447,-187500.02235174447,-187500.02235174447
talvez,-1639.1875313743988,-12347.751837700825,6486.0515577854585,8105.547202294732,-187500.02235174447,-187500.02235174447,-187500.02235174447,-187500.02235174447
talvez,-1663.1486014304878,-12380.273625883297,6330.639878587709,8096.382987068056,-187500.02235174447,-187500.02235174447,-187500.02235174447,-187500.02235174447
talvez,-1618.9592026423459,-12366.527303043284,6377.511486710488,8058.675594171953,-187500.02235174447,-187500.02235174447,-187500.02235174447,-187500.02235174447
talvez,-1626.0223538902228,-12355.262023837808,6516.181709311213,8037.642602639509,-187500.02235174447,-187500.02235174447,-187500.02235174447,-187500.02235174447
talvez,-1644.6860605104043,-12337.023000362278,6457.955415005138,8068.040975098726,-187500.02235174447,-187500.02235174447,-187500.02235174447,-187500.02235174447
talvez,-1694.3963401790072,-12374.238654880364,6315.016009213449,8073.673614701464,-187500.02235174447,-187500.02235174447,-187500.02235174447,-187500.02235174447
talvez,-1653.403240847974,-12382.084117184177,6371.297701751912,8057.848579627107,-187500.02235174447,-187500.02235174447,-187500.02235174447,-187500.02235174447
talvez,-1595.8922023644689,-12360.537035529262,6562.896855222804,8052.081829557637,-187500.02235174447,-187500.02235174447,-187500.02235174447,-187500.02235174447
talvez,-1655.4596013378623,-12393.081175456187,6453.127438202791,8034.06632352666,-187500.02235174447,-187500.02235174447,-187500.02235174447,-187500.02235174447
talvez,-1682.8628400400687,-12386.755631775337,6311.305619633868,8066.990443109327,-187500.02235174447,-187500.02235174447,-187500.02235174447,-187500.02235174447
talvez,-1668.7141857998595,-12390.331910888186,6319.955744738072,8048.147922533503,-187500.02235174447,-187500.02235174447,-187500.02235174447,-187500.02235174447
talvez,-1624.6141939895385,-12381.54767531725,6515.95819186666,8030.2888787137135,-187500.02235174447,-187500.02235174447,-187500.02235174447,-187500.02235174447
talvez,-1643.0096796762562,-12393.103527200643,6506.168127795235,8032.367590948056,-187500.02235174447,-187500.02235174447,-187500.02235174447,-187500.02235174447
talvez,-1704.275811228253,-12418.964495535434,6274.112316860237,8032.836977581618,-187500.02235174447,-187500.02235174447,-187500.02235174447,-187500.02235174447
talvez,-1686.1932499639095,-12415.0305885113,6282.985959408994,8031.562928147666,-187500.02235174447,-187500.02235174447,-187500.02235174447,-187500.02235174447
talvez,-1620.8367491765916,-12389.057861454232,6512.516023220543,8024.700942599887,-187500.02235174447,-187500.02235174447,-187500.02235174447,-187500.02235174447
talvez,-1609.5267664822063,-12359.799427962236,6565.690823279718,8046.158617276981,-187500.02235174447,-187500.02235174447,-187500.02235174447,-187500.02235174447
talvez,-1707.6062211520937,-12419.858565313645,6313.138462679203,8011.602820349076,-187500.02235174447,-187500.02235174447,-187500.02235174447,-187500.02235174447
talvez,-1695.0892442571217,-12416.550507134261,6243.132799045182,8021.504643142777,-187500.02235174447,-187500.02235174447,-187500.02235174447,-187500.02235174447
talvez,-1664.7355752868148,-12422.496071159372,6409.541536514943,7970.900293695962,-187500.02235174447,-187500.02235174447,-187500.02235174447,-187500.02235174447
talvez,-1655.079621682122,-12421.289076958785,6515.667619188741,7977.024671676716,-187500.02235174447,-187500.02235174447,-187500.02235174447,-187500.02235174447
talvez,-1702.2865059717305,-12432.755521864357,6358.423096945656,8020.565869875654,-187500.02235174447,-187500.02235174447,-187500.02235174447,-187500.02235174447
talvez,-1735.6129569545935,-12428.575745651216,6242.9763368339945,8015.022637250739,-187500.02235174447,-187500.02235174447,-187500.02235174447,-187500.02235174447
talvez,-1659.4829153398175,-12421.825518825714,6426.640621023253,8005.9925324907945,-187500.02235174447,-187500.02235174447,-187500.02235174447,-187500.02235174447
talvez,-1641.4450575643848,-12431.50382417486,6523.133101836813,7979.617474033532,-187500.02235174447,-187500.02235174447,-187500.02235174447,-187500.02235174447
talvez,-1685.5897528636162,-12422.74194034838,6388.106213582303,7994.101404440571,-187500.02235174447,-187500.02235174447,-187500.02235174447,-187500.02235174447
talvez,-1709.0590845416887,-12428.486338673394,6235.801426863841,7995.844840508085,-187500.02235174447,-187500.02235174447,-187500.02235174447,-187500.02235174447
talvez,-1673.340996902108,-12430.341533463185,6343.626242116242,7968.732174483797,-187500.02235174447,-187500.02235174447,-187500.02235174447,-187500.02235174447
talvez,-1655.8395809936026,-12445.227795270419,6493.226467755612,7952.705973709342,-187500.02235174447,-187500.02235174447,-187500.02235174447,-187500.02235174447
talvez,-1703.4711484278619,-12451.530987206816,6381.043062334426,7953.95767139884,-187500.02235174447,-187500.02235174447,-187500.02235174447,-187500.02235174447
talvez,-1735.9929366103336,-12449.876958117124,6244.384496734679,7982.120869412526,-187500.02235174447,-187500.02235174447,-187500.02235174447,-187500.02235174447
talvez,-1674.8609155250688,-12423.41249268204,6361.619396402764,7996.1354131860035,-187500.02235174447,-187500.02235174447,-187500.02235174447,-187500.02235174447
talvez,-1642.8755692095244,-12429.93920206299,6517.656924445263,7964.954729670851,-187500.02235174447,-187500.02235174447,-187500.02235174447,-187500.02235174447
talvez,-1709.5284711752502,-12470.798190927291,6413.341333072345,7940.501921236744,-187500.02235174447,-187500.02235174447,-187500.02235174447,-187500.02235174447
talvez,-1735.2553290433084,-12447.820597627235,6236.606089664232,7976.845857721074,-187500.02235174447,-187500.02235174447,-187500.02235174447,-187500.02235174447
talvez,-1719.497349202317,-12453.542644207793,6274.469944771522,7958.964462156829,-187500.02235174447,-187500.02235174447,-187500.02235174447,-187500.02235174447
talvez,-1649.759906501759,-12426.966420050434,6493.561743922442,7964.507694781744,-187500.02235174447,-187500.02235174447,-187500.02235174447,-187500.02235174447
talvez,-1686.1932499639095,-12453.65440293007,6451.048725968448,7950.068467863616,-187500.02235174447,-187500.02235174447,-187500.02235174447,-187500.02235174447
talvez,-1739.7033261899146,-12469.881769404623,6268.457325513044,7959.612662746033,-187500.02235174447,-187500.02235174447,-187500.02235174447,-187500.02235174447
talvez,-1722.2242620258644,-12463.198597812487,6238.975374576495,7954.941148154873,-187500.02235174447,-187500.02235174447,-187500.02235174447,-187500.02235174447
talvez,-1657.2924443831976,-12450.055772072767,6468.840714554873,7951.498979508756,-187500.02235174447,-187500.02235174447,-187500.02235174447,-187500.02235174447
talvez,-1654.9678629598454,-12435.750655621368,6518.238069801101,7965.111191882038,-187500.02235174447,-187500.02235174447,-187500.02235174447,-187500.02235174447
talvez,-1722.492482959328,-12456.023687842333,6295.793508981885,7959.567959257121,-187500.02235174447,-187500.02235174447,-187500.02235174447,-187500.02235174447
talvez,-1745.1348000925543,-12468.18303682602,6235.667316397109,7958.137447611982,-187500.02235174447,-187500.02235174447,-187500.02235174447,-187500.02235174447
talvez,-1683.8463167961022,-12453.095609318687,6417.69992324113,7968.754526228253,-187500.02235174447,-187500.02235174447,-187500.02235174447,-187500.02235174447
talvez,-1673.8103835356694,-12445.920699348533,6486.1633165077355,7947.743886440264,-187500.02235174447,-187500.02235174447,-187500.02235174447,-187500.02235174447
talvez,-1712.858881099091,-12447.552376693771,6328.0917797198035,7957.779819700697,-187500.02235174447,-187500.02235174447,-187500.02235174447,-187500.02235174447
talvez,-1718.9609073353897,-12434.74482712088,6224.84907208074,7974.633035019999,-187500.02235174447,-187500.02235174447,-187500.02235174447,-187500.02235174447
talvez,-1680.7170725723593,-12447.46296971595,6390.497850239021,7939.540796225167,-187500.02235174447,-187500.02235174447,-187500.02235174447,-187500.02235174447
talvez,-1681.499383628295,-12464.249129801885,6486.1633165077355,7922.66522916141,-187500.02235174447,-187500.02235174447,-187500.02235174447,-187500.02235174447
talvez,-1720.1231980470657,-12454.883748875112,6359.250111490502,7958.428020289901,-187500.02235174447,-187500.02235174447,-187500.02235174447,-187500.02235174447
talvez,-1744.7101169479033,-12453.430885485517,6237.3436972312575,7995.978950974817,-187500.02235174447,-187500.02235174447,-187500.02235174447,-187500.02235174447
$SILENCE,-1703.5382036612277,-12454.257900030363,6361.954672569594,7971.950825685361,-187500.02235174447,-187500.02235174447,-187500.02235174447,-187500.02235174447
$SILENCE,-1665.0708514536443,-12442.813806869246,6525.10005534888,7939.8984241364515,-187500.02235174447,-187500.02235174447,-187500.02235174447,-187500.02235174447
$SILENCE,-1710.7131136313812,-12446.635955171103,6433.055571681925,7948.325031796102,-187500.02235174447,-187500.02235174447,-187500.02235174447,-187500.02235174447
$SILENCE,-1751.2815298177636,-12445.56307143725,6231.5322436728775,7962.540741269678,-187500.02235174447,-187500.02235174447,-187500.02235174447,-187500.02235174447
$SILENCE,-1725.4429132274288,-12447.977059838422,6284.952912921061,7947.5874242290765,-187500.02235174447,-187500.02235174447,-187500.02235174447,-187500.02235174447
$SILENCE,-1688.271962198253,-12443.618469669638,6476.28384545849,7937.596194457555,-187500.02235174447,-187500.02235174447,-187500.02235174447,-187500.02235174447
$SILENCE,-1718.9832590798449,-12447.194748782487,6419.063379652904,7950.2249300748035,-187500.02235174447,-187500.02235174447,-187500.02235174447,-187500.02235174447
$SILENCE,-1752.0861926181547,-12446.971231337933,6247.446685725055,7976.264712365236,-187500.02235174447,-187500.02235174447,-187500.02235174447,-187500.02235174447
$SILENCE,-1732.5731197086716,-12450.502806961871,6283.500049531466,7972.330805341102,-187500.02235174447,-187500.02235174447,-187500.02235174447,-187500.02235174447
$SILENCE,-1672.5810375906276,-12429.201594495964,6515.95819186666,7971.727308240808,-187500.02235174447,-187500.02235174447,-187500.02235174447,-187500.02235174447
$SILENCE,-1716.3904567230293,-12437.784664366802,6454.245025425556,7947.967403884817,-187500.02235174447,-187500.02235174447,-187500.02235174447,-187500.02235174447
$SILENCE,-1760.2222275998865,-12443.149083036076,6258.108467830238,7969.112154139538,-187500.02235174447,-187500.02235174447,-187500.02235174447,-187500.02235174447
$SILENCE,-1750.8121431842021,-12451.307469762263,6229.922918072095,7959.702069723853,-187500.02235174447,-187500.02235174447,-187500.02235174447,-187500.02235174447
$SILENCE,-1681.0523487391888,-12422.451367670461,6473.422822168211,7957.913930167429,-187500.02235174447,-187500.02235174447,-187500.02235174447,-187500.02235174447
$SILENCE,-1696.2068314798871,-12410.671998342516,6490.074871787414,7947.967403884817,-187500.02235174447,-187500.02235174447,-187500.02235174447,-187500.02235174447
$SILENCE,-1776.4495940744393,-12454.74963840838,6299.392139839189,7953.8682644210185,-187500.02235174447,-187500.02235174447,-187500.02235174447,-187500.02235174447
$SILENCE,-1771.3533963386294,-12456.671888431536,6225.944307559051,7973.962482686339,-187500.02235174447,-187500.02235174447,-187500.02235174447,-187500.02235174447
$SILENCE,-1701.9959332938115,-12444.46783595894,6419.041027908448,7961.758430213742,-187500.02235174447,-187500.02235174447,-187500.02235174447,-187500.02235174447
$SILENCE,-1697.7491018473033,-12433.090798031188,6500.155508536757,7968.978043672806,-187500.02235174447,-187500.02235174447,-187500.02235174447,-187500.02235174447
$SILENCE,-1747.884064660557,-12426.69819911697,6339.357058925279,7983.283160124202,-187500.02235174447,-187500.02235174447,-187500.02235174447,-187500.02235174447
$SILENCE,-1773.722681250892,-12435.41537945454,6213.740255086453,7974.186000130892,-187500.02235174447,-187500.02235174447,-187500.02235174447,-187500.02235174447
$SILENCE,-1718.111541046088,-12434.566013165238,6393.0683008513815,7955.678755721898,-187500.02235174447,-187500.02235174447,-187500.02235174447,-187500.02235174447
$SILENCE,-1676.8502207815911,-12418.495108901872,6536.834721187916,7969.000395417261,-187500.02235174447,-187500.02235174447,-187500.02235174447,-187500.02235174447
$SILENCE,-1744.5313029922609,-12432.062617786243,6368.503733694999,7971.168514629426,-187500.02235174447,-187500.02235174447,-187500.02235174447,-187500.02235174447
$SILENCE,-1787.4690040909059,-12437.494091688883,6206.386531160657,7976.1753053874145,-187500.02235174447,-187500.02235174447,-187500.02235174447,-187500.02235174447
$SILENCE,-1741.4467622574286,-12431.280306730308,6340.765218825963,7965.468819793323,-187500.02235174447,-187500.02235174447,-187500.02235174447,-187500.02235174447
$SILENCE,-1705.1251775175547,-12427.815786339735,6504.268229516534,7958.405668545445,-187500.02235174447,-187500.02235174447,-187500.02235174447,-187500.02235174447
$SILENCE,-1732.4837127308504,-12435.594193410183,6388.665007193686,7966.2511308492585,-187500.02235174447,-187500.02235174447,-187500.02235174447,-187500.02235174447
$SILENCE,-1767.6206550145932,-12440.355114979162,6214.164938231103,7976.488229809789,-187500.02235174447,-187500.02235174447,-187500.02235174447,-187500.02235174447
$SILENCE,-1749.7169077058923,-12444.333725492208,6297.067558415837,7961.356098813546,-187500.02235174447,-187500.02235174447,-187500.02235174447,-187500.02235174447
$SILENCE,-1711.5177764317723,-12433.02374279782,6497.272133502023,7960.260863335236,-187500.02235174447,-187500.02235174447,-187500.02235174447,-187500.02235174447
$SILENCE,-1725.889948116535,-12421.423187425517,6455.384964392778,7987.708805526353,-187500.02235174447,-187500.02235174447,-187500.02235174447,-187500.02235174447
$SILENCE,-1773.9014952065345,-12428.396931695574,6258.086116085782,7997.521221342233,-187500.02235174447,-187500.02235174447,-187500.02235174447,-187500.02235174447
$SILENCE,-1770.5040300493276,-12432.979039308912,6272.994729637472,7985.540686314188,-187500.02235174447,-187500.02235174447,-187500.02235174447,-187500.02235174447
$SILENCE,-1713.9094130884903,-12423.188975237486,6487.61617989733,7970.542665784677,-187500.02235174447,-187500.02235174447,-187500.02235174447,-187500.02235174447
$SILENCE,-1723.4089044819957,-12420.395007180574,6469.578322121897,7985.473631080822,-187500.02235174447,-187500.02235174447,-187500.02235174447,-187500.02235174447
$SILENCE,-1773.9909021843557,-12424.351265949163,6278.761479706941,7994.034349207205,-187500.02235174447,-187500.02235174447,-187500.02235174447,-187500.02235174447
$SILENCE,-1784.4738703338946,-12434.74482712088,6236.829607108785,7979.952750200361,-187500.02235174447,-187500.02235174447,-187500.02235174447,-187500.02235174447
$SILENCE,-1720.9725643363672,-12430.967382307934,6453.105086458336,7960.104401124049,-187500.02235174447,-187500.02235174447,-187500.02235174447,-187500.02235174447
$SILENCE,-1706.3545234625965,-12415.209402466942,6493.517040433531,7970.699127995865,-187500.02235174447,-187500.02235174447,-187500.02235174447,-187500.02235174447
$SILENCE,-1767.5088962923166,-12422.786643837291,6303.706026519064,7984.959540958351,-187500.02235174447,-187500.02235174447,-187500.02235174447,-187500.02235174447
$SILENCE,-1789.078329691688,-12430.386236952096,6228.5371099158665,8010.842861037596,-187500.02235174447,-187500.02235174447,-187500.02235174447,-187500.02235174447
$SILENCE,-1730.561462707694,-12423.971286293423,6438.50939732902,7987.529991570711,-187500.02235174447,-187500.02235174447,-187500.02235174447,-187500.02235174447
$SILENCE,-1720.1679015359762,-12412.191916965476,6513.119520320835,7975.460049564845,-187500.02235174447,-187500.02235174447,-187500.02235174447,-187500.02235174447
$SILENCE,-1745.1795035814648,-12406.246352940363,6361.775858613952,8006.126642957526,-187500.02235174447,-187500.02235174447,-187500.02235174447,-187500.02235174447
$SILENCE,-1758.8364194436574,-12423.188975237486,6231.129912272681,7997.521221342233,-187500.02235174447,-187500.02235174447,-187500.02235174447,-187500.02235174447
$SILENCE,-1709.5508229197053,-12419.009199024344,6401.003170133015,7988.58052356011,-187500.02235174447,-187500.02235174447,-187500.02235174447,-187500.02235174447
$SILENCE,-1692.6082006225827,-12406.335759918185,6526.709380949662,7995.174288174426,-187500.02235174447,-187500.02235174447,-187500.02235174447,-187500.02235174447
$SILENCE,-1735.6353086990487,-12405.26287618433,6389.581428716354,7997.945904486884,-187500.02235174447,-187500.02235174447,-187500.02235174447,-187500.02235174447
$SILENCE,-1778.8412307311573,-12409.822632053212,6225.743141858953,8004.003227234272,-187500.02235174447,-187500.02235174447,-187500.02235174447,-187500.02235174447
$SILENCE,-1741.4691140018838,-12408.213306452431,6355.606777144287,7987.1500119149705,-187500.02235174447,-187500.02235174447,-187500.02235174447,-187500.02235174447
$SILENCE,-1693.949305289901,-12390.868352755113,6542.512064279565,7997.029482964216,-187500.02235174447,-187500.02235174447,-187500.02235174447,-187500.02235174447
$SILENCE,-1732.7966371532248,-12387.113259686621,6440.409295607722,8025.259736211269,-187500.02235174447,-187500.02235174447,-187500.02235174447,-187500.02235174447
$SILENCE,-1780.6293702875819,-12394.466983612418,6253.861636383729,8028.724256601841,-187500.02235174447,-187500.02235174447,-187500.02235174447,-187500.02235174447
$SILENCE,-1753.5390560077497,-12399.563181348227,6327.711800064064,8016.654314595976,-187500.02235174447,-187500.02235174447,-187500.02235174447,-187500.02235174447
$SILENCE,-1667.015453221256,-12389.326082387697,6529.436293773209,8010.954619759873,-187500.02235174447,-187500.02235174447,-187500.02235174447,-187500.02235174447
$SILENCE,-1683.108709229077,-12382.799373006746,6476.417955925222,8022.577526876632,-187500.02235174447,-187500.02235174447,-187500.02235174447,-187500.02235174447
$SILENCE,-1736.1046953326102,-12392.678844055992,6278.537962262388,8041.844730597107,-187500.02235174447,-187500.02235174447,-187500.02235174447,-187500.02235174447
$SILENCE,-1717.5527474347052,-12393.952893489944,6309.696294033086,8036.100332272093,-187500.02235174447,-187500.02235174447,-187500.02235174447,-187500.02235174447
$SILENCE,-1677.2525521817868,-12380.54184681676,6505.676389417218,8018.733026830319,-187500.02235174447,-187500.02235174447,-187500.02235174447,-187500.02235174447
$SILENCE,-1699.4254826814513,-12374.529227558283,6496.825098612917,8032.3452392036015,-187500.02235174447,-187500.02235174447,-187500.02235174447,-187500.02235174447
$SILENCE,-1747.7723059382804,-12382.821724751202,6304.510689319455,8049.064344056171,-187500.02235174447,-187500.02235174447,-187500.02235174447,-187500.02235174447
$SILENCE,-1723.5206632042723,-12388.364957376118,6275.945159905572,8038.3355067176235,-187500.02235174447,-187500.02235174447,-187500.02235174447,-187500.02235174447
$SILENCE,-1666.0319764652224,-12375.222131636398,6496.109842790347,8027.092579256604,-187500.02235174447,-187500.02235174447,-187500.02235174447,-187500.02235174447
$SILENCE,-1680.0018167497894,-12367.197855376942,6537.013535143559,8037.486140428322,-187500.02235174447,-187500.02235174447,-187500.02235174447,-187500.02235174447
$SILENCE,-1735.0318115987554,-12375.020965936299,6344.453256661089,8042.627041653042,-187500.02235174447,-187500.02235174447,-187500.02235174447,-187500.02235174447
$SILENCE,-1755.3495473086296,-12390.823649266202,6245.479732212989,8032.747570603797,-187500.02235174447,-187500.02235174447,-187500.02235174447,-187500.02235174447
$SILENCE,-1682.5722673621497,-12384.363995118618,6456.591958593364,8022.39871292099,-187500.02235174447,-187500.02235174447,-187500.02235174447,-187500.02235174447
$SILENCE,-1642.6073482760607,-12369.20951237792,6542.087381134914,8025.572660633643,-187500.02235174447,-187500.02235174447,-187500.02235174447,-187500.02235174447
$SILENCE,-1693.010532022778,-12371.467038567906,6377.600893688309,8041.911785830473,-187500.02235174447,-187500.02235174447,-187500.02235174447,-187500.02235174447
$SILENCE,-1733.176616808965,-12380.02775669429,6255.8956451291615,8049.35491673409,-187500.02235174447,-187500.02235174447,-187500.02235174447,-187500.02235174447
$SILENCE,-1693.725787845348,-12380.608902050126,6422.393789576744,8029.484215913322,-187500.02235174447,-187500.02235174447,-187500.02235174447,-187500.02235174447
$SILENCE,-1667.5295433437282,-12368.628367022082,6550.379878327833,8035.027448538238,-187500.02235174447,-187500.02235174447,-187500.02235174447,-187500.02235174447
$SILENCE,-1700.5654216486719,-12369.097753655644,6414.168347617191,8049.3102132451795,-187500.02235174447,-187500.02235174447,-187500.02235174447,-187500.02235174447
$SILENCE,-1731.567291208183,-12378.753707260335,6254.375726506201,8046.337431232623,-187500.02235174447,-187500.02235174447,-187500.02235174447,-187500.02235174447
$SILENCE,-1689.7024738433927,-12378.932521215978,6388.128565326759,8031.853500825585,-187500.02235174447,-187500.02235174447,-187500.02235174447,-187500.02235174447
$SILENCE,-1653.4479443368846,-12366.124971643088,6556.8395324754165,8029.595974635598,-187500.02235174447,-187500.02235174447,-187500.02235174447,-187500.02235174447
$SILENCE,-1688.3166656871638,-12366.773172232291,6450.355821890334,8042.470579441855,-187500.02235174447,-187500.02235174447,-187500.02235174447,-187500.02235174447
$SILENCE,-1735.2553290433084,-12374.97626244739,6262.534113232388,8048.907881844984,-187500.02235174447,-187500.02235174447,-187500.02235174447,-187500.02235174447
$SILENCE,-1717.6645061569818,-12378.127858415588,6338.977079269538,8031.048838025194,-187500.02235174447,-187500.02235174447,-187500.02235174447,-187500.02235174447
$SILENCE,-1665.1379066870102,-12371.489390312361,6531.492654263098,8021.951678031884,-187500.02235174447,-187500.02235174447,-187500.02235174447,-187500.02235174447
$SILENCE,-1685.9250290304458,-12367.287262354763,6474.696871602163,8033.976916548839,-187500.02235174447,-187500.02235174447,-187500.02235174447,-187500.02235174447
$SILENCE,-1739.1892360674426,-12378.820762493702,6286.919866433128,8048.930233589439,-187500.02235174447,-187500.02235174447,-187500.02235174447,-187500.02235174447
$SILENCE,-1717.0610090566886,-12384.83338175218,6308.645762043687,8041.285936985724,-187500.02235174447,-187500.02235174447,-187500.02235174447,-187500.02235174447
$SILENCE,-1660.891075240502,-12366.460247809917,6529.413942028755,8030.06536126916,-187500.02235174447,-187500.02235174447,-187500.02235174447,-187500.02235174447
$SILENCE,-1681.9017150284906,-12361.878140196579,6517.120482578335,8038.491968928811,-187500.02235174447,-187500.02235174447,-187500.02235174447,-187500.02235174447
$SILENCE,-1742.787866924747,-12378.016099693312,6300.4873753175,8042.403524208489,-187500.02235174447,-187500.02235174447,-187500.02235174447,-187500.02235174447
$SILENCE,-1735.8141226546911,-12389.057861454232,6271.675976714609,8031.853500825585,-187500.02235174447,-187500.02235174447,-187500.02235174447,-187500.02235174447
$SILENCE,-1673.7656800467587,-12379.424259593996,6477.356729192345,8023.181023976926,-187500.02235174447,-187500.02235174447,-187500.02235174447,-187500.02235174447
$SILENCE,-1669.4741451113398,-12364.180369875476,6531.582061240919,8030.847672325096,-187500.02235174447,-187500.02235174447,-187500.02235174447,-187500.02235174447
$SILENCE,-1725.1523405495097,-12371.35527984563,6336.630146101731,8045.175140520948,-187500.02235174447,-187500.02235174447,-187500.02235174447,-187500.02235174447
$SILENCE,-1736.1941023104314,-12381.88295148408,6265.104563844749,8044.415181209467,-187500.02235174447,-187500.02235174447,-187500.02235174447,-187500.02235174447
$SILENCE,-1684.2486481962978,-12375.222131636398,6446.645432310753,8027.606669379076,-187500.02235174447,-187500.02235174447,-187500.02235174447,-187500.02235174447
$SILENCE,-1675.106784714077,-12366.30378559873,6531.850282174383,8027.383151934523,-187500.02235174447,-187500.02235174447,-187500.02235174447,-187500.02235174447
$SILENCE,-1720.9949160808226,-12372.182294390475,6371.856495363295,8038.246099739802,-187500.02235174447,-187500.02235174447,-187500.02235174447,-187500.02235174447
$SILENCE,-1734.696535431926,-12385.280416641286,6242.797522878352,8041.263585241269,-187500.02235174447,-187500.02235174447,-187500.02235174447,-187500.02235174447
$SILENCE,-1682.147584217499,-12383.671091040504,6410.8602894378055,8023.091616999104,-187500.02235174447,-187500.02235174447,-187500.02235174447,-187500.02235174447
$SILENCE,-1656.823057749636,-12369.433029822474,6544.881349191827,8019.403579163979,-187500.02235174447,-187500.02235174447,-187500.02235174447,-187500.02235174447
$SILENCE,-1703.9405350614234,-12371.35527984563,6420.963277931604,8038.939003817917,-187500.02235174447,-187500.02235174447,-187500.02235174447,-187500.02235174447
$SILENCE,-1749.8957216615347,-12380.877122983591,6253.258139283435,8043.454056197889,-187500.02235174447,-187500.02235174447,-187500.02235174447,-187500.02235174447
$SILENCE,-1707.8744420855573,-12380.228922394386,6364.569826670865,8024.611535622065,-187500.02235174447,-187500.02235174447,-187500.02235174447,-187500.02235174447
$SILENCE,-1655.1913804043986,-12367.309614099218,6535.918299665249,8019.805910564174,-187500.02235174447,-187500.02235174447,-187500.02235174447,-187500.02235174447
$SILENCE,-1692.6529041114932,-12371.154114145531,6441.728048530585,8031.831149081129,-187500.02235174447,-187500.02235174447,-187500.02235174447,-187500.02235174447
$SILENCE,-1749.180465838965,-12381.614730550615,6259.896607386662,8041.129474774537,-187500.02235174447,-187500.02235174447,-187500.02235174447,-187500.02235174447
$SILENCE,-1720.3914189805294,-12382.218227650908,6337.792436813407,8031.317058958657,-187500.02235174447,-187500.02235174447,-187500.02235174447,-187500.02235174447
$SILENCE,-1662.9474357303902,-12371.891721712556,6540.790979956506,8027.427855423433,-187500.02235174447,-187500.02235174447,-187500.02235174447,-187500.02235174447
$SILENCE,-1685.343883674608,-12370.774134489791,6479.726014104607,8042.962317819873,-187500.02235174447,-187500.02235174447,-187500.02235174447,-187500.02235174447
$SILENCE,-1742.4078872690068,-12384.408698607529,6280.974302408016,8051.3665737350675,-187500.02235174447,-187500.02235174447,-187500.02235174447,-187500.02235174447
$SILENCE,-1730.852035385613,-12388.409660865029,6295.458232815055,8034.155730504482,-187500.02235174447,-187500.02235174447,-187500.02235174447,-187500.02235174447
$SILENCE,-1667.6413020660045,-12375.199779891942,6515.846433144383,8021.951678031884,-187500.02235174447,-187500.02235174447,-187500.02235174447,-187500.02235174447
$SILENCE,-1676.0232062367447,-12369.433029822474,6507.62099118483,8030.333582202624,-187500.02235174447,-187500.02235174447,-187500.02235174447,-187500.02235174447
$SILENCE,-1728.7062679179035,-12380.45243983894,6309.830404499818,8041.867082341562,-187500.02235174447,-187500.02235174447,-187500.02235174447,-187500.02235174447
$SILENCE,-1736.2611575437973,-12388.811992265224,6259.807200408841,8033.73104735983,-187500.02235174447,-187500.02235174447,-187500.02235174447,-187500.02235174447
$SILENCE,-1684.852145296591,-12376.809105492724,6472.037014011981,8018.800082063685,-187500.02235174447,-187500.02235174447,-187500.02235174447,-187500.02235174447
$SILENCE,-1689.3895494210185,-12369.388326333563,6510.414959241743,8026.131454245026,-187500.02235174447,-187500.02235174447,-187500.02235174447,-187500.02235174447
$SILENCE,-1741.4691140018838,-12375.937387458967,6334.73024782303,8047.857349855584,-187500.02235174447,-187500.02235174447,-187500.02235174447,-187500.02235174447
$SILENCE,-1757.2270938428753,-12381.681785783981,6257.348508518757,8055.88162611504,-187500.02235174447,-187500.02235174447,-187500.02235174447,-187500.02235174447
$SILENCE,-1692.7199593448593,-12377.233788637375,6435.871891483294,8025.416198422457,-187500.02235174447,-187500.02235174447,-187500.02235174447,-187500.02235174447
$SILENCE,-1662.3886421190075,-12369.656547267026,6538.801674699984,8032.613460137065,-187500.02235174447,-187500.02235174447,-187500.02235174447,-187500.02235174447
$SILENCE,-1719.8996806025125,-12373.568102546706,6368.526085439455,8048.393791722512,-187500.02235174447,-187500.02235174447,-187500.02235174447,-187500.02235174447
$SILENCE,-1743.0113843693,-12384.520457329805,6251.179427049092,8038.939003817917,-187500.02235174447,-187500.02235174447,-187500.02235174447,-187500.02235174447
$SILENCE,-1689.9706947768564,-12380.139515416566,6406.702864969118,8029.9983060357945,-187500.02235174447,-187500.02235174447,-187500.02235174447,-187500.02235174447
$SILENCE,-1659.7734880177366,-12370.707079256426,6533.906642664271,8028.5901461351095,-187500.02235174447,-187500.02235174447,-187500.02235174447,-187500.02235174447
$SILENCE,-1711.048389798211,-12372.15994264602,6408.356894058811,8040.771846863252,-187500.02235174447,-187500.02235174447,-187500.02235174447,-187500.02235174447
$SILENCE,-1763.686747990459,-12378.97722470489,6240.51764494391,8046.248024254803,-187500.02235174447,-187500.02235174447,-187500.02235174447,-187500.02235174447
$SILENCE,-1719.2514800133085,-12377.63612003757,6359.07129753486,8032.769922348252,-187500.02235174447,-187500.02235174447,-187500.02235174447,-187500.02235174447
$SILENCE,-1671.8657817680578,-12366.25908210982,6533.906642664271,8030.266526969258,-187500.02235174447,-187500.02235174447,-187500.02235174447,-187500.02235174447
$SILENCE,-1706.019247295767,-12368.248387366342,6440.8563304968275,8046.180969021437,-187500.02235174447,-187500.02235174447,-187500.02235174447,-187500.02235174447
$SILENCE,-1749.0016518833224,-12385.146306174554,6254.643947439665,8052.97589933585,-187500.02235174447,-187500.02235174447,-187500.02235174447,-187500.02235174447
$SILENCE,-1712.8365293546356,-12392.388271378073,6323.375561639734,8041.30828873018,-187500.02235174447,-187500.02235174447,-187500.02235174447,-187500.02235174447
$SILENCE,-1667.7083572993706,-12374.596282791648,6524.697723948685,8028.366628690556,-187500.02235174447,-187500.02235174447,-187500.02235174447,-187500.02235174447
$SILENCE,-1701.7500641048032,-12367.801352477236,6468.013700010026,8036.97205030585,-187500.02235174447,-187500.02235174447,-187500.02235174447,-187500.02235174447
$SILENCE,-1752.1532478515207,-12377.479657826383,6273.419412782123,8048.416143466967,-187500.02235174447,-187500.02235174447,-187500.02235174447,-187500.02235174447
$SILENCE,-1734.4059627540069,-12380.877122983591,6289.512668789944,8045.73393413233,-187500.02235174447,-187500.02235174447,-187500.02235174447,-187500.02235174447
$SILENCE,-1682.5499156176945,-12366.661413510015,6508.112729562847,8035.407428193978,-187500.02235174447,-187500.02235174447,-187500.02235174447,-187500.02235174447
$SILENCE,-1701.2136222378758,-12362.191064618954,6498.166203280235,8042.247061997303,-187500.02235174447,-187500.02235174447,-187500.02235174447,-187500.02235174447
$SILENCE,-1759.171695610487,-12375.289186869764,6304.220116641536,8055.523998203755,-187500.02235174447,-187500.02235174447,-187500.02235174447,-187500.02235174447
$SILENCE,-1762.524457278783,-12384.520457329805,6263.718755688519,8051.232463268336,-187500.02235174447,-187500.02235174447,-187500.02235174447,-187500.02235174447
$SILENCE,-1693.6363808675267,-12372.338756601663,6478.9437030486715,8033.1722537484475,-187500.02235174447,-187500.02235174447,-187500.02235174447,-187500.02235174447
$SILENCE,-1692.7423110893144,-12363.35335533063,6514.080645332414,8037.754361361785,-187500.02235174447,-187500.02235174447,-187500.02235174447,-187500.02235174447
$SILENCE,-1747.0346983712552,-12368.136628644066,6336.183111212625,8053.35587899159,-187500.02235174447,-187500.02235174447,-187500.02235174447,-187500.02235174447
$SILENCE,-1753.8296286856687,-12378.530189815783,6244.831531623785,8050.4501522124,-187500.02235174447,-187500.02235174447,-187500.02235174447,-187500.02235174447
$SILENCE,-1689.3671976765631,-12375.535056058772,6441.459827597121,8031.629983381032,-187500.02235174447,-187500.02235174447,-187500.02235174447,-187500.02235174447
$SILENCE,-1677.85604928208,-12367.153151888031,6531.090322862902,8031.562928147666,-187500.02235174447,-187500.02235174447,-187500.02235174447,-187500.02235174447
$SILENCE,-1727.4769219728616,-12374.68568976947,6370.470687207066,8045.465713198867,-187500.02235174447,-187500.02235174447,-187500.02235174447,-187500.02235174447
$SILENCE,-1752.8014484407245,-12385.302768385742,6237.790732120363,8048.505550444788,-187500.02235174447,-187500.02235174447,-187500.02235174447,-187500.02235174447
$SILENCE,-1708.2320699968423,-12378.932521215978,6398.656236965208,8029.618326380054,-187500.02235174447,-187500.02235174447,-187500.02235174447,-187500.02235174447
$SILENCE,-1684.8968487855018,-12364.962680931412,6540.656869489774,8025.147977488992,-187500.02235174447,-187500.02235174447,-187500.02235174447,-187500.02235174447
$SILENCE,-1731.72375341937,-12371.154114145531,6400.377321288267,8037.083809028127,-187500.02235174447,-187500.02235174447,-187500.02235174447,-187500.02235174447
$SILENCE,-1758.434088043462,-12384.878085241091,6244.138627545671,8046.426838210445,-187500.02235174447,-187500.02235174447,-187500.02235174447,-187500.02235174447
$SILENCE,-1713.7753026217583,-12385.25806489683,6357.68548937863,8031.1158932585595,-187500.02235174447,-187500.02235174447,-187500.02235174447,-187500.02235174447
$SILENCE,-1674.4585841248734,-12372.11523915711,6532.878462419327,8023.985686777317,-187500.02235174447,-187500.02235174447,-187500.02235174447,-187500.02235174447
$SILENCE,-1714.2446892553198,-12371.601149034637,6434.754304260529,8036.860291583574,-187500.02235174447,-187500.02235174447,-187500.02235174447,-187500.02235174447
$SILENCE,-1761.2951113337413,-12382.955835217934,6247.178464791592,8046.046858554704,-187500.02235174447,-187500.02235174447,-187500.02235174447,-187500.02235174447
$SILENCE,-1731.075552830166,-12383.849904996147,6319.4640063600555,8033.127550259537,-187500.02235174447,-187500.02235174447,-187500.02235174447,-187500.02235174447
$SILENCE,-1684.0921859851107,-12371.377631590085,6521.702590191673,8024.678590855431,-187500.02235174447,-187500.02235174447,-187500.02235174447,-187500.02235174447
$SILENCE,-1709.1708432639653,-12367.68959375496,6468.080755243392,8036.435608438923,-187500.02235174447,-187500.02235174447,-187500.02235174447,-187500.02235174447
$SILENCE,-1751.0803641176658,-12375.35624210313,6275.7886976943855,8047.700887644397,-187500.02235174447,-187500.02235174447,-187500.02235174447,-187500.02235174447
$SILENCE,-1738.8539599006128,-12380.608902050126,6289.400910067668,8037.732009617331,-187500.02235174447,-187500.02235174447,-187500.02235174447,-187500.02235174447
$SILENCE,-1692.7870145782251,-12370.394154834052,6505.207002783657,8019.604744864077,-187500.02235174447,-187500.02235174447,-187500.02235174447,-187500.02235174447
$SILENCE,-1701.5712501491607,-12368.181332132976,6498.076796302414,8030.087713013615,-187500.02235174447,-187500.02235174447,-187500.02235174447,-187500.02235174447
$SILENCE,-1748.7781344387693,-12378.709003771426,6308.109320176759,8045.756285876786,-187500.02235174447,-187500.02235174447,-187500.02235174447,-187500.02235174447
$SILENCE,-1758.7246607213808,-12385.459230596929,6258.577854463799,8038.380210206535,-187500.02235174447,-187500.02235174447,-187500.02235174447,-187500.02235174447
$SILENCE,-1706.1310060180433,-12375.132724658577,6467.589016865375,8019.291820441702,-187500.02235174447,-187500.02235174447,-187500.02235174447,-187500.02235174447
$SILENCE,-1712.0095148097892,-12366.63906176556,6509.677351674718,8026.310268200668,-187500.02235174447,-187500.02235174447,-187500.02235174447,-187500.02235174447
$SILENCE,-1763.1279543790763,-12370.394154834052,6333.478550133533,8039.386038707023,-187500.02235174447,-187500.02235174447,-187500.02235174447,-187500.02235174447
$SILENCE,-1750.141590850543,-12383.626387551592,6239.444761210056,8038.06728578416,-187500.02235174447,-187500.02235174447,-187500.02235174447,-187500.02235174447
$SILENCE,-1688.1378517315213,-12380.050108438743,6434.821359493895,8020.498814642288,-187500.02235174447,-187500.02235174447,-187500.02235174447,-187500.02235174447
$SILENCE,-1681.432328394929,-12371.44468682345,6529.480997262121,8020.767035575752,-187500.02235174447,-187500.02235174447,-187500.02235174447,-187500.02235174447
$SILENCE,-1732.751933664314,-12378.239617137864,6372.862323863784,8029.931250802429,-187500.02235174447,-187500.02235174447,-187500.02235174447,-187500.02235174447
$SILENCE,-1753.6955182189367,-12389.683710298981,6238.126008287193,8030.4453409249,-187500.02235174447,-187500.02235174447,-187500.02235174447,-187500.02235174447
$SILENCE,-1691.8705930555575,-12387.850867253646,6395.057606107904,8011.602820349076,-187500.02235174447,-187500.02235174447,-187500.02235174447,-187500.02235174447
$SILENCE,-1658.8347147506136,-12375.73622175887,6530.19625308469,8011.401654648978,-187500.02235174447,-187500.02235174447,-187500.02235174447,-187500.02235174447
$SILENCE,-1695.8715553130576,-12377.367899104107,6402.5230887559765,8026.913765300962,-187500.02235174447,-187500.02235174447,-187500.02235174447,-187500.02235174447
$SILENCE,-1733.1319133200543,-12388.767288776315,6236.315516986313,8031.384114192023,-187500.02235174447,-187500.02235174447,-187500.02235174447,-187500.02235174447
$SILENCE,-1703.2923344722194,-12387.202666664441,6357.104344022792,8021.571698376143,-187500.02235174447,-187500.02235174447,-187500.02235174447,-187500.02235174447
$SILENCE,-1670.725842800837,-12370.394154834052,6535.0018781425815,8016.564907618154,-187500.02235174447,-187500.02235174447,-187500.02235174447,-187500.02235174447
$SILENCE,-1715.2952212447192,-12366.393192576552,6442.622118308797,8028.165462990459,-187500.02235174447,-187500.02235174447,-187500.02235174447,-187500.02235174447
$SILENCE,-1762.7032712344255,-12379.558370060728,6254.711002673031,8036.97205030585,-187500.02235174447,-187500.02235174447,-187500.02235174447,-187500.02235174447
$SILENCE,-1736.2611575437973,-12383.872256740602,6316.245355158491,8027.427855423433,-187500.02235174447,-187500.02235174447,-187500.02235174447,-187500.02235174447
$SILENCE,-1689.8365843101246,-12372.472867068394,6525.547090237987,8020.498814642288,-187500.02235174447,-187500.02235174447,-187500.02235174447,-187500.02235174447
$SILENCE,-1722.693648659426,-12368.449553066439,6469.8465430553615,8034.06632352666,-187500.02235174447,-187500.02235174447,-187500.02235174447,-187500.02235174447
$SILENCE,-1771.8004312277355,-12380.631253794581,6261.371822520712,8038.02258229525,-187500.02235174447,-187500.02235174447,-187500.02235174447,-187500.02235174447
$SILENCE,-1745.3806692815626,-12391.78477427778,6275.364014549735,8022.890451299007,-187500.02235174447,-187500.02235174447,-187500.02235174447,-187500.02235174447
$SILENCE,-1689.6130668655715,-12377.144381659555,6493.3829299668,8007.780672047219,-187500.02235174447,-187500.02235174447,-187500.02235174447,-187500.02235174447
$SILENCE,-1703.0017617943004,-12366.415544321007,6492.488860188587,8018.710675085864,-187500.02235174447,-187500.02235174447,-187500.02235174447,-187500.02235174447
$SILENCE,-1752.913207163001,-12374.462172324917,6304.957724208561,8035.9885735498165,-187500.02235174447,-187500.02235174447,-187500.02235174447,-187500.02235174447
$SILENCE,-1752.8238001851798,-12385.59334106366,6255.314499773324,8029.573622891144,-187500.02235174447,-187500.02235174447,-187500.02235174447,-187500.02235174447
$SILENCE,-1689.6354186100268,-12378.999576449345,6465.465601142121,8010.932268015417,-187500.02235174447,-187500.02235174447,-187500.02235174447,-187500.02235174447
$SILENCE,-1679.9347615164236,-12370.394154834052,6514.304162776967,8016.140224473504,-187500.02235174447,-187500.02235174447,-187500.02235174447,-187500.02235174447
$SILENCE,-1732.8413406421353,-12377.859637482125,6335.914890279161,8029.797140335696,-187500.02235174447,-187500.02235174447,-187500.02235174447,-187500.02235174447
$SILENCE,-1757.8976461765346,-12389.370785876607,6234.415618707611,8024.857404811073,-187500.02235174447,-187500.02235174447,-187500.02235174447,-187500.02235174447
$SILENCE,-1707.9414973189232,-12382.26293113982,6427.534690801464,8006.81954703564,-187500.02235174447,-187500.02235174447,-187500.02235174447,-187500.02235174447
$SILENCE,-1691.8482413111021,-12370.68472751197,6522.708418692162,8007.579506347121,-187500.02235174447,-187500.02235174447,-187500.02235174447,-187500.02235174447
$SILENCE,-1733.1319133200543,-12373.344585102152,6366.000338316005,8024.030390266227,-187500.02235174447,-187500.02235174447,-187500.02235174447,-187500.02235174447
$SILENCE,-1766.2124951139087,-12383.73814627387,6228.961793060517,8028.098407757093,-187500.02235174447,-187500.02235174447,-187500.02235174447,-187500.02235174447
$SILENCE,-1723.498311459817,-12381.950006717445,6388.93322812715,8012.876869783029,-187500.02235174447,-187500.02235174447,-187500.02235174447,-187500.02235174447
$SILENCE,-1695.3574651905853,-12370.461210067417,6530.3080118069665,8014.508547128266,-187500.02235174447,-187500.02235174447,-187500.02235174447,-187500.02235174447
$SILENCE,-1730.9637941078895,-12372.741088001858,6402.344274800334,8029.215994979859,-187500.02235174447,-187500.02235174447,-187500.02235174447,-187500.02235174447
$SILENCE,-1764.3573003241183,-12383.73814627387,6233.633307651676,8032.658163625975,-187500.02235174447,-187500.02235174447,-187500.02235174447,-187500.02235174447
$SILENCE,-1731.1873115524427,-12386.375652119596,6346.01787877296,8016.430797151423,-187500.02235174447,-187500.02235174447,-187500.02235174447,-187500.02235174447
talvez,-1692.4517384113956,-12371.176465889987,6522.641363458796,8009.524108114733,-187500.02235174447,-187500.02235174447,-187500.02235174447,-187500.02235174447
talvez,-1717.820968368169,-12367.980166432879,6432.541481559454,8019.9623727753615,-187500.02235174447,-187500.02235174447,-187500.02235174447,-187500.02235174447
talvez,-1760.0657653886994,-12381.726489272893,6250.419467737612,8030.78061709173,-187500.02235174447,-187500.02235174447,-187500.02235174447,-187500.02235174447
talvez,-1728.3486400066186,-12392.052995211245,6314.1219394352365,8022.465768154356,-187500.02235174447,-187500.02235174447,-187500.02235174447,-187500.02235174447
talvez,-1683.8016133071917,-12382.084117184177,6517.165186067246,8009.524108114733,-187500.02235174447,-187500.02235174447,-187500.02235174447,-187500.02235174447
talvez,-1712.7918258657248,-12377.032622937277,6466.538484875976,8015.313209928658,-187500.02235174447,-187500.02235174447,-187500.02235174447,-187500.02235174447
talvez,-1765.5642945247048,-12383.291111384764,6271.653624970153,8024.790349577707,-187500.02235174447,-187500.02235174447,-187500.02235174447,-187500.02235174447
talvez,-1753.404945541018,-12385.794506763757,6273.709985460042,8018.218936707847,-187500.02235174447,-187500.02235174447,-187500.02235174447,-187500.02235174447
talvez,-1694.4186919234626,-12374.596282791648,6487.705586875151,8002.729177800319,-187500.02235174447,-187500.02235174447,-187500.02235174447,-187500.02235174447
talvez,-1701.6159536380715,-12372.562274046217,6486.543296163475,8006.663084824453,-187500.02235174447,-187500.02235174447,-187500.02235174447,-187500.02235174447
talvez,-1751.236826328853,-12382.620559051104,6295.011197925949,8019.582393119621,-187500.02235174447,-187500.02235174447,-187500.02235174447,-187500.02235174447
talvez,-1752.3097100627078,-12390.510724843827,6245.703249657542,8021.057608253671,-187500.02235174447,-187500.02235174447,-187500.02235174447,-187500.02235174447
talvez,-1697.1232530025547,-12380.273625883297,6458.402449894244,8006.126642957526,-187500.02235174447,-187500.02235174447,-187500.02235174447,-187500.02235174447
talvez,-1698.374950692052,-12372.226997879387,6508.582116196409,8010.328770915124,-187500.02235174447,-187500.02235174447,-187500.02235174447,-187500.02235174447
talvez,-1750.499218761828,-12379.960701460923,6333.120922222248,8022.577526876632,-187500.02235174447,-187500.02235174447,-187500.02235174447,-187500.02235174447
talvez,-1766.3689573250958,-12390.153096932543,6230.682877383576,8019.604744864077,-187500.02235174447,-187500.02235174447,-187500.02235174447,-187500.02235174447
talvez,-1701.3477327046078,-12385.92861723049,6419.286897097457,8002.036273722205,-187500.02235174447,-187500.02235174447,-187500.02235174447,-187500.02235174447
talvez,-1685.2991801856972,-12374.618634536104,6511.711360420151,8002.39390163349,-187500.02235174447,-187500.02235174447,-187500.02235174447,-187500.02235174447
talvez,-1734.718887176381,-12378.373727604596,6359.4959806795105,8013.167442460948,-187500.02235174447,-187500.02235174447,-187500.02235174447,-187500.02235174447
talvez,-1762.5468090232384,-12389.370785876607,6225.765493603408,8018.911840785961,-187500.02235174447,-187500.02235174447,-187500.02235174447,-187500.02235174447
talvez,-1715.8763666005573,-12389.907227743535,6376.907989610195,8000.114023699049,-187500.02235174447,-187500.02235174447,-187500.02235174447,-187500.02235174447
talvez,-1696.1844797354318,-12377.412602593018,6515.95819186666,7993.609666062554,-187500.02235174447,-187500.02235174447,-187500.02235174447,-187500.02235174447
talvez,-1740.7315064348588,-12377.189085148464,6393.560039229398,8005.947829001883,-187500.02235174447,-187500.02235174447,-187500.02235174447,-187500.02235174447
talvez,-1776.5166493078054,-12391.561256833227,6225.318458714301,8014.665009339454,-187500.02235174447,-187500.02235174447,-187500.02235174447,-187500.02235174447
talvez,-1724.9958783383227,-12391.002463221845,6337.144236224203,8005.5231458572325,-187500.02235174447,-187500.02235174447,-187500.02235174447,-187500.02235174447
talvez,-1685.4109389079738,-12375.35624210313,6513.633610443308,7997.811794020152,-187500.02235174447,-187500.02235174447,-187500.02235174447,-187500.02235174447
talvez,-1720.9949160808226,-12377.412602593018,6428.495815813043,8005.903125512973,-187500.02235174447,-187500.02235174447,-187500.02235174447,-187500.02235174447
talvez,-1763.8432102016463,-12388.700233542948,6243.468075212011,8015.0896924841045,-187500.02235174447,-187500.02235174447,-187500.02235174447,-187500.02235174447
talvez,-1742.4749425023726,-12393.55056208975,6302.879011974217,8003.220916178337,-187500.02235174447,-187500.02235174447,-187500.02235174447,-187500.02235174447
talvez,-1689.14368023201,-12373.456343824428,6512.828947642916,7990.4357183499005,-187500.02235174447,-187500.02235174447,-187500.02235174447,-187500.02235174447
talvez,-1704.1640525059763,-12362.794561719247,6465.666766842219,8008.741797058797,-187500.02235174447,-187500.02235174447,-187500.02235174447,-187500.02235174447
talvez,-1781.4116813435176,-12397.59622783616,6241.523473444399,8000.96338998835,-187500.02235174447,-187500.02235174447,-187500.02235174447,-187500.02235174447
talvez,-1761.2280561003754,-12403.698254072458,6251.827627638296,8003.846765023085,-187500.02235174447,-187500.02235174447,-187500.02235174447,-187500.02235174447
talvez,-1700.8783460710463,-12392.231809166886,6473.534580890487,7986.121831670026,-187500.02235174447,-187500.02235174447,-187500.02235174447,-187500.02235174447
talvez,-1703.560555405683,-12381.592378806161,6479.189572237679,7993.319093384635,-187500.02235174447,-187500.02235174447,-187500.02235174447,-187500.02235174447
talvez,-1753.5390560077497,-12389.16962017651,6294.273590358925,8011.200488948881,-187500.02235174447,-187500.02235174447,-187500.02235174447,-187500.02235174447
talvez,-1751.5050472623168,-12393.751727789848,6247.781961891886,8006.372512146535,-187500.02235174447,-187500.02235174447,-187500.02235174447,-187500.02235174447
talvez,-1680.4935551278063,-12358.927709928479,6473.601636123853,8005.567849346144,-187500.02235174447,-187500.02235174447,-187500.02235174447,-187500.02235174447
talvez,-1684.4721656408508,-12361.676974496482,6518.014552356548,8006.841898780096,-187500.02235174447,-187500.02235174447,-187500.02235174447,-187500.02235174447
talvez,-1767.2853788477635,-12407.0286639963,6293.96066593655,7989.586352060599,-187500.02235174447,-187500.02235174447,-187500.02235174447,-187500.02235174447
talvez,-1790.8441175036571,-12423.256030470853,6184.5712285722775,7978.365776344035,-187500.02235174447,-187500.02235174447,-187500.02235174447,-187500.02235174447
talvez,-1712.5236049322612,-12395.338701646175,6396.7116351975965,7982.634959534998,-187500.02235174447,-187500.02235174447,-187500.02235174447,-187500.02235174447
talvez,-1711.9424595764233,-12386.018024208312,6492.690025888685,7982.947883957373,-187500.02235174447,-187500.02235174447,-187500.02235174447,-187500.02235174447
talvez,-1754.5448845082385,-12393.505858600838,6346.599024128798,8005.769015046241,-187500.02235174447,-187500.02235174447,-187500.02235174447,-187500.02235174447
talvez,-1775.689634762959,-12401.910114516035,6196.708225811509,8011.44635813789,-187500.02235174447,-187500.02235174447,-187500.02235174447,-187500.02235174447
talvez,-1734.4506662429174,-12408.727396574903,6337.747733324496,7984.668968280432,-187500.02235174447,-187500.02235174447,-187500.02235174447,-187500.02235174447
talvez,-1696.9667907913674,-12384.45340209644,6513.186575554201,7991.598009061577,-187500.02235174447,-187500.02235174447,-187500.02235174447,-187500.02235174447
talvez,-1728.5498057067164,-12381.905303228534,6444.745534032051,8017.391922163001,-187500.02235174447,-187500.02235174447,-187500.02235174447,-187500.02235174447
talvez,-1781.299922621241,-12389.326082387697,6235.600261163743,8006.752491802275,-187500.02235174447,-187500.02235174447,-187500.02235174447,-187500.02235174447
talvez,-1740.3068232902078,-12389.437841109973,6316.737093536508,7992.112099184049,-187500.02235174447,-187500.02235174447,-187500.02235174447,-187500.02235174447
talvez,-1725.174692293965,-12401.753652304847,6453.261548669523,7953.28711906518,-187500.02235174447,-187500.02235174447,-187500.02235174447,-187500.02235174447
talvez,-1792.3863878710733,-12440.578632423716,6379.590198944831,7968.329843083602,-187500.02235174447,-187500.02235174447,-187500.02235174447,-187500.02235174447
talvez,-1789.2794953917858,-12378.932521215978,6273.754688948952,8033.239308981813,-187500.02235174447,-187500.02235174447,-187500.02235174447,-187500.02235174447
talvez,-1765.7654602248026,-12386.152134675043,6271.76538369243,8005.411387134956,-187500.02235174447,-187500.02235174447,-187500.02235174447,-187500.02235174447
talvez,-1784.9432569674561,-12463.623280957137,6401.226687577569,7926.733246652276,-187500.02235174447,-187500.02235174447,-187500.02235174447,-187500.02235174447
talvez,-1740.5526924792164,-12393.036471967278,6468.505438388042,8021.8399193096075,-187500.02235174447,-187500.02235174447,-187500.02235174447,-187500.02235174447
talvez,-1785.7702715123025,-12380.474791583394,6262.847037654762,8028.277221712736,-187500.02235174447,-187500.02235174447,-187500.02235174447,-187500.02235174447
talvez,-1778.2824371197746,-12371.35527984563,6216.645981865643,8017.056645996171,-187500.02235174447,-187500.02235174447,-187500.02235174447,-187500.02235174447
talvez,-1835.3240889697183,-12481.571731754748,6302.946067207583,7902.526307407178,-187500.02235174447,-187500.02235174447,-187500.02235174447,-187500.02235174447
talvez,-1820.1919579734754,-12464.942033880001,6368.92841683965,7966.497000038266,-187500.02235174447,-187500.02235174447,-187500.02235174447,-187500.02235174447
talvez,-1812.525309625305,-12398.870277270113,6289.289151345391,8039.721314873853,-187500.02235174447,-187500.02235174447,-187500.02235174447,-187500.02235174447
talvez,-1847.46108620895,-12440.712742890448,6153.591710757221,7977.963444943839,-187500.02235174447,-187500.02235174447,-187500.02235174447,-187500.02235174447
talvez,-1799.2483734188527,-12445.428960970517,6326.6836198191195,7942.424171259901,-187500.02235174447,-187500.02235174447,-187500.02235174447,-187500.02235174447
talvez,-1825.3775626871065,-12456.493074475895,6344.967346783561,7944.569938727611,-187500.02235174447,-187500.02235174447,-187500.02235174447,-187500.02235174447
talvez,-1879.4687842689498,-12471.424039772039,6190.717958297487,7977.8740379660185,-187500.02235174447,-187500.02235174447,-187500.02235174447,-187500.02235174447
talvez,-1873.880848155123,-12466.931339136523,6129.652992445587,7982.72436651282,-187500.02235174447,-187500.02235174447,-187500.02235174447,-187500.02235174447
talvez,-1778.68476851997,-12405.26287618433,6347.426038673644,7973.962482686339,-187500.02235174447,-187500.02235174447,-187500.02235174447,-187500.02235174447
talvez,-1786.9549139684336,-12423.859527571145,6439.202301407136,7962.9654244143285,-187500.02235174447,-187500.02235174447,-187500.02235174447,-187500.02235174447
talvez,-1868.5387812303045,-12473.23453107292,6279.81201169634,7938.154988068937,-187500.02235174447,-187500.02235174447,-187500.02235174447,-187500.02235174447
talvez,-1833.2230249909194,-12440.980963823911,6170.467277820979,8013.055683738671,-187500.02235174447,-187500.02235174447,-187500.02235174447,-187500.02235174447
talvez,-1806.0209519888106,-12452.715629662947,6296.642875271186,7995.733081785808,-187500.02235174447,-187500.02235174447,-187500.02235174447,-187500.02235174447
talvez,-1792.4087396155287,-12420.551469391761,6423.801949477429,7953.600043487555,-187500.02235174447,-187500.02235174447,-187500.02235174447,-187500.02235174447
talvez,-1809.5972311016599,-12415.11999548912,6329.656401831675,7985.943017714384,-187500.02235174447,-187500.02235174447,-187500.02235174447,-187500.02235174447
talvez,-1826.4057429320508,-12421.780815336802,6189.220391418981,8046.091562043615,-187500.02235174447,-187500.02235174447,-187500.02235174447,-187500.02235174447
talvez,-1800.0977397081542,-12418.808033324247,6293.088947902793,8012.295724427191,-187500.02235174447,-187500.02235174447,-187500.02235174447,-187500.02235174447
talvez,-1759.2834543327635,-12391.717719044414,6474.965092535626,7983.998415946772,-187500.02235174447,-187500.02235174447,-187500.02235174447,-187500.02235174447
talvez,-1781.8140127437132,-12401.88776277158,6389.894353138728,8008.786500547708,-187500.02235174447,-187500.02235174447,-187500.02235174447,-187500.02235174447
talvez,-1807.1608909560314,-12411.521364631817,6214.500214397934,8019.381227419523,-187500.02235174447,-187500.02235174447,-187500.02235174447,-187500.02235174447
talvez,-1779.1765068979869,-12421.199669980964,6268.390270279679,8024.3656664330565,-187500.02235174447,-187500.02235174447,-187500.02235174447,-187500.02235174447
talvez,-1730.3155935186855,-12404.860544784135,6468.9077697882385,8013.234497694314,-187500.02235174447,-187500.02235174447,-187500.02235174447,-187500.02235174447
talvez,-1731.1873115524427,-12395.182239434987,6452.702755058141,8025.550308889188,-187500.02235174447,-187500.02235174447,-187500.02235174447,-187500.02235174447
talvez,-1775.913152207512,-12401.328969160197,6267.607959223743,8016.229631451325,-187500.02235174447,-187500.02235174447,-187500.02235174447,-187500.02235174447
talvez,-1774.8626202181126,-12415.567030378226,6250.754743904441,7999.778747532219,-187500.02235174447,-187500.02235174447,-187500.02235174447,-187500.02235174447
talvez,-1714.2670409997752,-12403.0277017388,6471.657034356241,7996.113061441549,-187500.02235174447,-187500.02235174447,-187500.02235174447,-187500.02235174447
talvez,-1732.1484365640208,-12390.957759732933,6477.848467570361,7997.476517853323,-187500.02235174447,-187500.02235174447,-187500.02235174447,-187500.02235174447
talvez,-1794.5545070832381,-12408.101547730155,6275.364014549735,8004.5843725901095,-187500.02235174447,-187500.02235174447,-187500.02235174447,-187500.02235174447
talvez,-1797.9743239849001,-12411.320198931719,6222.23391797947,8018.822433808141,-187500.02235174447,-187500.02235174447,-187500.02235174447,-187500.02235174447
talvez,-1716.7480846343142,-12393.952893489944,6459.721202817107,8004.360855145557,-187500.02235174447,-187500.02235174447,-187500.02235174447,-187500.02235174447
talvez,-1710.5790031646495,-12385.459230596929,6527.111712349858,7994.302570140669,-187500.02235174447,-187500.02235174447,-187500.02235174447,-187500.02235174447
talvez,-1768.4476695594394,-12392.008291722334,6351.516407908965,8006.528974357721,-187500.02235174447,-187500.02235174447,-187500.02235174447,-187500.02235174447
talvez,-1802.2435071758637,-12401.68659707148,6218.814101077807,8000.538706843699,-187500.02235174447,-187500.02235174447,-187500.02235174447,-187500.02235174447
talvez,-1759.3281578216743,-12406.536925618282,6389.223800805069,7969.492133795278,-187500.02235174447,-187500.02235174447,-187500.02235174447,-187500.02235174447
talvez,-1731.276718530264,-12387.40383236454,6517.344000022888,8001.455128366367,-187500.02235174447,-187500.02235174447,-187500.02235174447,-187500.02235174447
talvez,-1779.1765068979869,-12392.969416733911,6366.335614482834,8012.653352338476,-187500.02235174447,-187500.02235174447,-187500.02235174447,-187500.02235174447
talvez,-1815.0957602376652,-12397.864448769624,6208.554650372822,8042.537634675221,-187500.02235174447,-187500.02235174447,-187500.02235174447,-187500.02235174447
talvez,-1747.3252710491743,-12385.25806489683,6376.237437276535,8018.2636401967575,-187500.02235174447,-187500.02235174447,-187500.02235174447,-187500.02235174447
talvez,-1705.080474028644,-12362.280471596774,6536.633555487819,8002.2374394223025,-187500.02235174447,-187500.02235174447,-187500.02235174447,-187500.02235174447
talvez,-1756.1542101090206,-12353.250366836832,6410.726178971074,8023.8962797994955,-187500.02235174447,-187500.02235174447,-187500.02235174447,-187500.02235174447
talvez,-1780.5846667986712,-12364.850922209136,6255.985052106983,8038.313154973168,-187500.02235174447,-187500.02235174447,-187500.02235174447,-187500.02235174447
talvez,-1728.3262882621634,-12366.683765254471,6366.201504016102,8024.276259455235,-187500.02235174447,-187500.02235174447,-187500.02235174447,-187500.02235174447
talvez,-1679.8677062830577,-12336.620668962083,6550.424581816743,8034.625117138043,-187500.02235174447,-187500.02235174447,-187500.02235174447,-187500.02235174447
talvez,-1721.3525439921075,-12325.221279289875,6463.7445168190625,8070.387908266534,-187500.02235174447,-187500.02235174447,-187500.02235174447,-187500.02235174447
talvez,-1763.8879136905568,-12335.30191603922,6288.618599011731,8071.3266815336565,-187500.02235174447,-187500.02235174447,-187500.02235174447,-187500.02235174447
talvez,-1745.8053524262134,-12342.029791120267,6326.236584930013,8033.082846770627,-187500.02235174447,-187500.02235174447,-187500.02235174447,-187500.02235174447
talvez,-1663.66269155296,-12313.777186128758,6574.966797228671,8054.115838303071,-187500.02235174447,-187500.02235174447,-187500.02235174447,-187500.02235174447
talvez,-1675.084432969622,-12305.551744169206,6534.398381042288,8074.299463546213,-187500.02235174447,-187500.02235174447,-187500.02235174447,-187500.02235174447
talvez,-1745.4253727704731,-12319.409825731496,6308.221078899036,8059.636719183532,-187500.02235174447,-187500.02235174447,-187500.02235174447,-187500.02235174447
talvez,-1738.496331989328,-12326.204756045909,6296.262895615447,8066.409297753489,-187500.02235174447,-187500.02235174447,-187500.02235174447,-187500.02235174447
talvez,-1653.403240847974,-12304.76943311327,6544.344907324899,8094.304274833713,-187500.02235174447,-187500.02235174447,-187500.02235174447,-187500.02235174447
talvez,-1661.4945723407952,-12298.645055132516,6558.0688784204585,8079.93210314895,-187500.02235174447,-187500.02235174447,-187500.02235174447,-187500.02235174447
talvez,-1730.9637941078895,-12308.837450604136,6373.063489563881,8106.754196495319,-187500.02235174447,-187500.02235174447,-187500.02235174447,-187500.02235174447
talvez,-1731.6119946970935,-12316.81702337468,6314.971305724538,8071.416088511478,-187500.02235174447,-187500.02235174447,-187500.02235174447,-187500.02235174447
talvez,-1678.95128476039,-12308.591581415127,6492.310046232945,8032.680515370431,-187500.02235174447,-187500.02235174447,-187500.02235174447,-187500.02235174447
talvez,-1704.6557908839932,-12306.177593013954,6536.052410131981,8018.3753989190345,-187500.02235174447,-187500.02235174447,-187500.02235174447,-187500.02235174447
talvez,-1730.2038347964092,-12297.86274407658,6378.941998355627,8101.300370848224,-187500.02235174447,-187500.02235174447,-187500.02235174447,-187500.02235174447
talvez,-1711.2495554983086,-12300.634360389038,6317.988791226005,8174.4576304504435,-187500.02235174447,-187500.02235174447,-187500.02235174447,-187500.02235174447
talvez,-1660.600502562583,-12298.130965010043,6494.589924167386,8106.038940672749,-187500.02235174447,-187500.02235174447,-187500.02235174447,-187500.02235174447
talvez,-1644.3954878324853,-12282.19417121341,6619.044437294536,8063.190646551925,-187500.02235174447,-187500.02235174447,-187500.02235174447,-187500.02235174447
talvez,-1692.3846831780295,-12286.552761382194,6461.621101095808,8089.118670120081,-187500.02235174447,-187500.02235174447,-187500.02235174447,-187500.02235174447
talvez,-1755.0142711418,-12302.824831345659,6249.212473537025,8069.046803599215,-187500.02235174447,-187500.02235174447,-187500.02235174447,-187500.02235174447
talvez,-1695.5362791462278,-12305.082357535644,6403.841841678839,8070.656129199998,-187500.02235174447,-187500.02235174447,-187500.02235174447,-187500.02235174447
talvez,-1649.536389057206,-12281.456563646385,6589.987169502637,8082.346091550124,-187500.02235174447,-187500.02235174447,-187500.02235174447,-187500.02235174447
talvez,-1675.9114475144684,-12274.840447287614,6497.003912568559,8108.341170351645,-187500.02235174447,-187500.02235174447,-187500.02235174447,-187500.02235174447
talvez,-1722.5371864482388,-12303.830659846148,6348.7000881075965,8132.235185174369,-187500.02235174447,-187500.02235174447,-187500.02235174447,-187500.02235174447
talvez,-1696.9444390469123,-12296.365177198075,6425.478330311576,8115.717246021896,-187500.02235174447,-187500.02235174447,-187500.02235174447,-187500.02235174447
talvez,-1634.8959964389799,-12282.19417121341,6613.411797691799,8092.404376555011,-187500.02235174447,-187500.02235174447,-187500.02235174447,-187500.02235174447
talvez,-1678.9289330159347,-12289.257322461286,6494.14288927828,8086.928199163462,-187500.02235174447,-187500.02235174447,-187500.02235174447,-187500.02235174447
talvez,-1721.017267825278,-12279.646072345504,6329.187015198114,8123.048618203237,-187500.02235174447,-187500.02235174447,-187500.02235174447,-187500.02235174447
talvez,-1723.5653666931828,-12326.115349068088,6402.724254456074,8088.068138130682,-187500.02235174447,-187500.02235174447,-187500.02235174447,-187500.02235174447
talvez,-1670.6811393119265,-12315.095939051622,6556.3477940974,8066.029318097749,-187500.02235174447,-187500.02235174447,-187500.02235174447,-187500.02235174447
